###################################################################
## OUTPUT of StarlightChains_v04.for    [Cid@UFSC - 01/Apr/2007] ##
###################################################################

## Some input info
NGC5927_b_1.cxt                          [arq_obs]
Base.BC03.N                              [arq_base]
NGC5927_b_1.msk                          [arq_masks]
StCv04.C99.config                        [arq_config]
   45                                    [N_base]
    0                                    [N_YAV_components = # of components with extra extinction!]
    0                                    [i_FitPowerLaw (1/0 = Yes/No)]
-9.99                                    [alpha_PowerLaw]
CCM                                      [red_law_option]
 1.458241                                [q_norm = A(l_norm)/A(V)]

## (Re)Sampling Parameters
 3359.00                                 [l_ini (A)]
 6428.00                                 [l_fin (A)]
    1.00                                 [dl    (A)]     (OBS: dl_cushion =    50.00 A)

## Normalization info
 4020.00                                 [l_norm (A) - for base]
 4010.00                                 [llow_norm (A) - window for f_obs]
 4060.00                                 [lupp_norm (A) - window for f_obs]
5.211403E-15                             [fobs_norm (in input units)]

## S/N
 4730.00                                 [llow_SN (A) - window for S/N]
 4780.00                                 [lupp_SN (A) - window for S/N]
  32.308                                 [S/N in S/N window]
  18.819                                 [S/N in norm. window]
 338.726                                 [S/N_err in S/N window]
 197.303                                 [S/N_err in norm. window]
  1.0000                                 [fscale_chi2]

## etc...
  2147483632                             [idum_orig]
  3067                                   [NOl_eff]
  1524                                   [Nl_eff]
  1543    NSIGMA                         [Ntot_cliped & clip_method]
  2149280                                [Nglobal_steps]
   7                                     [N_chains]
  13                                     [NEX0s_base = N_base in EX0s-fits]
 0   0   1      139   2.0   4.522E+02    [Clip-Bug, RC-Crash & Burn-In warning-flags, n_censored_weights, wei_nsig_threshold & wei_limit]
    26     25.684     25.684      0.000  [idt_all, wdt_TotTime, wdt_UsrTime & wdt_SysTime (sec)]

## Synthesis Results - Best model ##

 2.96462E+00                             [chi2/Nl_eff]
     2.26280                             [adev (%)]

    99.16849                             [sum-of-x (%)]
 2.96343E-14                             [Flux_tot (units of input spectrum!)]
 1.70529E-09                             [Mini_tot (???)]
 8.61818E-10                             [Mcor_tot (???)]

 -10.63                                  [v0_min  (km/s)]
  11.24                                  [vd_min  (km/s)]
 1.3003                                  [AV_min  (mag)]
 0.0000                                  [YAV_min (mag)]

# j     x_j(%)      Mini_j(%)     Mcor_j(%)     age_j(yr)     Z_j      (L/M)_j    YAV?  Mstars   component_j        a/Fe...       SSP_chi2r SSP_adev(%)   SSP_AV   SSP_x(%)
  1      4.0682     6.3994E-03    1.2663E-02    1.000000E+06  0.00400  1.114E-02    0   1.0000   age020_m42            0.0000     2.1990E+03    33.5627   4.0000    99.9962
  2      9.9054     4.2617E-03    8.4318E-03    3.160000E+06  0.00400  4.073E-02    0   0.9999   age045_m42            0.0000     5.2946E+02    11.2051   4.0000   102.4893
  3      4.3978     3.0412E-03    5.7096E-03    5.010000E+06  0.00400  2.534E-02    0   0.9488   age055_m42            0.0000     1.0422E+03    20.4954   4.0000   102.6301
  4      1.9508     2.6896E-03    4.7164E-03    1.000000E+07  0.00400  1.271E-02    0   0.8862   age070_m42            0.0000     4.4428E+02    10.6219   4.0000    95.3985
  5      0.0000     0.0000E+00    0.0000E+00    2.512000E+07  0.00400  5.070E-03    0   0.8174   age090_m42            0.0000     3.9664E+02    11.8577   4.0000    94.4353
  6      0.0000     0.0000E+00    0.0000E+00    4.000000E+07  0.00400  3.505E-03    0   0.7851   age104_m42            0.0000     3.2249E+02     9.4365   3.6594    96.8492
  7      0.0000     0.0000E+00    0.0000E+00    1.015200E+08  0.00400  2.268E-03    0   0.7207   age116_m42            0.0000     5.9256E+02     8.0575   3.5957   103.7402
  8      0.0000     0.0000E+00    0.0000E+00    2.861200E+08  0.00400  1.079E-03    0   0.6613   age125_m42            0.0000     5.9206E+02     8.0733   3.1007   105.3465
  9      0.0000     0.0000E+00    0.0000E+00    6.405400E+08  0.00400  5.077E-04    0   0.6197   age132_m42            0.0000     5.9152E+02     8.3305   2.7288   109.8463
 10      0.0000     0.0000E+00    0.0000E+00    9.047900E+08  0.00400  3.535E-04    0   0.6024   age135_m42            0.0000     4.3866E+02     7.4723   2.4752   109.4510
 11      0.0000     0.0000E+00    0.0000E+00    1.434000E+09  0.00400  1.910E-04    0   0.5716   age139_m42            0.0000     2.2977E+02     6.4936   1.9171   107.8479
 12      0.0000     0.0000E+00    0.0000E+00    2.500000E+09  0.00400  9.818E-05    0   0.5463   age150_m42            0.0000     8.9152E+01     5.4357   1.6111   103.6704
 13      3.6814     1.3674E+00    1.4145E+00    5.000000E+09  0.00400  4.718E-05    0   0.5228   age161_m42            0.0000     3.7327E+01     4.4664   1.4406   100.5880
 14     27.4302     2.1799E+01    2.1481E+01    1.100000E+10  0.00400  2.205E-05    0   0.4980   age185_m42            0.0000     2.5889E+01     5.3434   1.1509    98.3190
 15      4.6336     4.3121E+00    4.2039E+00    1.300000E+10  0.00400  1.883E-05    0   0.4927   age193_m42            0.0000     2.6863E+01     5.3730   1.1351    98.1335
 16      0.0000     0.0000E+00    0.0000E+00    1.000000E+06  0.02000  1.989E-02    0   1.0000   age020_m62            0.0000     2.1322E+03    32.6276   4.0000   100.5464
 17      0.0000     0.0000E+00    0.0000E+00    3.160000E+06  0.02000  3.772E-02    0   0.9858   age045_m62            0.0000     1.8230E+03    29.5247   4.0000   101.9458
 18      0.0000     0.0000E+00    0.0000E+00    5.010000E+06  0.02000  3.227E-02    0   0.9342   age055_m62            0.0000     8.3651E+02    17.4328   4.0000   103.4395
 19      0.0523     9.0670E-05    1.5700E-04    1.000000E+07  0.02000  1.011E-02    0   0.8751   age070_m62            0.0000     5.8353E+02    14.4658   4.0000    94.4472
 20      0.0000     0.0000E+00    0.0000E+00    2.512000E+07  0.02000  4.206E-03    0   0.8099   age090_m62            0.0000     4.7631E+02    13.1968   4.0000    92.9785
 21      0.0000     0.0000E+00    0.0000E+00    4.000000E+07  0.02000  3.373E-03    0   0.7799   age104_m62            0.0000     4.0488E+02     9.2714   3.8794    97.9559
 22      0.0000     0.0000E+00    0.0000E+00    1.015200E+08  0.02000  1.878E-03    0   0.7221   age116_m62            0.0000     5.9021E+02     7.7526   3.6536   104.1974
 23      0.0000     0.0000E+00    0.0000E+00    2.861200E+08  0.02000  8.869E-04    0   0.6700   age125_m62            0.0000     8.0306E+02     9.1806   3.1237   109.5071
 24      0.0000     0.0000E+00    0.0000E+00    6.405400E+08  0.02000  3.657E-04    0   0.6322   age132_m62            0.0000     5.5297E+02     9.5673   2.3807   112.7257
 25      0.0000     0.0000E+00    0.0000E+00    9.047900E+08  0.02000  2.312E-04    0   0.6152   age135_m62            0.0000     3.4663E+02     8.8639   1.9792   112.1944
 26      0.0000     0.0000E+00    0.0000E+00    1.434000E+09  0.02000  1.168E-04    0   0.5865   age139_m62            0.0000     1.2725E+02     6.9563   1.5425   106.9957
 27      0.0000     0.0000E+00    0.0000E+00    2.500000E+09  0.02000  5.505E-05    0   0.5610   age150_m62            0.0000     5.7457E+01     7.1327   1.1374   104.3434
 28      0.0000     0.0000E+00    0.0000E+00    5.000000E+09  0.02000  2.596E-05    0   0.5353   age161_m62            0.0000     7.5624E+01     9.2401   0.7701   103.8614
 29     19.9475     2.9902E+01    3.0193E+01    1.100000E+10  0.02000  1.169E-05    0   0.5103   age185_m62            0.0000     1.4298E+02    11.6210   0.3743   104.7172
 30     18.8752     3.4131E+01    3.4085E+01    1.300000E+10  0.02000  9.691E-06    0   0.5047   age193_m62            0.0000     1.5899E+02    11.9562   0.3262   104.8161
 31      0.0000     0.0000E+00    0.0000E+00    1.000000E+06  0.05000  2.651E-02    0   0.9998   age020_m72            0.0000     2.0810E+03    32.6356   4.0000   101.5143
 32      0.0000     0.0000E+00    0.0000E+00    3.160000E+06  0.05000  4.817E-02    0   0.9577   age045_m72            0.0000     1.4461E+03    26.1829   4.0000   103.9675
 33      0.0000     0.0000E+00    0.0000E+00    5.010000E+06  0.05000  3.101E-02    0   0.9147   age055_m72            0.0000     9.4534E+02    17.4612   4.0000   102.7802
 34      0.0000     0.0000E+00    0.0000E+00    1.000000E+07  0.05000  8.954E-03    0   0.8524   age070_m72            0.0000     1.2203E+03    23.2133   4.0000   103.9187
 35      0.0000     0.0000E+00    0.0000E+00    2.512000E+07  0.05000  4.207E-03    0   0.7902   age090_m72            0.0000     6.2338E+02    13.2567   4.0000   103.0944
 36      0.0000     0.0000E+00    0.0000E+00    4.000000E+07  0.05000  3.198E-03    0   0.7618   age104_m72            0.0000     4.9737E+02     7.0456   3.9904   100.8458
 37      0.0000     0.0000E+00    0.0000E+00    1.015200E+08  0.05000  1.716E-03    0   0.7092   age116_m72            0.0000     6.5014E+02     7.8434   3.7332   104.2208
 38      0.0000     0.0000E+00    0.0000E+00    2.861200E+08  0.05000  7.047E-04    0   0.6618   age125_m72            0.0000     7.4196E+02     9.4947   2.8863   109.8708
 39      0.0000     0.0000E+00    0.0000E+00    6.405400E+08  0.05000  2.633E-04    0   0.6253   age132_m72            0.0000     4.0618E+02     9.4032   1.9837   112.0134
 40      0.0000     0.0000E+00    0.0000E+00    9.047900E+08  0.05000  1.484E-04    0   0.6088   age135_m72            0.0000     1.7290E+02     8.5570   1.4643   107.3918
 41      0.0000     0.0000E+00    0.0000E+00    1.434000E+09  0.05000  7.827E-05    0   0.5847   age139_m72            0.0000     8.9541E+01     8.9998   1.0273   104.2685
 42      0.0000     0.0000E+00    0.0000E+00    2.500000E+09  0.05000  3.759E-05    0   0.5583   age150_m72            0.0000     9.1075E+01     9.9320   0.6820   103.4864
 43      2.2376     2.5330E+00    2.6665E+00    5.000000E+09  0.05000  1.548E-05    0   0.5320   age161_m72            0.0000     1.6088E+02    11.3339   0.2704   102.2128
 44      1.0029     2.6905E+00    2.6991E+00    1.100000E+10  0.05000  6.532E-06    0   0.5070   age185_m72            0.0000     2.9433E+02    14.7063  -0.1626   101.3893
 45      0.9855     3.2485E+00    3.2255E+00    1.300000E+10  0.05000  5.316E-06    0   0.5018   age193_m72            0.0000     3.5666E+02    16.0438  -0.3042   101.3065


## Synthesis Results - Average & Chains ##

# j      x_j: min, <> & last-chain-values for 1 ...  7 chains
  1      4.0682      4.2907      4.3116      4.2257      4.0839      4.2722      4.1665      4.4089      4.3674
  2      9.9054      7.4581      7.5997      7.7224      7.7290      7.4810      8.1726      7.7828      7.6170
  3      4.3978      4.2262      4.2099      4.0844      4.1531      4.4624      4.1115      4.1592      4.2795
  4      1.9508      2.4928      2.5416      2.4866      2.4013      2.4747      2.3073      2.5131      2.6130
  5      0.0000      0.0387      0.0000      0.1406      0.1890      0.0000      0.0544      0.0000      0.0000
  6      0.0000      0.0237      0.0000      0.0897      0.0000      0.0000      0.0000      0.0000      0.0418
  7      0.0000      0.0216      0.0000      0.0000      0.0000      0.0000      0.0118      0.0000      0.0000
  8      0.0000      0.0520      0.0379      0.0340      0.0000      0.1599      0.0000      0.0310      0.0359
  9      0.0000      0.2919      0.4538      0.4111      0.2683      0.2363      0.3025      0.4051      0.8170
 10      0.0000      0.2607      0.4183      0.2920      0.3519      0.1600      0.1942      0.3091      0.2286
 11      0.0000      0.1651      0.2562      0.0000      0.0000      0.0000      0.0000      0.1503      0.2189
 12      0.0000      0.1601      0.5199      0.0000      0.0000      0.0327      0.1317      0.0000      0.0022
 13      3.6814      3.6509      2.3512      3.3287      2.7770      3.1132      3.5773      2.9947      2.0044
 14     27.4302     29.0870     28.9307     29.1270     28.7719     29.5153     29.4561     29.1732     29.7465
 15      4.6336      1.5925      2.5975      2.4744      3.0709      1.8935      1.7916      2.1868      2.3053
 16      0.0000      0.3310      0.2442      0.3093      0.3789      0.3182      0.3030      0.2118      0.3568
 17      0.0000      0.0232      0.0741      0.0000      0.0000      0.0000      0.0068      0.0815      0.0310
 18      0.0000      0.0186      0.0000      0.0000      0.0000      0.1594      0.0000      0.0000      0.0431
 19      0.0523      0.4001      0.3040      0.4697      0.5250      0.3921      0.5087      0.4044      0.1898
 20      0.0000      0.0096      0.0000      0.0000      0.0000      0.0000      0.0000      0.0000      0.0000
 21      0.0000      0.0149      0.0000      0.0000      0.0000      0.0000      0.0000      0.0000      0.0000
 22      0.0000      0.0207      0.0000      0.0000      0.0000      0.0064      0.0000      0.0000      0.0000
 23      0.0000      0.0311      0.0079      0.0000      0.0000      0.0000      0.0655      0.0000      0.0479
 24      0.0000      0.0463      0.2224      0.0000      0.0000      0.0000      0.0000      0.0000      0.1567
 25      0.0000      0.0842      0.0764      0.1761      0.0000      0.1736      0.2170      0.0000      0.0802
 26      0.0000      0.0714      0.0467      0.0000      0.2169      0.0000      0.0928      0.0000      0.0000
 27      0.0000      0.0476      0.0082      0.0000      0.0000      0.0000      0.0155      0.1221      0.0000
 28      0.0000      0.0582      0.0000      0.0000      0.1051      0.0029      0.0000      0.0000      0.0000
 29     19.9475     21.2566     20.7511     21.0270     20.9547     20.9794     20.8977     21.0215     21.0705
 30     18.8752     18.9422     19.3012     19.0199     18.2563     19.0068     18.9595     18.6485     19.3359
 31      0.0000      0.2142      0.3442      0.2094      0.2221      0.1285      0.1965      0.1972      0.1264
 32      0.0000      0.0172      0.0000      0.0020      0.0653      0.0000      0.0000      0.0000      0.0000
 33      0.0000      0.0166      0.0000      0.0000      0.0000      0.0000      0.0462      0.0000      0.0611
 34      0.0000      0.0273      0.0138      0.0000      0.0032      0.0000      0.0000      0.0000      0.0000
 35      0.0000      0.0098      0.0000      0.0000      0.0000      0.0020      0.0001      0.0000      0.0000
 36      0.0000      0.0099      0.0000      0.0000      0.0000      0.0312      0.0000      0.0000      0.0000
 37      0.0000      0.0186      0.0000      0.0368      0.0150      0.0000      0.0000      0.0999      0.0000
 38      0.0000      0.0182      0.0000      0.0718      0.0000      0.0000      0.0000      0.0000      0.0245
 39      0.0000      0.0647      0.0000      0.0000      0.0000      0.0921      0.1138      0.2567      0.0000
 40      0.0000      0.1353      0.0000      0.0000      0.8945      0.7297      0.0000      0.0832      0.0000
 41      0.0000      0.0301      0.0422      0.0000      0.0000      0.0000      0.0000      0.0000      0.0000
 42      0.0000      0.0222      0.0000      0.0000      0.0000      0.0000      0.0000      0.0000      0.0000
 43      2.2376      1.2813      1.1301      1.2999      1.4771      1.2933      1.3028      1.6168      1.1980
 44      1.0029      1.1263      1.0464      1.0900      1.2260      0.9659      1.1516      1.3185      1.2785
 45      0.9855      1.1203      1.4287      1.1156      1.1351      1.1685      1.1054      1.0821      1.0014

# j      m_j: min, <> & last-chain-values for 1 ...  7 chains
  1  1.2663E-02  1.3293E-02  1.3252E-02  1.3057E-02  1.2692E-02  1.3263E-02  1.2924E-02  1.3634E-02  1.3428E-02
  2  8.4318E-03  6.3189E-03  6.3882E-03  6.5259E-03  6.5692E-03  6.3513E-03  6.9331E-03  6.5819E-03  6.4047E-03
  3  5.7096E-03  5.4612E-03  5.3974E-03  5.2644E-03  5.3838E-03  5.7783E-03  5.3198E-03  5.3648E-03  5.4881E-03
  4  4.7164E-03  5.9985E-03  6.0678E-03  5.9681E-03  5.7968E-03  5.9672E-03  5.5592E-03  6.0364E-03  6.2400E-03
  5  0.0000E+00  2.1519E-04  0.0000E+00  7.8035E-04  1.0549E-03  0.0000E+00  3.0333E-04  0.0000E+00  0.0000E+00
  6  0.0000E+00  1.8288E-04  0.0000E+00  6.9182E-04  0.0000E+00  0.0000E+00  0.0000E+00  0.0000E+00  3.2040E-04
  7  0.0000E+00  2.3678E-04  0.0000E+00  0.0000E+00  0.0000E+00  0.0000E+00  1.2934E-04  0.0000E+00  0.0000E+00
  8  0.0000E+00  1.0994E-03  7.9495E-04  7.1833E-04  0.0000E+00  3.3896E-03  0.0000E+00  6.5383E-04  7.5373E-04
  9  0.0000E+00  1.2297E-02  1.8965E-02  1.7274E-02  1.1340E-02  9.9754E-03  1.2757E-02  1.7035E-02  3.4156E-02
 10  0.0000E+00  1.5332E-02  2.4407E-02  1.7126E-02  2.0760E-02  9.4285E-03  1.1438E-02  1.8148E-02  1.3341E-02
 11  0.0000E+00  1.7056E-02  2.6255E-02  0.0000E+00  0.0000E+00  0.0000E+00  0.0000E+00  1.5496E-02  2.2438E-02
 12  0.0000E+00  3.0737E-02  9.9051E-02  0.0000E+00  0.0000E+00  6.2944E-03  2.5317E-02  0.0000E+00  4.2460E-04
 13  1.4145E+00  1.3962E+00  8.9210E-01  1.2697E+00  1.0654E+00  1.1930E+00  1.3698E+00  1.1432E+00  7.6072E-01
 14  2.1481E+01  2.2672E+01  2.2373E+01  2.2645E+01  2.2498E+01  2.3053E+01  2.2989E+01  2.2697E+01  2.3010E+01
 15  4.2039E+00  1.4381E+00  2.3272E+00  2.2287E+00  2.7820E+00  1.7134E+00  1.6199E+00  1.9711E+00  2.0660E+00
 16  0.0000E+00  5.7427E-04  4.2039E-04  5.3532E-04  6.5953E-04  5.5334E-04  5.2640E-04  3.6679E-04  6.1437E-04
 17  0.0000E+00  2.0911E-05  6.6300E-05  0.0000E+00  0.0000E+00  0.0000E+00  6.1197E-06  7.3387E-05  2.7729E-05
 18  0.0000E+00  1.8553E-05  0.0000E+00  0.0000E+00  0.0000E+00  1.5955E-04  0.0000E+00  0.0000E+00  4.2743E-05
 19  1.5700E-04  1.1953E-03  9.0098E-04  1.3995E-03  1.5734E-03  1.1736E-03  1.5217E-03  1.2058E-03  5.6259E-04
 20  0.0000E+00  6.3877E-05  0.0000E+00  0.0000E+00  0.0000E+00  0.0000E+00  0.0000E+00  0.0000E+00  0.0000E+00
 21  0.0000E+00  1.1923E-04  0.0000E+00  0.0000E+00  0.0000E+00  0.0000E+00  0.0000E+00  0.0000E+00  0.0000E+00
 22  0.0000E+00  2.7516E-04  0.0000E+00  0.0000E+00  0.0000E+00  8.4937E-05  0.0000E+00  0.0000E+00  0.0000E+00
 23  0.0000E+00  8.0992E-04  2.0379E-04  0.0000E+00  0.0000E+00  0.0000E+00  1.7100E-03  0.0000E+00  1.2406E-03
 24  0.0000E+00  2.7621E-03  1.3167E-02  0.0000E+00  0.0000E+00  0.0000E+00  0.0000E+00  0.0000E+00  9.2812E-03
 25  0.0000E+00  7.7312E-03  6.9572E-03  1.6129E-02  0.0000E+00  1.5973E-02  1.9951E-02  0.0000E+00  7.3136E-03
 26  0.0000E+00  1.2378E-02  8.0272E-03  0.0000E+00  3.7706E-02  0.0000E+00  1.6096E-02  0.0000E+00  0.0000E+00
 27  0.0000E+00  1.6726E-02  2.8739E-03  0.0000E+00  0.0000E+00  0.0000E+00  5.4650E-03  4.2849E-02  0.0000E+00
 28  0.0000E+00  4.1435E-02  0.0000E+00  0.0000E+00  7.5061E-02  2.0533E-03  0.0000E+00  0.0000E+00  0.0000E+00
 29  3.0193E+01  3.2024E+01  3.1017E+01  3.1596E+01  3.1670E+01  3.1672E+01  3.1523E+01  3.1612E+01  3.1503E+01
 30  3.4085E+01  3.4046E+01  3.4418E+01  3.4097E+01  3.2917E+01  3.4232E+01  3.4121E+01  3.3456E+01  3.4490E+01
 31  0.0000E+00  2.7886E-04  4.4449E-04  2.7187E-04  2.9000E-04  1.6765E-04  2.5607E-04  2.5624E-04  1.6325E-04
 32  0.0000E+00  1.1824E-05  0.0000E+00  1.3415E-06  4.4928E-05  0.0000E+00  0.0000E+00  0.0000E+00  0.0000E+00
 33  0.0000E+00  1.6850E-05  0.0000E+00  0.0000E+00  0.0000E+00  0.0000E+00  4.7132E-05  0.0000E+00  6.1701E-05
 34  0.0000E+00  8.9767E-05  4.5022E-05  0.0000E+00  1.0471E-05  0.0000E+00  0.0000E+00  0.0000E+00  0.0000E+00
 35  0.0000E+00  6.3348E-05  0.0000E+00  0.0000E+00  0.0000E+00  1.3070E-05  8.2674E-07  0.0000E+00  0.0000E+00
 36  0.0000E+00  8.1242E-05  0.0000E+00  0.0000E+00  0.0000E+00  2.5697E-04  0.0000E+00  0.0000E+00  0.0000E+00
 37  0.0000E+00  2.6595E-04  0.0000E+00  5.2380E-04  2.1486E-04  0.0000E+00  0.0000E+00  1.4221E-03  0.0000E+00
 38  0.0000E+00  5.9103E-04  0.0000E+00  2.3197E-03  0.0000E+00  0.0000E+00  0.0000E+00  0.0000E+00  7.8764E-04
 39  0.0000E+00  5.2994E-03  0.0000E+00  0.0000E+00  0.0000E+00  7.5624E-03  9.3365E-03  2.0999E-02  0.0000E+00
 40  0.0000E+00  1.9155E-02  0.0000E+00  0.0000E+00  1.2706E-01  1.0352E-01  0.0000E+00  1.1752E-02  0.0000E+00
 41  0.0000E+00  7.7678E-03  1.0802E-02  0.0000E+00  0.0000E+00  0.0000E+00  0.0000E+00  0.0000E+00  0.0000E+00
 42  0.0000E+00  1.1390E-02  0.0000E+00  0.0000E+00  0.0000E+00  0.0000E+00  0.0000E+00  0.0000E+00  0.0000E+00
 43  2.6665E+00  1.5197E+00  1.3298E+00  1.5378E+00  1.7575E+00  1.5371E+00  1.5471E+00  1.9141E+00  1.4101E+00
 44  2.6991E+00  3.0170E+00  2.7810E+00  2.9123E+00  3.2947E+00  2.5928E+00  3.0888E+00  3.5255E+00  3.3988E+00
 45  3.2255E+00  3.6495E+00  4.6177E+00  3.6250E+00  3.7096E+00  3.8146E+00  3.6058E+00  3.5187E+00  3.2375E+00

# AV, chi2 & Mass for <> & i_chain = 1 ...  7 solutions
AV       1.3003      1.2935      1.2943      1.2947      1.2947      1.2965      1.2981      1.2939      1.2948
chi2 2.9646E+00  3.0013E+00  2.9919E+00  2.9914E+00  2.9922E+00  2.9939E+00  2.9879E+00  2.9906E+00  2.9909E+00
Mass 8.6182E-10  8.5802E-10  8.6576E-10  8.6154E-10  8.5669E-10  8.5963E-10  8.6218E-10  8.6005E-10  8.6605E-10
 -10.22                                  [v0_min (km/s) before EX0s...]
  11.75                                  [vd_min (km/s) before EX0s...]


## Synthetic spectrum (Best Model) ##l_obs f_obs f_syn wei
 3070    [Nl_obs]
 3359.00    0.00000   0.42651   -2.000
 3360.00    0.00000   0.40237   -2.000
 3361.00    0.17053   0.40409   -1.000
 3362.00    0.27412   0.43541   -1.000
 3363.00    0.29634   0.47489   -1.000
 3364.00    0.26824   0.50087   -1.000
 3365.00    0.28490   0.50231   -1.000
 3366.00    0.28625   0.47994   -1.000
 3367.00    0.26982   0.45197   -1.000
 3368.00    0.28448   0.42854   -1.000
 3369.00    0.27627   0.41891   -1.000
 3370.00    0.23684   0.41560   -1.000
 3371.00    0.23549   0.41429   -1.000
 3372.00    0.23308   0.41808   -1.000
 3373.00    0.22126   0.43719   -1.000
 3374.00    0.25165   0.46700   -1.000
 3375.00    0.33077   0.50155   -1.000
 3376.00    0.32705   0.52270   -1.000
 3377.00    0.25672   0.51463   -1.000
 3378.00    0.27706   0.48751   -1.000
 3379.00    0.31319   0.46161   -1.000
 3380.00    0.29933   0.44873   -1.000
 3381.00    0.27909   0.45852   -1.000
 3382.00    0.28982   0.47766   -1.000
 3383.00    0.31138   0.49497   -1.000
 3384.00    0.32312   0.50382   -1.000
 3385.00    0.32566   0.51564   -1.000
 3386.00    0.33739   0.52156   -1.000
 3387.00    0.35704   0.52109   -1.000
 3388.00    0.34121   0.51790   -1.000
 3389.00    0.35700   0.51489   -1.000
 3390.00    0.41212   0.50893   -1.000
 3391.00    0.40029   0.49449   -1.000
 3392.00    0.34068   0.47809   -1.000
 3393.00    0.31830   0.47434   -1.000
 3394.00    0.35036   0.48846   -1.000
 3395.00    0.37958   0.51400   -1.000
 3396.00    0.37724   0.53357   -1.000
 3397.00    0.38157   0.55160   -1.000
 3398.00    0.40151   0.56347   -1.000
 3399.00    0.43752   0.56297   -1.000
 3400.00    0.44916   0.55618   -1.000
 3401.00    0.43532   0.54591   -1.000
 3402.00    0.43264   0.52916   -1.000
 3403.00    0.43828   0.51634   -1.000
 3404.00    0.43811   0.50932   -1.000
 3405.00    0.41783   0.50406   -1.000
 3406.00    0.42746   0.49587   -1.000
 3407.00    0.44004   0.48888   60.737
 3408.00    0.41322   0.48961   -1.000
 3409.00    0.40159   0.49707   -1.000
 3410.00    0.41276   0.50843   -1.000
 3411.00    0.40612   0.50549   -1.000
 3412.00    0.40688   0.48943   -1.000
 3413.00    0.42009   0.47120   60.072
 3414.00    0.43011   0.46136   61.594
 3415.00    0.43175   0.47099   63.297
 3416.00    0.41282   0.48933   -1.000
 3417.00    0.42962   0.51351   -1.000
 3418.00    0.44009   0.53362   -1.000
 3419.00    0.47137   0.55300   -1.000
 3420.00    0.48329   0.56021   -1.000
 3421.00    0.45649   0.55341   -1.000
 3422.00    0.45364   0.53445   -1.000
 3423.00    0.47347   0.52350   53.239
 3424.00    0.47848   0.52107   54.366
 3425.00    0.48455   0.52408   55.738
 3426.00    0.48947   0.52860   55.131
 3427.00    0.46542   0.53668   -1.000
 3428.00    0.46140   0.55705   -1.000
 3429.00    0.49388   0.57934   -1.000
 3430.00    0.52890   0.57758   -1.000
 3431.00    0.51172   0.55847   -1.000
 3432.00    0.46843   0.53269   -1.000
 3433.00    0.47163   0.51990   -1.000
 3434.00    0.49295   0.52626   79.441
 3435.00    0.50059   0.53660   52.820
 3436.00    0.44260   0.53705   -1.000
 3437.00    0.43921   0.52442   -1.000
 3438.00    0.47113   0.49901   79.009
 3439.00    0.47888   0.46382   54.213
 3440.00    0.46005   0.42950   57.217
 3441.00    0.40800   0.40598   61.360
 3442.00    0.38175   0.40769   64.746
 3443.00    0.41335   0.42222   65.757
 3444.00    0.43228   0.44005   65.608
 3445.00    0.46286   0.45378   63.830
 3446.00    0.48606   0.47294   60.663
 3447.00    0.48459   0.49653   57.313
 3448.00    0.49660   0.52401   54.897
 3449.00    0.50024   0.54422   -1.000
 3450.00    0.50141   0.54485   -1.000
 3451.00    0.50686   0.52837   -1.000
 3452.00    0.50059   0.51108   -1.000
 3453.00    0.50848   0.50613  452.188
 3454.00    0.54230   0.51783   -1.000
 3455.00    0.53831   0.52855   -1.000
 3456.00    0.52390   0.52583  452.188
 3457.00    0.52424   0.50804   -1.000
 3458.00    0.49759   0.48360   -1.000
 3459.00    0.46615   0.46901  452.188
 3460.00    0.44593   0.45820   80.124
 3461.00    0.47168   0.46167   53.273
 3462.00    0.50263   0.48379   53.321
 3463.00    0.53459   0.51279  119.327
 3464.00    0.53286   0.51658   -1.000
 3465.00    0.50258   0.51123  452.188
 3466.00    0.48911   0.50692   -1.000
 3467.00    0.50085   0.51463   -1.000
 3468.00    0.53180   0.53189  452.188
 3469.00    0.55535   0.54606   -1.000
 3470.00    0.58345   0.55094   -1.000
 3471.00    0.56805   0.53855   -1.000
 3472.00    0.55029   0.51654   -1.000
 3473.00    0.52914   0.48862   -1.000
 3474.00    0.48853   0.46140   -1.000
 3475.00    0.45559   0.44180   -1.000
 3476.00    0.45669   0.44711   81.447
 3477.00    0.49022   0.46799   54.491
 3478.00    0.51060   0.49391   54.519
 3479.00    0.52688   0.51321  118.981
 3480.00    0.52621   0.52238  452.188
 3481.00    0.52634   0.52076   -1.000
 3482.00    0.54045   0.50963   -1.000
 3483.00    0.52956   0.49753   -1.000
 3484.00    0.52002   0.49720   -1.000
 3485.00    0.52569   0.51525   -1.000
 3486.00    0.54190   0.53780  452.188
 3487.00    0.56071   0.54650   -1.000
 3488.00    0.54223   0.52933   -1.000
 3489.00    0.51678   0.49881   -1.000
 3490.00    0.49372   0.47456   -1.000
 3491.00    0.49698   0.47145   -1.000
 3492.00    0.51557   0.48366   -1.000
 3493.00    0.50340   0.49667   -1.000
 3494.00    0.49275   0.50271  452.188
 3495.00    0.50141   0.49392   -1.000
 3496.00    0.49516   0.48288   -1.000
 3497.00    0.50490   0.48806   -1.000
 3498.00    0.50940   0.51638  452.188
 3499.00    0.51760   0.54623   -1.000
 3500.00    0.53630   0.55423   -1.000
 3501.00    0.56871   0.55865   -1.000
 3502.00    0.57363   0.56753  419.104
 3503.00    0.58615   0.57439   -1.000
 3504.00    0.60136   0.56896   -1.000
 3505.00    0.58680   0.55420   -1.000
 3506.00    0.57826   0.54389   -1.000
 3507.00    0.55479   0.54299   -1.000
 3508.00    0.53723   0.54185  431.517
 3509.00    0.54489   0.53037   -1.000
 3510.00    0.54396   0.51720   -1.000
 3511.00    0.54331   0.50470   -1.000
 3512.00    0.51407   0.49452   -1.000
 3513.00    0.48758   0.48022   -1.000
 3514.00    0.48105   0.47743   -1.000
 3515.00    0.48271   0.49890   -1.000
 3516.00    0.51146   0.53773   -1.000
 3517.00    0.53703   0.56859   -1.000
 3518.00    0.56865   0.57742   -1.000
 3519.00    0.58551   0.56049   -1.000
 3520.00    0.56940   0.53220   -1.000
 3521.00    0.51150   0.50190   -1.000
 3522.00    0.48798   0.48356   -1.000
 3523.00    0.46900   0.46219   -1.000
 3524.00    0.45356   0.44474   -1.000
 3525.00    0.45418   0.43986   83.058
 3526.00    0.45398   0.45700   53.927
 3527.00    0.47307   0.49010   54.496
 3528.00    0.51307   0.52833  115.384
 3529.00    0.52488   0.54977   -1.000
 3530.00    0.52527   0.55427   -1.000
 3531.00    0.51807   0.54513   -1.000
 3532.00    0.50838   0.54281   -1.000
 3533.00    0.54338   0.55078  449.703
 3534.00    0.57683   0.56404   -1.000
 3535.00    0.57321   0.57256  441.283
 3536.00    0.57064   0.57197  432.667
 3537.00    0.54661   0.57473   -1.000
 3538.00    0.55004   0.58625   -1.000
 3539.00    0.58178   0.59326   -1.000
 3540.00    0.58122   0.58762  416.904
 3541.00    0.56346   0.57458   -1.000
 3542.00    0.55998   0.57490   -1.000
 3543.00    0.54394   0.58540   -1.000
 3544.00    0.54530   0.59558   -1.000
 3545.00    0.58276   0.59707   -1.000
 3546.00    0.57475   0.58766   -1.000
 3547.00    0.55646   0.58086   -1.000
 3548.00    0.57219   0.58046   -1.000
 3549.00    0.56993   0.58331   -1.000
 3550.00    0.54414   0.58311   -1.000
 3551.00    0.53805   0.57599   -1.000
 3552.00    0.53742   0.56111   -1.000
 3553.00    0.50543   0.54663   -1.000
 3554.00    0.50389   0.54282   -1.000
 3555.00    0.50920   0.54926   -1.000
 3556.00    0.52293   0.55446   -1.000
 3557.00    0.52476   0.55306   -1.000
 3558.00    0.49410   0.54528   -1.000
 3559.00    0.49852   0.54360   -1.000
 3560.00    0.51121   0.55405   -1.000
 3561.00    0.52181   0.57118   -1.000
 3562.00    0.54541   0.58180   -1.000
 3563.00    0.55817   0.56490   -1.000
 3564.00    0.53314   0.51906   -1.000
 3565.00    0.48607   0.47422   -1.000
 3566.00    0.44942   0.46430   85.596
 3567.00    0.44620   0.46951   54.590
 3568.00    0.45765   0.46830   55.152
 3569.00    0.44755   0.45107   54.694
 3570.00    0.43764   0.43577   55.644
 3571.00    0.46359   0.44333   57.052
 3572.00    0.48789   0.46773   56.423
 3573.00    0.49621   0.48576   54.190
 3574.00    0.51558   0.49614  109.456
 3575.00    0.50654   0.49887   -1.000
 3576.00    0.49932   0.49935  452.188
 3577.00    0.48672   0.48971  452.188
 3578.00    0.46034   0.46973   -1.000
 3579.00    0.44557   0.43714   -1.000
 3580.00    0.42198   0.41116   89.336
 3581.00    0.39673   0.39756   57.578
 3582.00    0.38877   0.40350   61.372
 3583.00    0.38867   0.41504   63.020
 3584.00    0.39664   0.41425   63.328
 3585.00    0.39072   0.40321   64.355
 3586.00    0.37588   0.39848   66.277
 3587.00    0.37497   0.40804   67.751
 3588.00    0.40758   0.43072   66.122
 3589.00    0.44537   0.46437   62.648
 3590.00    0.46245   0.49766   59.492
 3591.00    0.48907   0.52388   55.151
 3592.00    0.50832   0.52833  107.182
 3593.00    0.51073   0.52657   -1.000
 3594.00    0.51004   0.53271   -1.000
 3595.00    0.52618   0.55336   -1.000
 3596.00    0.55314   0.57691   -1.000
 3597.00    0.56437   0.58963   -1.000
 3598.00    0.58432   0.60168   -1.000
 3599.00    0.61545   0.61189  407.232
 3600.00    0.61104   0.60916  398.866
 3601.00    0.59365   0.58500  398.809
 3602.00    0.57001   0.55245   -1.000
 3603.00    0.54767   0.52132   -1.000
 3604.00    0.54300   0.50623   -1.000
 3605.00    0.53315   0.50555   -1.000
 3606.00    0.51500   0.50516   -1.000
 3607.00    0.49254   0.49420  452.188
 3608.00    0.49722   0.47580   -1.000
 3609.00    0.49873   0.46853   -1.000
 3610.00    0.48861   0.48386   -1.000
 3611.00    0.50993   0.51063  452.188
 3612.00    0.52212   0.52522  452.188
 3613.00    0.53469   0.53782  452.188
 3614.00    0.55871   0.55208   -1.000
 3615.00    0.56888   0.56481  450.200
 3616.00    0.55947   0.55403  437.280
 3617.00    0.52887   0.51032   -1.000
 3618.00    0.48208   0.46236   -1.000
 3619.00    0.45746   0.46006  452.188
 3620.00    0.47160   0.48796   87.430
 3621.00    0.50978   0.53233  104.265
 3622.00    0.54173   0.56495   -1.000
 3623.00    0.55415   0.58272   -1.000
 3624.00    0.57964   0.59767   -1.000
 3625.00    0.61230   0.62688   -1.000
 3626.00    0.62617   0.65668   -1.000
 3627.00    0.63863   0.67350   -1.000
 3628.00    0.63813   0.65895   -1.000
 3629.00    0.61116   0.60894  375.809
 3630.00    0.56811   0.54005   -1.000
 3631.00    0.51642   0.50092   -1.000
 3632.00    0.49647   0.49427  452.188
 3633.00    0.51744   0.51728  452.188
 3634.00    0.53423   0.54041  452.188
 3635.00    0.54733   0.55796   -1.000
 3636.00    0.57351   0.56550   -1.000
 3637.00    0.61036   0.58539   -1.000
 3638.00    0.62383   0.61243   -1.000
 3639.00    0.62582   0.63528   -1.000
 3640.00    0.62449   0.64364   -1.000
 3641.00    0.61067   0.63063   -1.000
 3642.00    0.59627   0.60483   -1.000
 3643.00    0.56661   0.57887   -1.000
 3644.00    0.53906   0.55811   -1.000
 3645.00    0.53966   0.54359  433.368
 3646.00    0.53989   0.52686   -1.000
 3647.00    0.53686   0.51060   -1.000
 3648.00    0.52146   0.51139   -1.000
 3649.00    0.51423   0.52611   -1.000
 3650.00    0.55934   0.55682  452.188
 3651.00    0.57840   0.59021   -1.000
 3652.00    0.58981   0.62384   -1.000
 3653.00    0.61133   0.63955   -1.000
 3654.00    0.61229   0.64782   -1.000
 3655.00    0.62821   0.65341   -1.000
 3656.00    0.65469   0.66619   -1.000
 3657.00    0.66198   0.68307   -1.000
 3658.00    0.66212   0.69105   -1.000
 3659.00    0.67067   0.69490   -1.000
 3660.00    0.65968   0.69191   -1.000
 3661.00    0.64856   0.68053   -1.000
 3662.00    0.66937   0.66260  364.702
 3663.00    0.66728   0.64984   -1.000
 3664.00    0.62899   0.64463   -1.000
 3665.00    0.62669   0.64804   -1.000
 3666.00    0.66126   0.64927   -1.000
 3667.00    0.66042   0.64073   -1.000
 3668.00    0.62865   0.62340  379.659
 3669.00    0.60509   0.61261   -1.000
 3670.00    0.59140   0.62401   -1.000
 3671.00    0.60570   0.64788   -1.000
 3672.00    0.65115   0.66562   -1.000
 3673.00    0.67359   0.67091  375.377
 3674.00    0.66302   0.66687  371.298
 3675.00    0.65445   0.65322  370.714
 3676.00    0.64327   0.63052   -1.000
 3677.00    0.62419   0.60379   -1.000
 3678.00    0.59562   0.57797   -1.000
 3679.00    0.57104   0.56432  401.609
 3680.00    0.57920   0.56726   -1.000
 3681.00    0.60560   0.58571   -1.000
 3682.00    0.61705   0.60497   -1.000
 3683.00    0.61553   0.61607  398.800
 3684.00    0.61033   0.60728  391.508
 3685.00    0.58547   0.57769  395.020
 3686.00    0.54978   0.54286  408.335
 3687.00    0.53757   0.53454  425.229
 3688.00    0.55190   0.55439  437.453
 3689.00    0.60099   0.59798  434.186
 3690.00    0.66138   0.64252   -1.000
 3691.00    0.68454   0.66892   -1.000
 3692.00    0.67769   0.66353   -1.000
 3693.00    0.65646   0.64617  363.559
 3694.00    0.63158   0.63445  370.389
 3695.00    0.63390   0.62947  377.990
 3696.00    0.64498   0.63403   -1.000
 3697.00    0.65831   0.64956  376.762
 3698.00    0.68896   0.67787  372.709
 3699.00    0.69337   0.70066   -1.000
 3700.00    0.68586   0.70951   -1.000
 3701.00    0.68968   0.69298  346.716
 3702.00    0.67158   0.64860   -1.000
 3703.00    0.61940   0.58495   -1.000
 3704.00    0.57184   0.53315   -1.000
 3705.00    0.55848   0.49963   -1.000
 3706.00    0.55066   0.50170   -1.000
 3707.00    0.53597   0.51300   -1.000
 3708.00    0.53347   0.52646   -1.000
 3709.00    0.55227   0.54313   -1.000
 3710.00    0.58916   0.57199   -1.000
 3711.00    0.63452   0.60468   -1.000
 3712.00    0.66831   0.64560   -1.000
 3713.00    0.69682   0.67948   -1.000
 3714.00    0.72467   0.69564   -1.000
 3715.00    0.71847   0.69159   -1.000
 3716.00    0.68268   0.66991   -1.000
 3717.00    0.64364   0.62818   -1.000
 3718.00    0.59120   0.57052   -1.000
 3719.00    0.52265   0.49862   -1.000
 3720.00    0.47102   0.44029   -1.000
 3721.00    0.45567   0.43157   -1.000
 3722.00    0.48027   0.46067   94.880
 3723.00    0.53723   0.51582   99.171
 3724.00    0.60261   0.57605   -1.000
 3725.00    0.65313   0.60936   -1.000
 3726.00    0.65827   0.60418   -1.000
 3727.00    0.62494   0.59212   -1.000
 3728.00    0.61743   0.59703   -1.000
 3729.00    0.62945   0.60430   -1.000
 3730.00    0.62302   0.59686   -1.000
 3731.00    0.58171   0.56053   -1.000
 3732.00    0.53916   0.49681   -1.000
 3733.00    0.48403   0.44004   -1.000
 3734.00    0.42372   0.39180   -1.000
 3735.00    0.40846   0.37863   55.707
 3736.00    0.42826   0.39882   60.115
 3737.00    0.45243   0.44819   59.572
 3738.00    0.49416   0.51062   55.149
 3739.00    0.55318   0.57822   95.735
 3740.00    0.58468   0.61297   -1.000
 3741.00    0.60932   0.61565  405.359
 3742.00    0.60846   0.58675   -1.000
 3743.00    0.56894   0.54775   -1.000
 3744.00    0.52138   0.50835   -1.000
 3745.00    0.49121   0.48796   -1.000
 3746.00    0.47566   0.46636   -1.000
 3747.00    0.46148   0.44042   -1.000
 3748.00    0.45364   0.41150   -1.000
 3749.00    0.44881   0.40330   55.075
 3750.00    0.47485   0.43614   57.151
 3751.00    0.53217   0.50005   -1.000
 3752.00    0.58780   0.56168   -1.000
 3753.00    0.63765   0.61691   -1.000
 3754.00    0.67409   0.65902   -1.000
 3755.00    0.68360   0.66309   -1.000
 3756.00    0.66010   0.62667   -1.000
 3757.00    0.59606   0.56803   -1.000
 3758.00    0.52813   0.52093   -1.000
 3759.00    0.51382   0.51775  443.305
 3760.00    0.53924   0.53846  452.188
 3761.00    0.55343   0.55926  449.912
 3762.00    0.56011   0.56630  425.113
 3763.00    0.58448   0.56764   -1.000
 3764.00    0.60085   0.56816   -1.000
 3765.00    0.59131   0.56227   -1.000
 3766.00    0.57973   0.55099   -1.000
 3767.00    0.57753   0.54714   -1.000
 3768.00    0.58158   0.54913   -1.000
 3769.00    0.59114   0.55134   -1.000
 3770.00    0.60847   0.55419   -1.000
 3771.00    0.62448   0.57234   -1.000
 3772.00    0.63995   0.60319   -1.000
 3773.00    0.66272   0.63221   -1.000
 3774.00    0.67200   0.64252   -1.000
 3775.00    0.66432   0.64835   -1.000
 3776.00    0.66649   0.65514   -1.000
 3777.00    0.67302   0.66620  364.060
 3778.00    0.67558   0.68284  363.082
 3779.00    0.68703   0.69849   -1.000
 3780.00    0.69306   0.71415   -1.000
 3781.00    0.69402   0.72307   -1.000
 3782.00    0.70958   0.72791   -1.000
 3783.00    0.72492   0.72741  334.066
 3784.00    0.72167   0.71109   -1.000
 3785.00    0.68203   0.67267   -1.000
 3786.00    0.62822   0.62966  350.012
 3787.00    0.59290   0.59397  372.632
 3788.00    0.56566   0.57566  396.259
 3789.00    0.56170   0.57827   -1.000
 3790.00    0.57207   0.59184   -1.000
 3791.00    0.58456   0.60188   -1.000
 3792.00    0.59583   0.59610  403.473
 3793.00    0.57860   0.57133   -1.000
 3794.00    0.54998   0.54520  415.338
 3795.00    0.54066   0.52148   -1.000
 3796.00    0.53712   0.49897   -1.000
 3797.00    0.51777   0.46682   -1.000
 3798.00    0.49695   0.45137   -1.000
 3799.00    0.51595   0.47791   -1.000
 3800.00    0.56367   0.53578   -1.000
 3801.00    0.60095   0.59306   -1.000
 3802.00    0.62588   0.64201   -1.000
 3803.00    0.64779   0.66542   -1.000
 3804.00    0.64709   0.67130   -1.000
 3805.00    0.62538   0.65481   -1.000
 3806.00    0.59756   0.63080   -1.000
 3807.00    0.58054   0.62461   -1.000
 3808.00    0.59422   0.64513   -1.000
 3809.00    0.61470   0.67286   -1.000
 3810.00    0.63571   0.68543   -1.000
 3811.00    0.64612   0.67118   -1.000
 3812.00    0.61390   0.63241   -1.000
 3813.00    0.56500   0.58854   -1.000
 3814.00    0.53486   0.54767   -1.000
 3815.00    0.51791   0.53233   -1.000
 3816.00    0.51522   0.54142   -1.000
 3817.00    0.52278   0.55432   -1.000
 3818.00    0.51569   0.54550   -1.000
 3819.00    0.48477   0.51363   -1.000
 3820.00    0.46027   0.49018   -1.000
 3821.00    0.46064   0.49647   -1.000
 3822.00    0.47445   0.51933   -1.000
 3823.00    0.49870   0.51904   -1.000
 3824.00    0.49127   0.49000  452.188
 3825.00    0.44374   0.46316   -1.000
 3826.00    0.41273   0.45018   -1.000
 3827.00    0.40902   0.45284   55.730
 3828.00    0.42650   0.46300   56.104
 3829.00    0.43863   0.47004   55.393
 3830.00    0.43083   0.46684   54.484
 3831.00    0.42834   0.44886   54.345
 3832.00    0.40975   0.42235   55.900
 3833.00    0.38574   0.39521   59.390
 3834.00    0.40555   0.38376   62.798
 3835.00    0.43123   0.38774   63.141
 3836.00    0.42855   0.40031   61.207
 3837.00    0.42281   0.40665   59.263
 3838.00    0.40854   0.40816   59.201
 3839.00    0.40861   0.41703   60.585
 3840.00    0.42745   0.44388   60.823
 3841.00    0.45449   0.49148   58.519
 3842.00    0.51007   0.53976   97.014
 3843.00    0.55521   0.58353   -1.000
 3844.00    0.56377   0.60220   -1.000
 3845.00    0.54874   0.60965   -1.000
 3846.00    0.55471   0.61463   -1.000
 3847.00    0.55459   0.61833   -1.000
 3848.00    0.54123   0.60826   -1.000
 3849.00    0.52561   0.59401   -1.000
 3850.00    0.51413   0.58933   -1.000
 3851.00    0.52640   0.60176   -1.000
 3852.00    0.54424   0.61522   -1.000
 3853.00    0.54627   0.61565   -1.000
 3854.00    0.53783   0.59757   -1.000
 3855.00    0.53127   0.57651   -1.000
 3856.00    0.51329   0.55884   -1.000
 3857.00    0.48770   0.53843   -1.000
 3858.00    0.45651   0.51339   -1.000
 3859.00    0.42747   0.50177   -1.000
 3860.00    0.43454   0.51678   -1.000
 3861.00    0.48943   0.55704   -1.000
 3862.00    0.55042   0.60030   -1.000
 3863.00    0.57876   0.62013   -1.000
 3864.00    0.57036   0.61454   -1.000
 3865.00    0.56162   0.60542   -1.000
 3866.00    0.55830   0.60086   -1.000
 3867.00    0.54353   0.60156   -1.000
 3868.00    0.52739   0.59963   -1.000
 3869.00    0.51294   0.58659   -1.000
 3870.00    0.49031   0.55965   -1.000
 3871.00    0.47451   0.53769   -1.000
 3872.00    0.47969   0.53374   -1.000
 3873.00    0.49631   0.55778   -1.000
 3874.00    0.54179   0.59781   -1.000
 3875.00    0.57743   0.62490   -1.000
 3876.00    0.56809   0.60989   -1.000
 3877.00    0.52904   0.57428   -1.000
 3878.00    0.50133   0.55414   -1.000
 3879.00    0.49515   0.55338   -1.000
 3880.00    0.49633   0.56242   -1.000
 3881.00    0.49626   0.56646   -1.000
 3882.00    0.50718   0.56744   -1.000
 3883.00    0.54233   0.57641   -1.000
 3884.00    0.57641   0.57365  452.188
 3885.00    0.58816   0.54286   -1.000
 3886.00    0.55743   0.49884   -1.000
 3887.00    0.51506   0.46805   -1.000
 3888.00    0.53285   0.46499   -1.000
 3889.00    0.58570   0.49422   -1.000
 3890.00    0.62365   0.54754   -1.000
 3891.00    0.65832   0.60682   -1.000
 3892.00    0.68638   0.64655   -1.000
 3893.00    0.69775   0.65086   -1.000
 3894.00    0.68720   0.64240   -1.000
 3895.00    0.67291   0.64184   -1.000
 3896.00    0.67897   0.65363   -1.000
 3897.00    0.68798   0.66417   -1.000
 3898.00    0.68354   0.66121   -1.000
 3899.00    0.67499   0.65388   -1.000
 3900.00    0.67695   0.65911   -1.000
 3901.00    0.68878   0.66778   -1.000
 3902.00    0.69548   0.66617   -1.000
 3903.00    0.67470   0.65294   -1.000
 3904.00    0.64455   0.63283   -1.000
 3905.00    0.62513   0.62619  368.438
 3906.00    0.61899   0.63671   -1.000
 3907.00    0.65840   0.67008   -1.000
 3908.00    0.72163   0.71143   -1.000
 3909.00    0.74583   0.73894  347.104
 3910.00    0.74663   0.74893  330.558
 3911.00    0.76094   0.75767  325.124
 3912.00    0.77911   0.75958   -1.000
 3913.00    0.77328   0.75292   -1.000
 3914.00    0.76440   0.74217   -1.000
 3915.00    0.76580   0.73106   -1.000
 3916.00    0.75577   0.72008   -1.000
 3917.00    0.74200   0.70732   -1.000
 3918.00    0.71432   0.68421   -1.000
 3919.00    0.66425   0.65308   -1.000
 3920.00    0.61788   0.62585  363.009
 3921.00    0.59718   0.61129   -1.000
 3922.00    0.60969   0.61742  393.438
 3923.00    0.62986   0.63030  396.123
 3924.00    0.63983   0.63248   -1.000
 3925.00    0.61729   0.61774  387.954
 3926.00    0.57541   0.58168  398.314
 3927.00    0.51622   0.53683   -1.000
 3928.00    0.44975   0.48622   -1.000
 3929.00    0.41629   0.44496  117.316
 3930.00    0.39836   0.40216   62.389
 3931.00    0.35088   0.36125   73.091
 3932.00    0.29126   0.32246   85.897
 3933.00    0.26914   0.29372  101.201
 3934.00    0.26474   0.30177  115.105
 3935.00    0.27812   0.34092   -1.000
 3936.00    0.33121   0.38980   -1.000
 3937.00    0.38372   0.44171   -1.000
 3938.00    0.43458   0.49700   -1.000
 3939.00    0.48772   0.53901   62.952
 3940.00    0.51856   0.57443   -1.000
 3941.00    0.55907   0.58840   -1.000
 3942.00    0.57972   0.58964  452.188
 3943.00    0.57446   0.58650   -1.000
 3944.00    0.57330   0.59807   -1.000
 3945.00    0.60004   0.62864   -1.000
 3946.00    0.65350   0.65883  407.136
 3947.00    0.68768   0.67587   -1.000
 3948.00    0.70333   0.68658   -1.000
 3949.00    0.73007   0.70376   -1.000
 3950.00    0.76287   0.72325   -1.000
 3951.00    0.75710   0.72369   -1.000
 3952.00    0.74105   0.72139   -1.000
 3953.00    0.76261   0.73005   -1.000
 3954.00    0.78035   0.73988   -1.000
 3955.00    0.76701   0.73474   -1.000
 3956.00    0.74447   0.71721   -1.000
 3957.00    0.73612   0.70799   -1.000
 3958.00    0.73392   0.70912   -1.000
 3959.00    0.70646   0.69210   -1.000
 3960.00    0.64880   0.63913   -1.000
 3961.00    0.59073   0.58084   -1.000
 3962.00    0.53383   0.53367  406.024
 3963.00    0.50743   0.51147  452.188
 3964.00    0.49011   0.48733   -1.000
 3965.00    0.45127   0.44484  114.231
 3966.00    0.37952   0.38220   58.599
 3967.00    0.31818   0.31774   70.133
 3968.00    0.29383   0.28270   86.318
 3969.00    0.28244   0.28384  101.500
 3970.00    0.30519   0.32060  104.135
 3971.00    0.37553   0.37857   91.461
 3972.00    0.45674   0.44486   75.208
 3973.00    0.51859   0.50683   62.310
 3974.00    0.57596   0.57133   88.934
 3975.00    0.63569   0.62498   -1.000
 3976.00    0.68470   0.67495   -1.000
 3977.00    0.73103   0.71885   -1.000
 3978.00    0.77658   0.75908   -1.000
 3979.00    0.81598   0.79600   -1.000
 3980.00    0.84802   0.80771   -1.000
 3981.00    0.85133   0.80369   -1.000
 3982.00    0.83468   0.79133   -1.000
 3983.00    0.82904   0.79075   -1.000
 3984.00    0.83366   0.80590   -1.000
 3985.00    0.84191   0.82233   -1.000
 3986.00    0.88004   0.83832   -1.000
 3987.00    0.90924   0.85539   -1.000
 3988.00    0.90088   0.86777   -1.000
 3989.00    0.90885   0.87045   -1.000
 3990.00    0.92004   0.87289   -1.000
 3991.00    0.92885   0.88307   -1.000
 3992.00    0.95036   0.89880   -1.000
 3993.00    0.94951   0.90613   -1.000
 3994.00    0.92881   0.89529   -1.000
 3995.00    0.91318   0.87420   -1.000
 3996.00    0.88729   0.85224   -1.000
 3997.00    0.86720   0.84894   -1.000
 3998.00    0.87687   0.86671  287.358
 3999.00    0.91232   0.89627  285.961
 4000.00    0.96971   0.92322   -1.000
 4001.00    1.00291   0.94326   -1.000
 4002.00    0.99085   0.94527   -1.000
 4003.00    0.97617   0.92212   -1.000
 4004.00    0.92697   0.87315   -1.000
 4005.00    0.86868   0.82967   -1.000
 4006.00    0.86291   0.83166   -1.000
 4007.00    0.91082   0.87114   -1.000
 4008.00    0.95724   0.91772   -1.000
 4009.00    0.97680   0.94111   -1.000
 4010.00    0.97975   0.95080   -1.000
 4011.00    0.97317   0.95489  254.839
 4012.00    0.98345   0.95714   -1.000
 4013.00    0.98801   0.96222   -1.000
 4014.00    0.99514   0.96945   -1.000
 4015.00    1.05031   0.97186   -1.000
 4016.00    1.05385   0.96761   -1.000
 4017.00    1.00000   0.96480   -1.000
 4018.00    0.98500   0.97456  253.591
 4019.00    1.01095   0.98451   -1.000
 4020.00    1.03499   0.99050   -1.000
 4021.00    1.01640   0.98379   -1.000
 4022.00    1.00334   0.97567   -1.000
 4023.00    1.00699   0.96491   -1.000
 4024.00    0.99679   0.95314   -1.000
 4025.00    0.99086   0.95538   -1.000
 4026.00    1.01835   0.97901   -1.000
 4027.00    1.05385   1.00863   -1.000
 4028.00    1.05699   1.00661   -1.000
 4029.00    1.01831   0.96322   -1.000
 4030.00    0.96229   0.89770   -1.000
 4031.00    0.91812   0.84964   -1.000
 4032.00    0.88773   0.82733   -1.000
 4033.00    0.87600   0.83216   -1.000
 4034.00    0.90307   0.86208   -1.000
 4035.00    0.96693   0.91561   -1.000
 4036.00    1.03541   0.97458   -1.000
 4037.00    1.06758   1.03010   -1.000
 4038.00    1.07287   1.04628   -1.000
 4039.00    1.07226   1.02890   -1.000
 4040.00    1.06328   1.00741   -1.000
 4041.00    1.05104   0.99993   -1.000
 4042.00    1.04048   0.98076   -1.000
 4043.00    1.00075   0.92662   -1.000
 4044.00    0.90022   0.83646   -1.000
 4045.00    0.81159   0.77459   -1.000
 4046.00    0.81523   0.79100   -1.000
 4047.00    0.88348   0.86957  305.340
 4048.00    0.97552   0.94662   -1.000
 4049.00    1.04953   1.00306   -1.000
 4050.00    1.08449   1.02296   -1.000
 4051.00    1.08074   1.02100   -1.000
 4052.00    1.04868   1.00182   -1.000
 4053.00    1.01874   0.97564   -1.000
 4054.00    0.98418   0.95590   -1.000
 4055.00    0.95936   0.94400  258.590
 4056.00    0.94998   0.92854   -1.000
 4057.00    0.93834   0.91708   -1.000
 4058.00    0.93630   0.92755  265.874
 4059.00    0.97173   0.95649  266.342
 4060.00    1.02677   0.97290   -1.000
 4061.00    1.03077   0.94352   -1.000
 4062.00    0.96646   0.87893   -1.000
 4063.00    0.88213   0.83049   -1.000
 4064.00    0.85136   0.82226   -1.000
 4065.00    0.89618   0.84636   -1.000
 4066.00    0.95504   0.88548   -1.000
 4067.00    0.97885   0.92061   -1.000
 4068.00    1.01557   0.94892   -1.000
 4069.00    1.05406   0.95428   -1.000
 4070.00    1.03475   0.92104   -1.000
 4071.00    0.97300   0.87916   -1.000
 4072.00    0.94590   0.87899   -1.000
 4073.00    0.98748   0.91115   -1.000
 4074.00    1.02278   0.93303   -1.000
 4075.00    0.98408   0.90771   -1.000
 4076.00    0.92692   0.85826   -1.000
 4077.00    0.88356   0.83516   -1.000
 4078.00    0.87051   0.85697   -1.000
 4079.00    0.92604   0.91969  296.763
 4080.00    1.00732   0.98335   -1.000
 4081.00    1.04861   1.01670   -1.000
 4082.00    1.04772   1.00544   -1.000
 4083.00    1.03682   0.97462   -1.000
 4084.00    1.01226   0.95580   -1.000
 4085.00    1.00236   0.96856   -1.000
 4086.00    1.03637   1.00724   -1.000
 4087.00    1.10546   1.04819   -1.000
 4088.00    1.15571   1.07649   -1.000
 4089.00    1.14756   1.07536   -1.000
 4090.00    1.12346   1.05457   -1.000
 4091.00    1.09944   1.03221   -1.000
 4092.00    1.08474   1.02563   -1.000
 4093.00    1.08752   1.01520   -1.000
 4094.00    1.07351   0.99473   -1.000
 4095.00    1.03908   0.95769   -1.000
 4096.00    0.99102   0.92147   -1.000
 4097.00    0.95892   0.89875   -1.000
 4098.00    0.95220   0.87400   -1.000
 4099.00    0.93101   0.83131   -1.000
 4100.00    0.86643   0.76648   -1.000
 4101.00    0.81094   0.72424   -1.000
 4102.00    0.80419   0.73216   -1.000
 4103.00    0.85491   0.79284   -1.000
 4104.00    0.92922   0.86830   -1.000
 4105.00    0.98898   0.93210   -1.000
 4106.00    1.03141   0.96386   -1.000
 4107.00    1.04332   0.98081   -1.000
 4108.00    1.04042   0.97945   -1.000
 4109.00    1.02793   0.96727   -1.000
 4110.00    1.00526   0.95972   -1.000
 4111.00    0.99842   0.96458   -1.000
 4112.00    1.01146   0.98020   -1.000
 4113.00    1.02946   1.00194   -1.000
 4114.00    1.04191   1.02600  256.872
 4115.00    1.06296   1.04088   -1.000
 4116.00    1.06120   1.03626   -1.000
 4117.00    1.03389   1.01485   -1.000
 4118.00    1.01332   0.99102   -1.000
 4119.00    0.99745   0.97770   -1.000
 4120.00    1.00416   0.98314   -1.000
 4121.00    1.01921   0.99304   -1.000
 4122.00    1.00722   0.99783  261.764
 4123.00    1.00457   1.00429  260.162
 4124.00    1.02705   1.01753  259.367
 4125.00    1.04486   1.02732   -1.000
 4126.00    1.04627   1.02056   -1.000
 4127.00    1.04159   1.00157   -1.000
 4128.00    1.03340   0.98737   -1.000
 4129.00    1.00327   0.97956   -1.000
 4130.00    0.97861   0.95978   -1.000
 4131.00    0.94956   0.92804   -1.000
 4132.00    0.92450   0.89835   -1.000
 4133.00    0.91305   0.90069  279.789
 4134.00    0.93193   0.93888  285.709
 4135.00    0.98837   0.98616  282.502
 4136.00    1.03120   1.02943  271.079
 4137.00    1.05000   1.05447  259.031
 4138.00    1.07046   1.06743  252.262
 4139.00    1.07752   1.07307  248.331
 4140.00    1.06424   1.05332  245.498
 4141.00    1.01685   0.99729   -1.000
 4142.00    0.94800   0.92641   -1.000
 4143.00    0.88052   0.88138  271.254
 4144.00    0.87820   0.89194   -1.000
 4145.00    0.92907   0.94491   -1.000
 4146.00    0.98063   0.99652   -1.000
 4147.00    1.00215   1.01288   -1.000
 4148.00    1.01106   1.00346  260.932
 4149.00    0.98717   0.99056  261.104
 4150.00    0.97792   0.98996   -1.000
 4151.00    0.98362   0.99158   -1.000
 4152.00    0.97242   0.98673   -1.000
 4153.00    0.96674   0.97227  272.600
 4154.00    0.97208   0.95867   -1.000
 4155.00    0.97497   0.95790   -1.000
 4156.00    0.96780   0.97357  276.326
 4157.00    0.96722   0.99579   -1.000
 4158.00    1.06898   1.02483   -1.000
 4159.00    1.31376   1.05116   -1.000
 4160.00    1.23007   1.06506   -1.000
 4161.00    0.77643   1.07717   -1.000
 4162.00    0.87732   1.08673   -1.000
 4163.00    1.12126   1.09071   -1.000
 4164.00    1.07322   1.08190   -1.000
 4165.00    1.01990   1.05966   -1.000
 4166.00    1.00044   1.03002   -1.000
 4167.00    0.99185   1.01858   -1.000
 4168.00    1.00499   1.02345   -1.000
 4169.00    1.01710   1.03293   -1.000
 4170.00    1.00243   1.01635   -1.000
 4171.00    0.96584   0.97142  264.646
 4172.00    0.91629   0.92738   -1.000
 4173.00    0.89010   0.91349   -1.000
 4174.00    0.91182   0.93615   -1.000
 4175.00    0.96339   0.96781  296.948
 4176.00    0.96371   0.98084   -1.000
 4177.00    0.94839   0.98619   -1.000
 4178.00    0.95120   1.00027   -1.000
 4179.00    0.97444   1.01545   -1.000
 4180.00    0.97341   1.01768   -1.000
 4181.00    0.98780   1.00482   -1.000
 4182.00    0.98249   1.00104   -1.000
 4183.00    1.00119   1.02305   -1.000
 4184.00    1.05332   1.04289  267.877
 4185.00    1.06207   1.03937   -1.000
 4186.00    1.01413   1.01063  259.728
 4187.00    0.96760   0.98538   -1.000
 4188.00    0.98157   0.98966   -1.000
 4189.00    1.00803   1.01030  276.073
 4190.00    1.00487   1.02808   -1.000
 4191.00    1.00351   1.04130   -1.000
 4192.00    1.01950   1.05913   -1.000
 4193.00    1.04654   1.06981   -1.000
 4194.00    1.03756   1.05473   -1.000
 4195.00    0.99606   1.00994   -1.000
 4196.00    0.94455   0.96704   -1.000
 4197.00    0.91033   0.93637   -1.000
 4198.00    0.91671   0.92473   -1.000
 4199.00    0.93838   0.92010   -1.000
 4200.00    0.96149   0.92613   -1.000
 4201.00    0.96540   0.93407   -1.000
 4202.00    0.96413   0.94816   -1.000
 4203.00    0.96838   0.97517   -1.000
 4204.00    0.99768   1.01278   -1.000
 4205.00    1.00941   1.04765   -1.000
 4206.00    1.04301   1.07427   -1.000
 4207.00    1.06909   1.09367   -1.000
 4208.00    1.07540   1.09553   -1.000
 4209.00    1.08207   1.08664  255.248
 4210.00    1.07944   1.08083  254.877
 4211.00    1.06917   1.08753   -1.000
 4212.00    1.07091   1.09281   -1.000
 4213.00    1.06540   1.06924  253.707
 4214.00    1.02773   1.02265  257.540
 4215.00    0.97765   0.99511   -1.000
 4216.00    0.98139   1.00574   -1.000
 4217.00    1.05573   1.06039  279.902
 4218.00    1.13084   1.11080   -1.000
 4219.00    1.16672   1.14477   -1.000
 4220.00    1.17670   1.14867   -1.000
 4221.00    1.16949   1.12773   -1.000
 4222.00    1.13077   1.07589   -1.000
 4223.00    1.06872   0.99483   -1.000
 4224.00    0.97516   0.88555   -1.000
 4225.00    0.85682   0.79388   -1.000
 4226.00    0.75950   0.74545   -1.000
 4227.00    0.75312   0.78449   -1.000
 4228.00    0.86459   0.89474   -1.000
 4229.00    1.01220   1.01261  318.006
 4230.00    1.10331   1.06827   -1.000
 4231.00    1.12629   1.08099   -1.000
 4232.00    1.11375   1.06014   -1.000
 4233.00    1.09125   1.03424   -1.000
 4234.00    1.06607   1.01180   -1.000
 4235.00    1.04069   1.00203   -1.000
 4236.00    1.02325   0.99895   -1.000
 4237.00    1.02377   1.00818   -1.000
 4238.00    1.03141   1.03203  269.568
 4239.00    1.04665   1.05917   -1.000
 4240.00    1.07976   1.08284  260.327
 4241.00    1.11681   1.10530  256.287
 4242.00    1.13859   1.12314  251.771
 4243.00    1.15357   1.14839  249.177
 4244.00    1.18343   1.17233  247.122
 4245.00    1.19537   1.17093   -1.000
 4246.00    1.14755   1.13210  239.714
 4247.00    1.09378   1.07671  245.197
 4248.00    1.05581   1.02550   -1.000
 4249.00    1.02142   1.00228   -1.000
 4250.00    1.00344   1.00546  270.214
 4251.00    1.01829   1.02823   -1.000
 4252.00    1.04854   1.04345  268.779
 4253.00    1.04977   1.03074   -1.000
 4254.00    1.03560   1.00866   -1.000
 4255.00    1.04199   1.02430   -1.000
 4256.00    1.08900   1.07194   -1.000
 4257.00    1.13131   1.09240   -1.000
 4258.00    1.11316   1.05663   -1.000
 4259.00    1.04692   0.99715   -1.000
 4260.00    0.99369   0.97004   -1.000
 4261.00    1.01289   1.00740  275.644
 4262.00    1.07954   1.08555  276.911
 4263.00    1.15007   1.15942   -1.000
 4264.00    1.19605   1.19327  248.209
 4265.00    1.21074   1.19612  238.486
 4266.00    1.21076   1.17967   -1.000
 4267.00    1.17779   1.14623   -1.000
 4268.00    1.12176   1.09267   -1.000
 4269.00    1.05766   1.02755   -1.000
 4270.00    0.98757   0.95115   -1.000
 4271.00    0.92759   0.89966   -1.000
 4272.00    0.89150   0.88049  286.959
 4273.00    0.90539   0.89894  300.122
 4274.00    0.94696   0.93503  299.611
 4275.00    0.99224   0.98993  292.288
 4276.00    1.04980   1.06033   -1.000
 4277.00    1.11751   1.12666   -1.000
 4278.00    1.14675   1.14331  252.232
 4279.00    1.12019   1.11855  244.229
 4280.00    1.09464   1.08572  247.815
 4281.00    1.07195   1.07767  258.658
 4282.00    1.06895   1.08997   -1.000
 4283.00    1.09313   1.09406  264.012
 4284.00    1.08712   1.08054  260.519
 4285.00    1.05482   1.06271  259.946
 4286.00    1.03907   1.04659  264.841
 4287.00    1.01966   1.02424  272.515
 4288.00    0.99116   0.98485  278.431
 4289.00    0.94370   0.93370  284.291
 4290.00    0.91874   0.91870  296.530
 4291.00    0.95438   0.95767  307.252
 4292.00    1.01905   1.01467  302.287
 4293.00    1.05990   1.04285   -1.000
 4294.00    1.06233   1.03756   -1.000
 4295.00    1.05387   1.01786   -1.000
 4296.00    1.03046   0.98921   -1.000
 4297.00    0.97086   0.94113   -1.000
 4298.00    0.90320   0.87699   -1.000
 4299.00    0.84341   0.81859   -1.000
 4300.00    0.79815   0.79844  329.084
 4301.00    0.79524   0.80837   -1.000
 4302.00    0.82748   0.82745  346.499
 4303.00    0.85769   0.84263   -1.000
 4304.00    0.87496   0.85597   -1.000
 4305.00    0.86410   0.85110   -1.000
 4306.00    0.83821   0.81547   -1.000
 4307.00    0.79513   0.77246   -1.000
 4308.00    0.76524   0.74988   -1.000
 4309.00    0.77491   0.77131  359.389
 4310.00    0.81796   0.82330  363.101
 4311.00    0.86857   0.88808   -1.000
 4312.00    0.94629   0.94559  330.778
 4313.00    1.01052   1.01422  310.484
 4314.00    1.06327   1.09882   -1.000
 4315.00    1.16195   1.19166   -1.000
 4316.00    1.24990   1.28318   -1.000
 4317.00    1.31408   1.32870   -1.000
 4318.00    1.32989   1.32813  225.893
 4319.00    1.32000   1.30221  220.605
 4320.00    1.27991   1.27214  221.903
 4321.00    1.24167   1.22052   -1.000
 4322.00    1.19459   1.14486   -1.000
 4323.00    1.10016   1.03893   -1.000
 4324.00    0.99031   0.94827   -1.000
 4325.00    0.92272   0.92353  274.962
 4326.00    0.95603   0.98577   -1.000
 4327.00    1.06737   1.10612   -1.000
 4328.00    1.20341   1.21907   -1.000
 4329.00    1.25776   1.26510  247.161
 4330.00    1.26573   1.26964  233.550
 4331.00    1.25932   1.26645  231.151
 4332.00    1.26898   1.28272   -1.000
 4333.00    1.29221   1.30110   -1.000
 4334.00    1.32209   1.30540  225.828
 4335.00    1.32485   1.27344   -1.000
 4336.00    1.28184   1.19409   -1.000
 4337.00    1.16288   1.07521   -1.000
 4338.00    1.06183   0.95701   -1.000
 4339.00    0.97918   0.89656   -1.000
 4340.00    0.94758   0.89712   -1.000
 4341.00    0.99061   0.96165   -1.000
 4342.00    1.08020   1.06117   -1.000
 4343.00    1.15551   1.14206  289.000
 4344.00    1.21188   1.18568   -1.000
 4345.00    1.23653   1.22303  249.833
 4346.00    1.25697   1.25250  242.582
 4347.00    1.28477   1.28446  236.726
 4348.00    1.30466   1.30909  233.259
 4349.00    1.31115   1.29533  230.472
 4350.00    1.26346   1.22439   -1.000
 4351.00    1.16056   1.14422  231.958
 4352.00    1.10441   1.10932  246.737
 4353.00    1.13427   1.13903  261.379
 4354.00    1.20160   1.19948  260.156
 4355.00    1.23943   1.25027   -1.000
 4356.00    1.27983   1.27191  238.265
 4357.00    1.29538   1.27598   -1.000
 4358.00    1.27834   1.26451  228.410
 4359.00    1.26680   1.25821  230.090
 4360.00    1.26787   1.27704  234.769
 4361.00    1.28873   1.31072   -1.000
 4362.00    1.33496   1.33846  229.802
 4363.00    1.35512   1.35394  223.900
 4364.00    1.35793   1.36971   -1.000
 4365.00    1.38098   1.36919  220.794
 4366.00    1.35883   1.33315   -1.000
 4367.00    1.29579   1.28546  220.663
 4368.00    1.25703   1.26089  228.218
 4369.00    1.25999   1.25370  235.069
 4370.00    1.27777   1.25362   -1.000
 4371.00    1.29006   1.24350   -1.000
 4372.00    1.26267   1.21523   -1.000
 4373.00    1.22529   1.17321   -1.000
 4374.00    1.16660   1.13103   -1.000
 4375.00    1.14555   1.12646   -1.000
 4376.00    1.18848   1.17300   -1.000
 4377.00    1.25837   1.23405   -1.000
 4378.00    1.30488   1.26459   -1.000
 4379.00    1.30559   1.25656   -1.000
 4380.00    1.28040   1.20887   -1.000
 4381.00    1.21964   1.11391   -1.000
 4382.00    1.10626   0.99260   -1.000
 4383.00    0.97681   0.90005   -1.000
 4384.00    0.91761   0.89384   -1.000
 4385.00    0.98689   0.98201  304.702
 4386.00    1.12567   1.09207   -1.000
 4387.00    1.20099   1.15144   -1.000
 4388.00    1.20474   1.15861   -1.000
 4389.00    1.19001   1.15237   -1.000
 4390.00    1.17687   1.15497   -1.000
 4391.00    1.18658   1.17341  246.003
 4392.00    1.22628   1.19838   -1.000
 4393.00    1.24099   1.20670   -1.000
 4394.00    1.22267   1.20394   -1.000
 4395.00    1.22526   1.22085  239.277
 4396.00    1.26236   1.26906  243.166
 4397.00    1.32574   1.30489   -1.000
 4398.00    1.33907   1.29489   -1.000
 4399.00    1.28493   1.25469   -1.000
 4400.00    1.24012   1.22753  229.858
 4401.00    1.23312   1.21739  238.251
 4402.00    1.25297   1.20305   -1.000
 4403.00    1.23032   1.14694   -1.000
 4404.00    1.14565   1.07946   -1.000
 4405.00    1.10018   1.05919   -1.000
 4406.00    1.12715   1.09362   -1.000
 4407.00    1.17234   1.14051   -1.000
 4408.00    1.19777   1.18510  250.477
 4409.00    1.22924   1.23788  247.479
 4410.00    1.31122   1.31346  243.401
 4411.00    1.37056   1.36795  233.389
 4412.00    1.37873   1.35983  223.887
 4413.00    1.35848   1.30254   -1.000
 4414.00    1.29688   1.23056   -1.000
 4415.00    1.22301   1.17712   -1.000
 4416.00    1.22258   1.19141   -1.000
 4417.00    1.26094   1.26072  243.487
 4418.00    1.33015   1.33821   -1.000
 4419.00    1.36893   1.38452   -1.000
 4420.00    1.37643   1.38367  221.688
 4421.00    1.34251   1.34371  217.495
 4422.00    1.28868   1.30443   -1.000
 4423.00    1.26860   1.29072   -1.000
 4424.00    1.28550   1.30227   -1.000
 4425.00    1.30406   1.31037  227.003
 4426.00    1.29287   1.30678   -1.000
 4427.00    1.28919   1.31431   -1.000
 4428.00    1.28661   1.32231   -1.000
 4429.00    1.28052   1.32198   -1.000
 4430.00    1.26017   1.31782   -1.000
 4431.00    1.27631   1.31668   -1.000
 4432.00    1.28744   1.31709   -1.000
 4433.00    1.26383   1.28706   -1.000
 4434.00    1.21501   1.23342   -1.000
 4435.00    1.20317   1.21554   -1.000
 4436.00    1.24106   1.25743   -1.000
 4437.00    1.31673   1.34723   -1.000
 4438.00    1.38779   1.41075   -1.000
 4439.00    1.42773   1.42537  218.370
 4440.00    1.40613   1.38415   -1.000
 4441.00    1.33709   1.31886  213.117
 4442.00    1.27391   1.27338  221.145
 4443.00    1.25304   1.28130   -1.000
 4444.00    1.30592   1.34436   -1.000
 4445.00    1.37390   1.40697   -1.000
 4446.00    1.41963   1.44148   -1.000
 4447.00    1.43530   1.44385  218.993
 4448.00    1.43493   1.43820  216.139
 4449.00    1.41991   1.43638   -1.000
 4450.00    1.40182   1.42854   -1.000
 4451.00    1.38568   1.41244   -1.000
 4452.00    1.38756   1.38386  221.128
 4453.00    1.36444   1.32958   -1.000
 4454.00    1.30252   1.25699   -1.000
 4455.00    1.24921   1.22088   -1.000
 4456.00    1.23492   1.22327  241.859
 4457.00    1.26525   1.24515   -1.000
 4458.00    1.28241   1.25652   -1.000
 4459.00    1.26356   1.25133  236.442
 4460.00    1.24939   1.24700  237.090
 4461.00    1.23857   1.25605   -1.000
 4462.00    1.25852   1.28611   -1.000
 4463.00    1.30270   1.33279   -1.000
 4464.00    1.36481   1.37084  235.326
 4465.00    1.38490   1.38552  226.684
 4466.00    1.38887   1.37838  222.727
 4467.00    1.39464   1.36377   -1.000
 4468.00    1.38831   1.35004   -1.000
 4469.00    1.36162   1.34444   -1.000
 4470.00    1.35522   1.36137  230.398
 4471.00    1.37510   1.40783   -1.000
 4472.00    1.44019   1.45427   -1.000
 4473.00    1.48129   1.49162   -1.000
 4474.00    1.50078   1.50611  211.388
 4475.00    1.50645   1.51388  206.645
 4476.00    1.51473   1.52896   -1.000
 4477.00    1.53747   1.53836  205.581
 4478.00    1.53423   1.51555  203.787
 4479.00    1.48272   1.45699   -1.000
 4480.00    1.39154   1.38368  206.600
 4481.00    1.34178   1.35042  215.004
 4482.00    1.35650   1.37269   -1.000
 4483.00    1.41245   1.43857   -1.000
 4484.00    1.49885   1.50482  223.483
 4485.00    1.54319   1.55330   -1.000
 4486.00    1.54538   1.55464   -1.000
 4487.00    1.53750   1.51505   -1.000
 4488.00    1.48794   1.45360   -1.000
 4489.00    1.41594   1.41807  210.653
 4490.00    1.39791   1.42184   -1.000
 4491.00    1.44756   1.45441  221.417
 4492.00    1.48461   1.47747  217.806
 4493.00    1.48018   1.45917   -1.000
 4494.00    1.43136   1.42115  210.511
 4495.00    1.36825   1.40088   -1.000
 4496.00    1.39029   1.42271   -1.000
 4497.00    1.45553   1.46676   -1.000
 4498.00    1.50066   1.50329  220.156
 4499.00    1.53121   1.52045  212.585
 4500.00    1.53018   1.51493  207.528
 4501.00    1.49888   1.51456   -1.000
 4502.00    1.51101   1.54121   -1.000
 4503.00    1.55461   1.58249   -1.000
 4504.00    1.58702   1.62501   -1.000
 4505.00    1.61396   1.64085   -1.000
 4506.00    1.60350   1.62612   -1.000
 4507.00    1.59973   1.60210  196.054
 4508.00    1.57604   1.59163   -1.000
 4509.00    1.59963   1.59625  201.232
 4510.00    1.60023   1.60450  200.929
 4511.00    1.59573   1.59873  199.323
 4512.00    1.57054   1.57268  198.599
 4513.00    1.53090   1.54255  200.940
 4514.00    1.52104   1.52191  204.979
 4515.00    1.51703   1.51606  208.108
 4516.00    1.52323   1.52182  208.774
 4517.00    1.50619   1.52317   -1.000
 4518.00    1.49010   1.51929   -1.000
 4519.00    1.50658   1.53113   -1.000
 4520.00    1.57336   1.55446   -1.000
 4521.00    1.59185   1.56860   -1.000
 4522.00    1.54836   1.55759  203.721
 4523.00    1.50922   1.52579   -1.000
 4524.00    1.48454   1.49194  210.447
 4525.00    1.44913   1.45844  214.157
 4526.00    1.40392   1.41081  216.216
 4527.00    1.35048   1.35754  220.568
 4528.00    1.31192   1.31840  227.413
 4529.00    1.32412   1.31436  233.046
 4530.00    1.35667   1.34026   -1.000
 4531.00    1.38420   1.37590  232.255
 4532.00    1.41075   1.39416   -1.000
 4533.00    1.41278   1.38349   -1.000
 4534.00    1.36647   1.36172  225.005
 4535.00    1.35487   1.36294  232.018
 4536.00    1.39380   1.41185   -1.000
 4537.00    1.48912   1.48935  231.834
 4538.00    1.56726   1.55145  218.002
 4539.00    1.56495   1.56222  206.563
 4540.00    1.53499   1.53770  202.856
 4541.00    1.52707   1.51523  205.798
 4542.00    1.53031   1.51854  209.897
 4543.00    1.54424   1.52950  209.125
 4544.00    1.52631   1.52737  207.686
 4545.00    1.49886   1.51002  220.397
 4546.00    1.49827   1.49643  214.984
 4547.00    1.35890   1.48961   -1.000
 4548.00    0.41951   1.47420   -1.000
 4549.00   -0.01876   1.45635    0.000
 4550.00    0.19371   1.45660   -1.000
 4551.00    1.06234   1.48236   -1.000
 4552.00    0.71689   1.49726   -1.000
 4553.00    0.95071   1.48336   -1.000
 4554.00    1.54573   1.46385   -1.000
 4555.00    1.46766   1.46256  221.143
 4556.00    1.51894   1.49799   -1.000
 4557.00    1.57258   1.55841   -1.000
 4558.00    1.61343   1.60794  209.136
 4559.00    1.62556   1.63023  201.600
 4560.00    1.61731   1.63841   -1.000
 4561.00    1.61310   1.63463   -1.000
 4562.00    1.59775   1.61803   -1.000
 4563.00    1.56472   1.58016   -1.000
 4564.00    1.51224   1.53985   -1.000
 4565.00    1.49239   1.52243   -1.000
 4566.00    1.53750   1.54463  213.337
 4567.00    1.60013   1.59255  210.097
 4568.00    1.64574   1.63099   -1.000
 4569.00    1.65271   1.63187   -1.000
 4570.00    1.59452   1.60300  198.727
 4571.00    1.53039   1.56659   -1.000
 4572.00    1.53198   1.55270   -1.000
 4573.00    1.56986   1.58023  211.132
 4574.00    1.62338   1.61775  208.318
 4575.00    1.65215   1.63343   -1.000
 4576.00    1.64049   1.62913  200.243
 4577.00    1.63111   1.61665   -1.000
 4578.00    1.57697   1.58877  201.660
 4579.00    1.53572   1.54340  203.258
 4580.00    1.51513   1.50230  207.340
 4581.00    1.49822   1.48777  213.362
 4582.00    1.51855   1.49864   -1.000
 4583.00    1.51997   1.51635  215.445
 4584.00    1.50724   1.52374   -1.000
 4585.00    1.50624   1.51667  211.452
 4586.00    1.51119   1.52114  212.319
 4587.00    1.55586   1.55048  212.913
 4588.00    1.60260   1.59181  209.267
 4589.00    1.62681   1.61998  203.829
 4590.00    1.62145   1.61807  200.273
 4591.00    1.57769   1.59172  200.742
 4592.00    1.54166   1.55770   -1.000
 4593.00    1.53675   1.53971  207.803
 4594.00    1.52505   1.53748  210.828
 4595.00    1.53442   1.54057  210.499
 4596.00    1.53909   1.54509  208.634
 4597.00    1.54883   1.55534  207.194
 4598.00    1.55101   1.56632  206.717
 4599.00    1.55601   1.56868  206.280
 4600.00    1.56667   1.56226  206.210
 4601.00    1.54263   1.55477  208.155
 4602.00    1.53909   1.55534  209.803
 4603.00    1.55931   1.56021  209.834
 4604.00    1.58610   1.56286   -1.000
 4605.00    1.59550   1.56761   -1.000
 4606.00    1.58892   1.58479  205.928
 4607.00    1.62670   1.61980  205.214
 4608.00    1.68255   1.66282   -1.000
 4609.00    1.70540   1.69982  198.411
 4610.00    1.70066   1.70388  194.474
 4611.00    1.68201   1.67915  192.811
 4612.00    1.66930   1.65399   -1.000
 4613.00    1.65219   1.64194  196.817
 4614.00    1.66125   1.64716   -1.000
 4615.00    1.66801   1.66167  199.680
 4616.00    1.66691   1.67191  198.443
 4617.00    1.66097   1.67406  196.799
 4618.00    1.66672   1.67115  196.412
 4619.00    1.67584   1.66753  197.862
 4620.00    1.67675   1.67103  199.062
 4621.00    1.69948   1.68537   -1.000
 4622.00    1.70276   1.69700  196.305
 4623.00    1.69988   1.69448  193.619
 4624.00    1.70336   1.68421   -1.000
 4625.00    1.69664   1.67797   -1.000
 4626.00    1.68189   1.66908  194.911
 4627.00    1.67620   1.66542  196.569
 4628.00    1.68263   1.66689   -1.000
 4629.00    1.67298   1.66995  196.974
 4630.00    1.66800   1.67515  198.188
 4631.00    1.68867   1.68557  198.333
 4632.00    1.69521   1.68827  197.054
 4633.00    1.66265   1.66928  195.210
 4634.00    1.64401   1.64517  196.570
 4635.00    1.64500   1.63352  199.442
 4636.00    1.63436   1.62484  201.221
 4637.00    1.61644   1.60813  201.200
 4638.00    1.58108   1.58958  203.102
 4639.00    1.57126   1.58004  205.563
 4640.00    1.60416   1.58859   -1.000
 4641.00    1.64025   1.61353   -1.000
 4642.00    1.66773   1.63957   -1.000
 4643.00    1.68546   1.64478   -1.000
 4644.00    1.63952   1.61756   -1.000
 4645.00    1.59684   1.57640   -1.000
 4646.00    1.56373   1.52939   -1.000
 4647.00    1.52936   1.49937   -1.000
 4648.00    1.53898   1.51074   -1.000
 4649.00    1.56945   1.55268   -1.000
 4650.00    1.60219   1.60253  206.615
 4651.00    1.64149   1.63616  202.028
 4652.00    1.66587   1.64912   -1.000
 4653.00    1.65298   1.64371  199.502
 4654.00    1.60335   1.62033  199.498
 4655.00    1.57555   1.59639   -1.000
 4656.00    1.59622   1.59703  206.853
 4657.00    1.62185   1.63139  208.464
 4658.00    1.69588   1.69160  205.708
 4659.00    1.74999   1.74910  198.701
 4660.00    1.77961   1.77102  191.486
 4661.00    1.76416   1.75147   -1.000
 4662.00    1.72378   1.71014   -1.000
 4663.00    1.66760   1.66594  191.174
 4664.00    1.63448   1.62827  195.873
 4665.00    1.59360   1.58717  199.179
 4666.00    1.55200   1.53095   -1.000
 4667.00    1.49267   1.47718   -1.000
 4668.00    1.43159   1.46287   -1.000
 4669.00    1.49443   1.50167  220.749
 4670.00    1.58329   1.56903   -1.000
 4671.00    1.64939   1.62439   -1.000
 4672.00    1.67481   1.64985   -1.000
 4673.00    1.68449   1.64950   -1.000
 4674.00    1.66325   1.65073  197.962
 4675.00    1.64521   1.66482   -1.000
 4676.00    1.69616   1.68503  197.556
 4677.00    1.73168   1.68220   -1.000
 4678.00    1.69320   1.65296   -1.000
 4679.00    1.63664   1.61506   -1.000
 4680.00    1.59933   1.58681   -1.000
 4681.00    1.58317   1.57630  202.187
 4682.00    1.60358   1.58292   -1.000
 4683.00    1.64912   1.60735   -1.000
 4684.00    1.68043   1.63356   -1.000
 4685.00    1.68456   1.64489   -1.000
 4686.00    1.69330   1.64431   -1.000
 4687.00    1.68718   1.63778   -1.000
 4688.00    1.66906   1.63308   -1.000
 4689.00    1.67733   1.63121   -1.000
 4690.00    1.68259   1.63232   -1.000
 4691.00    1.66168   1.62974   -1.000
 4692.00    1.66510   1.63197   -1.000
 4693.00    1.68594   1.64607   -1.000
 4694.00    1.70678   1.66631   -1.000
 4695.00    1.75677   1.68218   -1.000
 4696.00    1.76419   1.68863   -1.000
 4697.00    1.72945   1.67097   -1.000
 4698.00    1.66689   1.63172   -1.000
 4699.00    1.62493   1.59551   -1.000
 4700.00    1.61320   1.57469   -1.000
 4701.00    1.63203   1.56268   -1.000
 4702.00    1.62415   1.55211   -1.000
 4703.00    1.59762   1.55112   -1.000
 4704.00    1.61525   1.57330   -1.000
 4705.00    1.65488   1.60102   -1.000
 4706.00    1.64911   1.60572   -1.000
 4707.00    1.64033   1.58594   -1.000
 4708.00    1.59719   1.56676   -1.000
 4709.00    1.60074   1.57298   -1.000
 4710.00    1.61766   1.60048   -1.000
 4711.00    1.66083   1.62998   -1.000
 4712.00    1.72917   1.64953   -1.000
 4713.00    1.72582   1.64462   -1.000
 4714.00    1.67407   1.62718   -1.000
 4715.00    1.65505   1.62983   -1.000
 4716.00    1.68905   1.66001   -1.000
 4717.00    1.73748   1.70407   -1.000
 4718.00    1.77778   1.73800   -1.000
 4719.00    1.80588   1.75706   -1.000
 4720.00    1.78876   1.76511   -1.000
 4721.00    1.77038   1.76123  190.395
 4722.00    1.75435   1.75033  190.023
 4723.00    1.75720   1.74778  191.745
 4724.00    1.78219   1.75773   -1.000
 4725.00    1.79883   1.75595   -1.000
 4726.00    1.75348   1.72636   -1.000
 4727.00    1.67119   1.66712  190.493
 4728.00    1.58297   1.60563   -1.000
 4729.00    1.56798   1.57992  202.957
 4730.00    1.60865   1.58734   -1.000
 4731.00    1.63684   1.61360   -1.000
 4732.00    1.66296   1.64360   -1.000
 4733.00    1.69661   1.67083   -1.000
 4734.00    1.72573   1.68364   -1.000
 4735.00    1.72049   1.68154   -1.000
 4736.00    1.70060   1.67824   -1.000
 4737.00    1.69991   1.67872   -1.000
 4738.00    1.70894   1.69112   -1.000
 4739.00    1.72258   1.71095   -1.000
 4740.00    1.72172   1.71939  195.315
 4741.00    1.70394   1.71419  195.680
 4742.00    1.70085   1.71691  196.777
 4743.00    1.73022   1.72594  196.770
 4744.00    1.76020   1.73293   -1.000
 4745.00    1.75301   1.74176   -1.000
 4746.00    1.76645   1.75256   -1.000
 4747.00    1.79783   1.76761   -1.000
 4748.00    1.78694   1.78266  192.027
 4749.00    1.78558   1.79037  190.226
 4750.00    1.78694   1.79438  189.992
 4751.00    1.77149   1.78772  190.302
 4752.00    1.74919   1.76788  190.555
 4753.00    1.72667   1.74066  192.105
 4754.00    1.72371   1.71550  194.273
 4755.00    1.71740   1.70713  195.835
 4756.00    1.71106   1.71197  196.976
 4757.00    1.71640   1.72286  196.653
 4758.00    1.71880   1.73846  197.564
 4759.00    1.74856   1.75452  198.938
 4760.00    1.74267   1.75987  198.880
 4761.00    1.70562   1.74083   -1.000
 4762.00    1.67408   1.70159   -1.000
 4763.00    1.62445   1.65634   -1.000
 4764.00    1.59011   1.63193   -1.000
 4765.00    1.58384   1.61920   -1.000
 4766.00    1.60118   1.61177  208.076
 4767.00    1.62585   1.62390  207.498
 4768.00    1.69032   1.67081   -1.000
 4769.00    1.72347   1.72465  202.711
 4770.00    1.73668   1.75343   -1.000
 4771.00    1.73211   1.74705  195.852
 4772.00    1.69969   1.73334   -1.000
 4773.00    1.71707   1.74210   -1.000
 4774.00    1.74423   1.77221   -1.000
 4775.00    1.77422   1.80314   -1.000
 4776.00    1.78755   1.81652   -1.000
 4777.00    1.78065   1.81822   -1.000
 4778.00    1.77740   1.81470   -1.000
 4779.00    1.75010   1.80398   -1.000
 4780.00    1.73405   1.78586   -1.000
 4781.00    1.73243   1.77028   -1.000
 4782.00    1.70818   1.75068   -1.000
 4783.00    1.67416   1.72535   -1.000
 4784.00    1.69851   1.71275   -1.000
 4785.00    1.70088   1.71163  200.328
 4786.00    1.68917   1.71093   -1.000
 4787.00    1.68437   1.70729   -1.000
 4788.00    1.67859   1.70879   -1.000
 4789.00    1.68030   1.71414   -1.000
 4790.00    1.70009   1.72409   -1.000
 4791.00    1.71826   1.74320   -1.000
 4792.00    1.73731   1.77760   -1.000
 4793.00    1.78424   1.82105   -1.000
 4794.00    1.82924   1.86460   -1.000
 4795.00    1.86542   1.89537   -1.000
 4796.00    1.85765   1.89461   -1.000
 4797.00    1.79428   1.86297   -1.000
 4798.00    1.75602   1.82043   -1.000
 4799.00    1.73270   1.78506   -1.000
 4800.00    1.71595   1.77444   -1.000
 4801.00    1.75983   1.79677   -1.000
 4802.00    1.82109   1.83790  197.308
 4803.00    1.83295   1.86578   -1.000
 4804.00    1.80900   1.85793   -1.000
 4805.00    1.75970   1.82764   -1.000
 4806.00    1.72707   1.79861   -1.000
 4807.00    1.72971   1.78197   -1.000
 4808.00    1.72620   1.77663   -1.000
 4809.00    1.74645   1.78820   -1.000
 4810.00    1.76956   1.80990   -1.000
 4811.00    1.77815   1.82786   -1.000
 4812.00    1.76850   1.83274   -1.000
 4813.00    1.76402   1.83255   -1.000
 4814.00    1.79184   1.83707   -1.000
 4815.00    1.79202   1.84946   -1.000
 4816.00    1.81677   1.86894   -1.000
 4817.00    1.82074   1.88841   -1.000
 4818.00    1.84140   1.90238   -1.000
 4819.00    1.85942   1.91113   -1.000
 4820.00    1.83469   1.91152   -1.000
 4821.00    1.83841   1.89392   -1.000
 4822.00    1.80335   1.85375   -1.000
 4823.00    1.76479   1.80266   -1.000
 4824.00    1.74630   1.76682   -1.000
 4825.00    1.77040   1.77838  198.496
 4826.00    1.80797   1.81922  197.650
 4827.00    1.80732   1.84186   -1.000
 4828.00    1.79356   1.83666   -1.000
 4829.00    1.77190   1.82220   -1.000
 4830.00    1.77064   1.81575   -1.000
 4831.00    1.75124   1.80085   -1.000
 4832.00    1.72802   1.77905   -1.000
 4833.00    1.74731   1.77950   -1.000
 4834.00    1.78532   1.80119  197.606
 4835.00    1.82678   1.83254  194.295
 4836.00    1.82466   1.84876   -1.000
 4837.00    1.80921   1.84542   -1.000
 4838.00    1.79147   1.82942   -1.000
 4839.00    1.75810   1.80143   -1.000
 4840.00    1.74337   1.77747   -1.000
 4841.00    1.74170   1.76861   -1.000
 4842.00    1.74669   1.77206   -1.000
 4843.00    1.76298   1.77732  198.351
 4844.00    1.77924   1.78951  197.289
 4845.00    1.81324   1.82010  195.756
 4846.00    1.85089   1.85135  193.692
 4847.00    1.83251   1.85234   -1.000
 4848.00    1.78537   1.82470   -1.000
 4849.00    1.78395   1.80611   -1.000
 4850.00    1.79733   1.81492  196.887
 4851.00    1.78842   1.83306   -1.000
 4852.00    1.79231   1.83677   -1.000
 4853.00    1.80155   1.81607  193.558
 4854.00    1.75847   1.76810  194.778
 4855.00    1.68268   1.70906   -1.000
 4856.00    1.66524   1.67687  202.837
 4857.00    1.70484   1.67620   -1.000
 4858.00    1.67616   1.66893  207.281
 4859.00    1.58731   1.59441  205.585
 4860.00    1.46187   1.44978   -1.000
 4861.00    1.35720   1.33938   -1.000
 4862.00    1.36717   1.32623   -1.000
 4863.00    1.48550   1.42513   -1.000
 4864.00    1.60712   1.54199   -1.000
 4865.00    1.66259   1.63621   -1.000
 4866.00    1.71598   1.69630   -1.000
 4867.00    1.72883   1.73598  208.063
 4868.00    1.73954   1.75364  203.942
 4869.00    1.72888   1.74563  202.252
 4870.00    1.68605   1.70016  201.581
 4871.00    1.58937   1.63157   -1.000
 4872.00    1.59951   1.58419   -1.000
 4873.00    1.65250   1.61883   -1.000
 4874.00    1.71247   1.69489   -1.000
 4875.00    1.72444   1.75058   -1.000
 4876.00    1.73113   1.77225   -1.000
 4877.00    1.74299   1.78365   -1.000
 4878.00    1.77419   1.80934   -1.000
 4879.00    1.78696   1.84086   -1.000
 4880.00    1.79319   1.85997   -1.000
 4881.00    1.77057   1.84945   -1.000
 4882.00    1.74498   1.81872   -1.000
 4883.00    1.74936   1.80518   -1.000
 4884.00    1.75957   1.79572   -1.000
 4885.00    1.69698   1.76587   -1.000
 4886.00    1.66079   1.73089   -1.000
 4887.00    1.67281   1.71839   -1.000
 4888.00    1.69945   1.72267   -1.000
 4889.00    1.69243   1.71001  203.972
 4890.00    1.65620   1.66720  203.896
 4891.00    1.62271   1.63009  207.142
 4892.00    1.66477   1.65796  211.530
 4893.00    1.76491   1.75514   -1.000
 4894.00    1.87528   1.88576  200.738
 4895.00    1.94703   1.96735  191.489
 4896.00    1.94710   1.99769   -1.000
 4897.00    1.93992   1.99602   -1.000
 4898.00    1.93767   1.97745   -1.000
 4899.00    1.88916   1.94515   -1.000
 4900.00    1.84773   1.91495   -1.000
 4901.00    1.86340   1.89887   -1.000
 4902.00    1.85386   1.88725   -1.000
 4903.00    1.83193   1.86983   -1.000
 4904.00    1.82685   1.86156   -1.000
 4905.00    1.87388   1.89144  194.720
 4906.00    1.91662   1.94261   -1.000
 4907.00    1.91054   1.95418   -1.000
 4908.00    1.86604   1.91838   -1.000
 4909.00    1.80046   1.85505   -1.000
 4910.00    1.76937   1.80245   -1.000
 4911.00    1.77804   1.78642  199.247
 4912.00    1.80177   1.81469  201.440
 4913.00    1.84440   1.86388  198.546
 4914.00    1.88314   1.90563  194.941
 4915.00    1.91914   1.93604  192.307
 4916.00    1.91874   1.94176  189.839
 4917.00    1.86331   1.89071   -1.000
 4918.00    1.75840   1.77416  189.498
 4919.00    1.64088   1.64226  196.515
 4920.00    1.58267   1.55629   -1.000
 4921.00    1.62557   1.56458   -1.000
 4922.00    1.70350   1.64239   -1.000
 4923.00    1.76133   1.72828   -1.000
 4924.00    1.78938   1.76988   -1.000
 4925.00    1.78949   1.79309  201.070
 4926.00    1.83619   1.83709  200.894
 4927.00    1.89350   1.89390  198.146
 4928.00    1.91637   1.94516   -1.000
 4929.00    1.93236   1.98153   -1.000
 4930.00    1.96258   2.00177   -1.000
 4931.00    1.95204   1.99362   -1.000
 4932.00    1.90274   1.94991   -1.000
 4933.00    1.84424   1.88486   -1.000
 4934.00    1.82518   1.84156  192.930
 4935.00    1.83192   1.84072  199.845
 4936.00    1.84390   1.85452  199.978
 4937.00    1.80492   1.82664  196.332
 4938.00    1.73697   1.75766  196.500
 4939.00    1.72786   1.72140   -1.000
 4940.00    1.78807   1.76021   -1.000
 4941.00    1.88147   1.84838   -1.000
 4942.00    1.92928   1.93231  198.479
 4943.00    1.93801   1.97368   -1.000
 4944.00    1.95352   1.98265   -1.000
 4945.00    1.93760   1.97113   -1.000
 4946.00    1.91806   1.95793   -1.000
 4947.00    1.93838   1.96145  188.766
 4948.00    1.96292   1.98709  189.086
 4949.00    1.97157   2.01482   -1.000
 4950.00    1.99347   2.02554   -1.000
 4951.00    2.00677   2.02518  184.582
 4952.00    1.97416   2.01463   -1.000
 4953.00    1.96056   1.99697   -1.000
 4954.00    1.93949   1.97129   -1.000
 4955.00    1.87305   1.91864   -1.000
 4956.00    1.78237   1.81544   -1.000
 4957.00    1.68489   1.68458  196.095
 4958.00    1.66990   1.64006   -1.000
 4959.00    1.74729   1.71827   -1.000
 4960.00    1.88225   1.84712   -1.000
 4961.00    1.94616   1.93787  197.292
 4962.00    1.92317   1.96081   -1.000
 4963.00    1.91203   1.95107   -1.000
 4964.00    1.87778   1.92264   -1.000
 4965.00    1.82487   1.87660   -1.000
 4966.00    1.80539   1.83554   -1.000
 4967.00    1.78935   1.81891   -1.000
 4968.00    1.79899   1.82110   -1.000
 4969.00    1.81705   1.83436  200.973
 4970.00    1.81213   1.85871   -1.000
 4971.00    1.84529   1.88883   -1.000
 4972.00    1.88897   1.92507   -1.000
 4973.00    1.92521   1.95460   -1.000
 4974.00    1.92872   1.97025   -1.000
 4975.00    1.90981   1.96826   -1.000
 4976.00    1.88506   1.95428   -1.000
 4977.00    1.87955   1.92452   -1.000
 4978.00    1.84396   1.88850   -1.000
 4979.00    1.78855   1.85580   -1.000
 4980.00    1.77278   1.82686   -1.000
 4981.00    1.73799   1.77819   -1.000
 4982.00    1.67137   1.70036   -1.000
 4983.00    1.64156   1.63401  211.285
 4984.00    1.66516   1.62795   -1.000
 4985.00    1.71627   1.68143   -1.000
 4986.00    1.79039   1.76555   -1.000
 4987.00    1.85216   1.84001   -1.000
 4988.00    1.87585   1.88971  200.886
 4989.00    1.85925   1.89071   -1.000
 4990.00    1.83875   1.86461   -1.000
 4991.00    1.83604   1.84699  199.335
 4992.00    1.83630   1.85214  201.344
 4993.00    1.85217   1.86757  201.356
 4994.00    1.85785   1.87666  199.502
 4995.00    1.86199   1.88234  198.695
 4996.00    1.87571   1.89791  198.620
 4997.00    1.88139   1.90741   -1.000
 4998.00    1.85558   1.88473   -1.000
 4999.00    1.81522   1.83474  197.865
 5000.00    1.76112   1.77707  200.576
 5001.00    1.75689   1.74328   -1.000
 5002.00    1.76853   1.74408   -1.000
 5003.00    1.77024   1.75985   -1.000
 5004.00    1.77734   1.75624   -1.000
 5005.00    1.73685   1.71884   -1.000
 5006.00    1.69041   1.67259   -1.000
 5007.00    1.72359   1.67314   -1.000
 5008.00    1.80955   1.73797   -1.000
 5009.00    1.84612   1.80766   -1.000
 5010.00    1.82632   1.83905  201.567
 5011.00    1.78435   1.81082   -1.000
 5012.00    1.74430   1.74432  202.309
 5013.00    1.64292   1.67309   -1.000
 5014.00    1.64370   1.63923  216.427
 5015.00    1.67827   1.65321   -1.000
 5016.00    1.72800   1.68550   -1.000
 5017.00    1.76615   1.70933   -1.000
 5018.00    1.74967   1.71799   -1.000
 5019.00    1.76198   1.73574   -1.000
 5020.00    1.78827   1.76235   -1.000
 5021.00    1.77759   1.76824   -1.000
 5022.00    1.76471   1.75962   -1.000
 5023.00    1.77320   1.76072   -1.000
 5024.00    1.80618   1.79289   -1.000
 5025.00    1.82676   1.83643  205.979
 5026.00    1.81401   1.84408   -1.000
 5027.00    1.79661   1.81832  202.419
 5028.00    1.79755   1.80352  203.451
 5029.00    1.83735   1.81890   -1.000
 5030.00    1.88719   1.86205   -1.000
 5031.00    1.91126   1.91097  198.608
 5032.00    1.93914   1.95412  195.801
 5033.00    1.96693   1.97954  192.604
 5034.00    1.94353   1.96239  190.407
 5035.00    1.86277   1.89812   -1.000
 5036.00    1.78634   1.83236   -1.000
 5037.00    1.77856   1.80106  204.963
 5038.00    1.78164   1.78961  208.254
 5039.00    1.71418   1.74644   -1.000
 5040.00    1.62854   1.65870   -1.000
 5041.00    1.59398   1.59680  220.042
 5042.00    1.65267   1.62551   -1.000
 5043.00    1.77891   1.73599   -1.000
 5044.00    1.89069   1.87272   -1.000
 5045.00    1.94153   1.96473  204.077
 5046.00    1.96575   2.00239   -1.000
 5047.00    1.95244   1.98513   -1.000
 5048.00    1.93488   1.92470   -1.000
 5049.00    1.57116   1.84519   -1.000
 5050.00    0.34493   1.79270   -1.000
 5051.00    0.07675   1.78188   -1.000
 5052.00    0.24245   1.80180   -1.000
 5053.00    1.81099   1.84921   -1.000
 5054.00    1.98773   1.91186   -1.000
 5055.00    1.97033   1.94799   -1.000
 5056.00    1.97580   1.96532   -1.000
 5057.00    1.97158   1.97759  190.493
 5058.00    1.98136   1.98760  189.901
 5059.00    1.97893   2.00485  190.269
 5060.00    1.99207   2.02332   -1.000
 5061.00    2.00753   2.03801   -1.000
 5062.00    2.00465   2.03747   -1.000
 5063.00    1.94919   1.99148   -1.000
 5064.00    1.85713   1.90942   -1.000
 5065.00    1.81518   1.84378   -1.000
 5066.00    1.82747   1.82336  204.706
 5067.00    1.83927   1.83731  206.989
 5068.00    1.86294   1.85457   -1.000
 5069.00    1.88064   1.86809   -1.000
 5070.00    1.90469   1.88733   -1.000
 5071.00    1.90914   1.89533   -1.000
 5072.00    1.88906   1.87893   -1.000
 5073.00    1.89698   1.86182   -1.000
 5074.00    1.90725   1.87274   -1.000
 5075.00    1.92100   1.89317   -1.000
 5076.00    1.92911   1.90396   -1.000
 5077.00    1.91356   1.89597   -1.000
 5078.00    1.86480   1.85714   -1.000
 5079.00    1.78297   1.78146  199.094
 5080.00    1.72238   1.71457   -1.000
 5081.00    1.73348   1.70994   -1.000
 5082.00    1.77545   1.74276   -1.000
 5083.00    1.80125   1.78275   -1.000
 5084.00    1.85267   1.81658   -1.000
 5085.00    1.90086   1.85670   -1.000
 5086.00    1.92601   1.89671   -1.000
 5087.00    1.94040   1.92165   -1.000
 5088.00    1.94127   1.93198   -1.000
 5089.00    1.95044   1.94009   -1.000
 5090.00    1.96281   1.94942   -1.000
 5091.00    1.96129   1.96406  194.907
 5092.00    1.97997   1.98903  193.836
 5093.00    2.02546   2.01785   -1.000
 5094.00    2.02896   2.02592  190.590
 5095.00    1.98974   1.99318  188.881
 5096.00    1.93651   1.92913  190.642
 5097.00    1.88134   1.86113   -1.000
 5098.00    1.83014   1.80470   -1.000
 5099.00    1.80058   1.77886   -1.000
 5100.00    1.83169   1.80563   -1.000
 5101.00    1.89492   1.86730   -1.000
 5102.00    1.93408   1.92512   -1.000
 5103.00    1.94622   1.93624   -1.000
 5104.00    1.92271   1.91848  195.811
 5105.00    1.89215   1.89478  196.986
 5106.00    1.87709   1.86876   -1.000
 5107.00    1.86614   1.84035   -1.000
 5108.00    1.86785   1.81731   -1.000
 5109.00    1.83994   1.80731   -1.000
 5110.00    1.86586   1.82064   -1.000
 5111.00    1.88157   1.85332   -1.000
 5112.00    1.92179   1.89892   -1.000
 5113.00    1.94824   1.93045   -1.000
 5114.00    1.95005   1.95320  198.623
 5115.00    1.97208   1.97736  196.203
 5116.00    1.99697   2.00334  194.436
 5117.00    2.01819   2.02384  193.398
 5118.00    2.03544   2.03153   -1.000
 5119.00    2.03213   2.02085   -1.000
 5120.00    2.00375   1.99006   -1.000
 5121.00    1.95910   1.94797   -1.000
 5122.00    1.89718   1.89716  195.733
 5123.00    1.82606   1.84420  198.970
 5124.00    1.79033   1.79807  204.109
 5125.00    1.81119   1.78304   -1.000
 5126.00    1.83006   1.79655   -1.000
 5127.00    1.82802   1.81274   -1.000
 5128.00    1.84208   1.81562   -1.000
 5129.00    1.85039   1.81852   -1.000
 5130.00    1.85557   1.83305   -1.000
 5131.00    1.88386   1.86325   -1.000
 5132.00    1.91431   1.89665   -1.000
 5133.00    1.94489   1.91837   -1.000
 5134.00    1.95896   1.93547   -1.000
 5135.00    1.96583   1.94896   -1.000
 5136.00    1.97273   1.94914   -1.000
 5137.00    1.92990   1.91092   -1.000
 5138.00    1.87845   1.85432   -1.000
 5139.00    1.84454   1.82328   -1.000
 5140.00    1.86425   1.82642   -1.000
 5141.00    1.86782   1.83925   -1.000
 5142.00    1.85772   1.83875   -1.000
 5143.00    1.83854   1.83466   -1.000
 5144.00    1.85486   1.84818   -1.000
 5145.00    1.87571   1.86283   -1.000
 5146.00    1.85144   1.84557   -1.000
 5147.00    1.83965   1.81932   -1.000
 5148.00    1.85998   1.81979   -1.000
 5149.00    1.88882   1.84758   -1.000
 5150.00    1.87664   1.85889   -1.000
 5151.00    1.85270   1.84166   -1.000
 5152.00    1.82833   1.81888   -1.000
 5153.00    1.82370   1.80466   -1.000
 5154.00    1.83064   1.80948   -1.000
 5155.00    1.87911   1.84305   -1.000
 5156.00    1.95410   1.90476   -1.000
 5157.00    2.00606   1.96359   -1.000
 5158.00    2.03979   2.00019   -1.000
 5159.00    2.04073   2.01377   -1.000
 5160.00    2.04696   2.01270   -1.000
 5161.00    2.04854   1.99890   -1.000
 5162.00    2.00930   1.96677   -1.000
 5163.00    1.96291   1.91337   -1.000
 5164.00    1.89760   1.84860   -1.000
 5165.00    1.77840   1.75314   -1.000
 5166.00    1.60505   1.59253   -1.000
 5167.00    1.43233   1.42870  222.409
 5168.00    1.39568   1.36938   -1.000
 5169.00    1.50566   1.44063   -1.000
 5170.00    1.59575   1.52772   -1.000
 5171.00    1.53792   1.49138   -1.000
 5172.00    1.38220   1.38218  239.145
 5173.00    1.35040   1.34023   -1.000
 5174.00    1.50939   1.44560   -1.000
 5175.00    1.71775   1.65022   -1.000
 5176.00    1.82950   1.79475   -1.000
 5177.00    1.87165   1.85823   -1.000
 5178.00    1.89825   1.87540   -1.000
 5179.00    1.88361   1.86955   -1.000
 5180.00    1.83993   1.82899  202.504
 5181.00    1.71872   1.71772  204.486
 5182.00    1.53670   1.53547  211.586
 5183.00    1.36081   1.36713  226.829
 5184.00    1.34720   1.32391   -1.000
 5185.00    1.50668   1.45776   -1.000
 5186.00    1.74255   1.66103   -1.000
 5187.00    1.89518   1.82339   -1.000
 5188.00    1.92247   1.89007   -1.000
 5189.00    1.95424   1.91230   -1.000
 5190.00    1.96259   1.90780   -1.000
 5191.00    1.89387   1.85724   -1.000
 5192.00    1.82703   1.78104   -1.000
 5193.00    1.81279   1.75038   -1.000
 5194.00    1.82475   1.77844   -1.000
 5195.00    1.85502   1.81497   -1.000
 5196.00    1.90159   1.84832   -1.000
 5197.00    1.95185   1.89062   -1.000
 5198.00    1.99363   1.94239   -1.000
 5199.00    2.03000   1.98642   -1.000
 5200.00    2.04621   2.00578   -1.000
 5201.00    2.03172   2.00097   -1.000
 5202.00    1.98711   1.96813   -1.000
 5203.00    1.94483   1.91080   -1.000
 5204.00    1.87852   1.82215   -1.000
 5205.00    1.80236   1.73022   -1.000
 5206.00    1.76854   1.66770   -1.000
 5207.00    1.75212   1.64832   -1.000
 5208.00    1.73807   1.65051   -1.000
 5209.00    1.74336   1.66969   -1.000
 5210.00    1.81572   1.73035   -1.000
 5211.00    1.92020   1.83279   -1.000
 5212.00    1.99472   1.94371   -1.000
 5213.00    2.06969   2.01743   -1.000
 5214.00    2.07563   2.02302   -1.000
 5215.00    2.01667   1.97712   -1.000
 5216.00    1.97628   1.92740   -1.000
 5217.00    1.98465   1.92745   -1.000
 5218.00    2.03837   1.97895   -1.000
 5219.00    2.09375   2.04627   -1.000
 5220.00    2.10350   2.09298   -1.000
 5221.00    2.11155   2.11375   -1.000
 5222.00    2.11807   2.10143   -1.000
 5223.00    2.06063   2.05124   -1.000
 5224.00    1.95392   1.96621  191.470
 5225.00    1.86296   1.85140   -1.000
 5226.00    1.79935   1.74246   -1.000
 5227.00    1.79412   1.71325   -1.000
 5228.00    1.88927   1.78248   -1.000
 5229.00    2.00704   1.91502   23.436
 5230.00    2.08644   2.01989   20.470
 5231.00    2.08184   2.03819   19.623
 5232.00    2.04548   1.99469   19.263
 5233.00    2.02575   1.93613   19.226
 5234.00    2.02552   1.92038   19.606
 5235.00    2.02708   1.96870   19.959
 5236.00    2.08994   2.04338   19.926
 5237.00    2.15349   2.11170   19.478
 5238.00    2.17521   2.14589   19.011
 5239.00    2.16129   2.14665   18.791
 5240.00    2.13248   2.13736   18.769
 5241.00    2.15375   2.12640   18.828
 5242.00    2.14364   2.11962   18.797
 5243.00    2.13389   2.12629   18.687
 5244.00    2.16652   2.14594   18.712
 5245.00    2.16108   2.14271   18.676
 5246.00    2.08463   2.09239   18.646
 5247.00    2.00785   2.02399   19.008
 5248.00    2.00182   1.98021   19.601
 5249.00    2.01404   1.97187   20.064
 5250.00    1.98961   1.97177   20.127
 5251.00    1.99146   1.97716   20.163
 5252.00    2.03846   2.00096   20.290
 5253.00    2.05351   2.02159   20.201
 5254.00    2.03958   2.02182   19.925
 5255.00    2.04806   2.02023   19.725
 5256.00    2.09725   2.05780   19.722
 5257.00    2.17634   2.13376   19.586
 5258.00    2.22096   2.19217   19.137
 5259.00    2.22377   2.20169   18.620
 5260.00    2.17464   2.15650   18.445
 5261.00    2.07963   2.06885   18.607
 5262.00    1.97867   1.95383   19.108
 5263.00    1.89028   1.84253   19.911
 5264.00    1.83453   1.75274   20.857
 5265.00    1.80373   1.70518   21.591
 5266.00    1.81519   1.71046   22.047
 5267.00    1.85993   1.74558   22.120
 5268.00    1.84364   1.74138   21.749
 5269.00    1.76942   1.67661   21.360
 5270.00    1.73470   1.62366   21.793
 5271.00    1.83903   1.68012   -1.000
 5272.00    1.97394   1.83346   -1.000
 5273.00    2.05376   1.94277   21.028
 5274.00    2.07000   1.96314   20.111
 5275.00    2.05006   1.96990   19.881
 5276.00    2.08812   2.00568   19.885
 5277.00    2.16538   2.08620   19.842
 5278.00    2.23499   2.16421   19.473
 5279.00    2.22803   2.18782   18.816
 5280.00    2.17410   2.14794   18.452
 5281.00    2.13646   2.07858   18.547
 5282.00    2.09212   2.01235   18.982
 5283.00    2.05757   1.97190   19.478
 5284.00    2.07470   1.99208   19.840
 5285.00    2.16166   2.07718   19.949
 5286.00    2.25414   2.18767   19.565
 5287.00    2.30537   2.25020   18.972
 5288.00    2.26962   2.25966   18.374
 5289.00    2.25939   2.25692   18.216
 5290.00    2.28374   2.26404   18.305
 5291.00    2.28741   2.27333   18.307
 5292.00    2.30792   2.26446   18.204
 5293.00    2.30082   2.24784   18.162
 5294.00    2.25520   2.22854   18.262
 5295.00    2.20584   2.18784   18.433
 5296.00    2.13225   2.10153   18.675
 5297.00    2.03441   1.99765   19.171
 5298.00    1.99309   1.94079   19.901
 5299.00    2.05197   1.97074   20.448
 5300.00    2.12841   2.03573   20.351
 5301.00    2.16108   2.08310   19.849
 5302.00    2.18288   2.11175   19.471
 5303.00    2.23566   2.15781   19.336
 5304.00    2.30417   2.22952   19.105
 5305.00    2.33416   2.28062   18.601
 5306.00    2.31025   2.28057   18.251
 5307.00    2.29240   2.25802   18.190
 5308.00    2.27570   2.24762   18.358
 5309.00    2.30597   2.27010   18.520
 5310.00    2.34985   2.30145   18.413
 5311.00    2.35291   2.30926   18.221
 5312.00    2.32004   2.29531   18.101
 5313.00    2.29933   2.27224   18.112
 5314.00    2.29468   2.24766   18.211
 5315.00    2.28621   2.22439   18.291
 5316.00    2.26670   2.19757   18.421
 5317.00    2.25241   2.18526   18.602
 5318.00    2.28045   2.19872   18.768
 5319.00    2.29091   2.21944   18.783
 5320.00    2.29530   2.22659   18.650
 5321.00    2.28035   2.21572   18.567
 5322.00    2.24213   2.18723   18.627
 5323.00    2.20516   2.13230   18.756
 5324.00    2.17229   2.07800   18.973
 5325.00    2.14583   2.04014   19.300
 5326.00    2.10923   1.99275   19.489
 5327.00    2.00790   1.88864   19.491
 5328.00    1.90124   1.78025   19.994
 5329.00    1.90936   1.77132   -1.000
 5330.00    2.04023   1.89973   -1.000
 5331.00    2.16433   2.05328   21.207
 5332.00    2.20942   2.13695   19.952
 5333.00    2.24613   2.16457   19.277
 5334.00    2.28203   2.19190   19.053
 5335.00    2.29717   2.23300   18.872
 5336.00    2.31118   2.25405   18.654
 5337.00    2.28940   2.24088   18.565
 5338.00    2.25939   2.20296   18.674
 5339.00    2.20642   2.13515   18.796
 5340.00    2.12784   2.05814   18.997
 5341.00    2.13087   2.02752   19.462
 5342.00    2.16901   2.07844   19.815
 5343.00    2.23633   2.15311   19.682
 5344.00    2.26543   2.19065   19.168
 5345.00    2.25823   2.18302   18.812
 5346.00    2.25610   2.15854   18.791
 5347.00    2.22985   2.13542   18.908
 5348.00    2.22494   2.11728   19.030
 5349.00    2.20569   2.10665   19.125
 5350.00    2.22300   2.13072   19.293
 5351.00    2.28524   2.18686   19.348
 5352.00    2.31869   2.24742   19.069
 5353.00    2.35244   2.28552   18.633
 5354.00    2.38256   2.30504   18.387
 5355.00    2.42143   2.33650   18.319
 5356.00    2.41365   2.36534   18.181
 5357.00    2.42006   2.37655   17.953
 5358.00    2.42471   2.37261   17.812
 5359.00    2.41585   2.36223   17.818
 5360.00    2.37548   2.34061   17.846
 5361.00    2.33953   2.30425   17.909
 5362.00    2.30357   2.26709   18.110
 5363.00    2.28806   2.23703   18.409
 5364.00    2.27725   2.20868   18.683
 5365.00    2.24890   2.18615   18.823
 5366.00    2.23178   2.17270   18.933
 5367.00    2.24845   2.17612   19.047
 5368.00    2.24372   2.16688   19.000
 5369.00    2.18011   2.10849   18.994
 5370.00    2.10536   2.01841   19.174
 5371.00    2.08169   1.95210   -1.000
 5372.00    2.13504   1.97331   -1.000
 5373.00    2.24568   2.08154   -1.000
 5374.00    2.34667   2.20751   -1.000
 5375.00    2.37785   2.28569   18.736
 5376.00    2.37832   2.30129   18.249
 5377.00    2.37152   2.29186   18.094
 5378.00    2.37204   2.29007   18.137
 5379.00    2.37740   2.29534   18.149
 5380.00    2.35081   2.29065   18.182
 5381.00    2.32265   2.26555   18.283
 5382.00    2.29360   2.23534   18.459
 5383.00    2.27987   2.21709   18.642
 5384.00    2.31327   2.22415   18.740
 5385.00    2.35630   2.25344   18.734
 5386.00    2.36858   2.28614   18.650
 5387.00    2.36653   2.29422   18.457
 5388.00    2.34192   2.27018   18.408
 5389.00    2.28608   2.22762   18.484
 5390.00    2.25088   2.18253   18.657
 5391.00    2.22795   2.15347   18.936
 5392.00    2.22546   2.14118   19.155
 5393.00    2.24215   2.13859   19.250
 5394.00    2.22972   2.13891   19.264
 5395.00    2.21221   2.12023   19.319
 5396.00    2.15852   2.07257   19.457
 5397.00    2.13292   2.02913   19.706
 5398.00    2.16100   2.03468   -1.000
 5399.00    2.23305   2.10266   -1.000
 5400.00    2.27934   2.17388   19.584
 5401.00    2.29897   2.20808   19.015
 5402.00    2.28545   2.20668   18.869
 5403.00    2.22885   2.16119   18.896
 5404.00    2.14492   2.06766   19.039
 5405.00    2.07679   1.96520   19.587
 5406.00    2.07211   1.93789   -1.000
 5407.00    2.12125   1.99504   -1.000
 5408.00    2.17403   2.05744   20.375
 5409.00    2.16930   2.07476   19.955
 5410.00    2.16661   2.05821   19.762
 5411.00    2.21989   2.08949   -1.000
 5412.00    2.29121   2.16694   -1.000
 5413.00    2.32556   2.22605   19.342
 5414.00    2.33355   2.24562   18.885
 5415.00    2.33597   2.24792   18.669
 5416.00    2.35675   2.27503   18.666
 5417.00    2.38328   2.31274   18.677
 5418.00    2.37578   2.32298   18.548
 5419.00    2.34841   2.30477   18.427
 5420.00    2.32012   2.28029   18.488
 5421.00    2.30703   2.26685   18.665
 5422.00    2.31438   2.26342   18.784
 5423.00    2.30697   2.24425   18.722
 5424.00    2.28182   2.21832   18.646
 5425.00    2.29046   2.23094   18.880
 5426.00    2.34482   2.28676   19.064
 5427.00    2.36518   2.32740   18.890
 5428.00    2.30899   2.28158   18.576
 5429.00    2.23073   2.17374   18.603
 5430.00    2.20472   2.10589   19.084
 5431.00    2.23109   2.11727   19.694
 5432.00    2.25743   2.15934   19.781
 5433.00    2.23560   2.15525   19.452
 5434.00    2.18434   2.10870   19.411
 5435.00    2.18185   2.08699   19.668
 5436.00    2.22268   2.11948   19.903
 5437.00    2.28270   2.20127   19.855
 5438.00    2.35198   2.29135   19.484
 5439.00    2.41265   2.35803   18.955
 5440.00    2.46085   2.39049   18.546
 5441.00    2.46455   2.40394   18.277
 5442.00    2.45104   2.41053   18.118
 5443.00    2.42267   2.39926   18.078
 5444.00    2.36729   2.34751   18.075
 5445.00    2.29347   2.24716   18.250
 5446.00    2.20055   2.13037   18.713
 5447.00    2.14690   2.07409   19.467
 5448.00    2.20180   2.10553   20.128
 5449.00    2.27818   2.20323   20.052
 5450.00    2.32945   2.28268   19.440
 5451.00    2.33989   2.30405   18.885
 5452.00    2.32315   2.29124   18.675
 5453.00    2.29060   2.24787   18.665
 5454.00    2.22483   2.17081   18.812
 5455.00    2.17403   2.09045   19.228
 5456.00    2.17928   2.06914   19.776
 5457.00    2.25001   2.14276   20.220
 5458.00    2.32669   2.25997   19.992
 5459.00    2.36134   2.32028   19.326
 5460.00    2.34863   2.31190   18.782
 5461.00    2.30344   2.26100   18.640
 5462.00    2.26416   2.20380   18.833
 5463.00    2.24864   2.17236   19.180
 5464.00    2.26805   2.18479   19.451
 5465.00    2.31796   2.22508   19.571
 5466.00    2.34502   2.26253   19.358
 5467.00    2.35014   2.28488   19.127
 5468.00    2.35747   2.29604   19.025
 5469.00    2.35055   2.29521   18.826
 5470.00    2.33618   2.27897   18.733
 5471.00    2.30539   2.25858   18.887
 5472.00    2.30017   2.24323   19.085
 5473.00    2.30244   2.22968   19.166
 5474.00    2.28622   2.20248   19.260
 5475.00    2.24122   2.15026   19.448
 5476.00    2.16703   2.09060   19.719
 5477.00    2.15779   2.06638   20.128
 5478.00    2.22380   2.11980   20.456
 5479.00    2.29445   2.19523   20.318
 5480.00    2.29490   2.22055   19.731
 5481.00    2.25355   2.19172   19.329
 5482.00    2.23717   2.16570   19.428
 5483.00    2.28827   2.20108   19.667
 5484.00    2.35683   2.27267   19.658
 5485.00    2.38530   2.32091   19.340
 5486.00    2.35430   2.31829   18.946
 5487.00    2.31239   2.27337   18.759
 5488.00    2.27941   2.23714   18.908
 5489.00    2.28528   2.23256   19.176
 5490.00    2.31150   2.26366   19.306
 5491.00    2.33632   2.28896   19.318
 5492.00    2.35126   2.29698   19.195
 5493.00    2.34935   2.29257   19.054
 5494.00    2.37089   2.28868   18.976
 5495.00    2.37113   2.29042   19.008
 5496.00    2.35340   2.27968   19.020
 5497.00    2.34082   2.25966   19.018
 5498.00    2.34585   2.26012   19.142
 5499.00    2.38142   2.28325   19.280
 5500.00    2.37256   2.29136   19.201
 5501.00    2.33874   2.26215   18.991
 5502.00    2.32905   2.21787   19.103
 5503.00    2.33055   2.21205   19.401
 5504.00    2.32514   2.22748   19.465
 5505.00    2.30843   2.22052   19.321
 5506.00    2.28250   2.19407   19.266
 5507.00    2.27910   2.18219   19.497
 5508.00    2.32296   2.21563   19.702
 5509.00    2.36115   2.26455   19.561
 5510.00    2.34464   2.27406   19.255
 5511.00    2.29652   2.23502   19.146
 5512.00    2.26055   2.17943   19.253
 5513.00    2.23024   2.14116   19.607
 5514.00    2.22001   2.14445   19.941
 5515.00    2.27532   2.17448   20.135
 5516.00    2.33581   2.21556   19.940
 5517.00    2.37638   2.26217   19.596
 5518.00    2.41131   2.31139   19.293
 5519.00    2.44164   2.35347   18.939
 5520.00    2.44345   2.36951   18.619
 5521.00    2.46995   2.36047   18.544
 5522.00    2.45727   2.35380   18.567
 5523.00    2.43579   2.35541   18.604
 5524.00    2.41374   2.35434   18.666
 5525.00    2.39258   2.32976   18.702
 5526.00    2.35319   2.27258   18.805
 5527.00    2.27543   2.19936   19.045
 5528.00    2.23598   2.14272   19.467
 5529.00    2.28194   2.15849   -1.000
 5530.00    2.34378   2.23319   20.129
 5531.00    2.38568   2.30732   19.751
 5532.00    2.37635   2.33128   19.231
 5533.00    2.36345   2.31756   18.950
 5534.00    2.34568   2.29749   18.959
 5535.00    2.34145   2.28420   19.125
 5536.00    2.35673   2.28293   19.230
 5537.00    2.37918   2.29635   19.182
 5538.00    2.40197   2.31372   19.033
 5539.00    2.43182   2.33089   18.972
 5540.00    2.46854   2.35826   18.895
 5541.00    2.47594   2.37828   18.722
 5542.00    2.44732   2.37054   18.568
 5543.00    2.43282   2.34317   18.558
 5544.00    2.41210   2.32393   18.730
 5545.00    2.41000   2.32325   18.923
 5546.00    2.43027   2.33321   18.990
 5547.00    2.44658   2.34722   18.947
 5548.00    2.48263   2.37740   18.901
 5549.00    2.50695   2.41079   18.792
 5550.00    2.51326   2.42519   18.612
 5551.00    2.51475   2.42221   18.452
 5552.00    2.48645   2.40399   18.396
 5553.00    2.45541   2.37304   18.478
 5554.00    2.43391   2.34814   18.634
 5555.00    2.42096   2.34296   18.843
 5556.00    2.43606   2.35205   18.951
 5557.00    2.45059   2.35863   18.935
 5558.00    2.45889   2.35741   18.878
 5559.00    2.46404   2.36266   18.842
 5560.00    2.45424   2.36783   18.817
 5561.00    2.44897   2.35564   18.797
 5562.00    2.42560   2.32743   18.829
 5563.00    2.40831   2.30848   18.920
 5564.00    2.38904   2.30258   19.102
 5565.00    2.39893   2.29891   19.245
 5566.00    2.39433   2.28842   19.309
 5567.00    2.40384   2.27775   -1.000
 5568.00    2.40695   2.27584   -1.000
 5569.00    2.41865   2.28001   -1.000
 5570.00    2.41137   2.28735   -1.000
 5571.00    2.40721   2.29119   19.340
 5572.00    2.40049   2.28538   19.337
 5573.00    2.39295   2.27370   19.336
 5574.00    2.41630   2.27878   -1.000
 5575.00    2.40897   2.31532   19.322
 5576.00    2.18312   2.33832   19.129
 5577.00    1.68027   2.34024   -1.000
 5578.00    0.84668   2.35206   -1.000
 5579.00    0.70224   2.37016   -1.000
 5580.00    1.29578   2.37535   -1.000
 5581.00    2.18487   2.37162   19.235
 5582.00    2.82642   2.35821   -1.000
 5583.00    2.72043   2.34723   -1.000
 5584.00    2.49522   2.33720   -1.000
 5585.00    2.39762   2.29742   19.053
 5586.00    2.32131   2.22070   19.145
 5587.00    2.26319   2.13365   -1.000
 5588.00    2.21959   2.08896   -1.000
 5589.00    2.22533   2.10167   -1.000
 5590.00    2.28847   2.14728   -1.000
 5591.00    2.33941   2.20407   -1.000
 5592.00    2.35753   2.23791   -1.000
 5593.00    2.34275   2.24701   19.831
 5594.00    2.34622   2.25460   19.742
 5595.00    2.39952   2.28572   -1.000
 5596.00    2.43404   2.32713   19.718
 5597.00    2.41787   2.33485   19.452
 5598.00    2.36790   2.29589   19.271
 5599.00    2.32679   2.24269   19.407
 5600.00    2.31023   2.21283   19.732
 5601.00    2.28828   2.19335   19.964
 5602.00    2.28022   2.17991   19.981
 5603.00    2.31273   2.20438   20.072
 5604.00    2.38439   2.27922   20.175
 5605.00    2.46107   2.36592   19.904
 5606.00    2.49060   2.42600   19.379
 5607.00    2.50766   2.45082   18.920
 5608.00    2.52120   2.45083   18.667
 5609.00    2.51787   2.44458   18.604
 5610.00    2.52111   2.44457   18.625
 5611.00    2.52590   2.45851   18.663
 5612.00    2.52890   2.46426   18.653
 5613.00    2.47992   2.42586   18.599
 5614.00    2.39366   2.32765   18.665
 5615.00    2.32856   2.21388   19.011
 5616.00    2.31299   2.16461   -1.000
 5617.00    2.36698   2.20735   -1.000
 5618.00    2.42275   2.28670   -1.000
 5619.00    2.43193   2.32262   19.612
 5620.00    2.44920   2.33665   19.307
 5621.00    2.47447   2.36119   19.234
 5622.00    2.48044   2.37274   19.157
 5623.00    2.44053   2.33706   19.061
 5624.00    2.38049   2.27752   19.116
 5625.00    2.34903   2.23610   19.455
 5626.00    2.36636   2.25963   19.827
 5627.00    2.41743   2.31578   19.809
 5628.00    2.46417   2.36416   19.500
 5629.00    2.49276   2.39921   19.207
 5630.00    2.51625   2.42419   18.978
 5631.00    2.53251   2.43261   18.827
 5632.00    2.53226   2.42460   18.762
 5633.00    2.51923   2.40766   18.692
 5634.00    2.50202   2.38863   18.696
 5635.00    2.47870   2.36175   18.826
 5636.00    2.46009   2.33729   -1.000
 5637.00    2.44342   2.32216   -1.000
 5638.00    2.42525   2.32145   19.225
 5639.00    2.43398   2.33081   19.358
 5640.00    2.43282   2.33391   19.379
 5641.00    2.39934   2.31947   19.359
 5642.00    2.39669   2.30882   19.412
 5643.00    2.41951   2.32306   19.433
 5644.00    2.43288   2.34087   19.367
 5645.00    2.44309   2.35414   19.277
 5646.00    2.45865   2.36844   19.237
 5647.00    2.47739   2.37716   19.120
 5648.00    2.47949   2.37395   19.051
 5649.00    2.48167   2.36483   19.003
 5650.00    2.48672   2.36242   -1.000
 5651.00    2.50109   2.37998   -1.000
 5652.00    2.51893   2.40351   19.015
 5653.00    2.50686   2.40111   18.885
 5654.00    2.47560   2.37650   18.816
 5655.00    2.45144   2.35614   18.872
 5656.00    2.44736   2.33475   19.014
 5657.00    2.38345   2.29033   19.194
 5658.00    2.31823   2.22949   19.534
 5659.00    2.30864   2.19946   20.107
 5660.00    2.36327   2.23913   -1.000
 5661.00    2.40012   2.28609   -1.000
 5662.00    2.39485   2.29145   19.850
 5663.00    2.41503   2.29770   -1.000
 5664.00    2.45772   2.33428   -1.000
 5665.00    2.47137   2.37225   19.559
 5666.00    2.46580   2.38296   19.284
 5667.00    2.45406   2.36452   19.174
 5668.00    2.43710   2.34640   19.252
 5669.00    2.43825   2.34862   19.369
 5670.00    2.45230   2.36092   19.408
 5671.00    2.46693   2.37994   19.368
 5672.00    2.49795   2.41212   19.253
 5673.00    2.53747   2.44335   19.091
 5674.00    2.55065   2.45640   18.902
 5675.00    2.54791   2.45433   18.718
 5676.00    2.55264   2.44907   18.693
 5677.00    2.54980   2.45403   18.750
 5678.00    2.54807   2.45665   18.712
 5679.00    2.54433   2.44123   18.675
 5680.00    2.52713   2.41878   18.751
 5681.00    2.50449   2.39122   18.833
 5682.00    2.48062   2.35280   -1.000
 5683.00    2.45998   2.32604   -1.000
 5684.00    2.46449   2.33717   -1.000
 5685.00    2.47885   2.36316   -1.000
 5686.00    2.47267   2.36465   19.356
 5687.00    2.44857   2.34391   19.261
 5688.00    2.45146   2.32857   -1.000
 5689.00    2.47557   2.33977   -1.000
 5690.00    2.50214   2.37815   -1.000
 5691.00    2.54379   2.42199   -1.000
 5692.00    2.56039   2.45343   19.109
 5693.00    2.55508   2.46599   18.897
 5694.00    2.56246   2.46274   18.771
 5695.00    2.56282   2.45624   18.724
 5696.00    2.55900   2.44848   18.740
 5697.00    2.54065   2.43365   18.757
 5698.00    2.49586   2.40771   18.803
 5699.00    2.46527   2.37853   18.968
 5700.00    2.44731   2.35523   19.187
 5701.00    2.42641   2.33179   19.366
 5702.00    2.41190   2.32666   19.566
 5703.00    2.43794   2.35117   19.678
 5704.00    2.48163   2.37515   19.568
 5705.00    2.45505   2.37509   19.367
 5706.00    2.40895   2.34282   19.292
 5707.00    2.36766   2.29518   19.396
 5708.00    2.33617   2.25936   19.651
 5709.00    2.32041   2.23150   20.007
 5710.00    2.33058   2.22295   -1.000
 5711.00    2.35310   2.24082   -1.000
 5712.00    2.38350   2.27718   -1.000
 5713.00    2.44492   2.33985   -1.000
 5714.00    2.49774   2.40212   19.885
 5715.00    2.54132   2.43379   19.401
 5716.00    2.55861   2.44863   19.071
 5717.00    2.57789   2.45879   -1.000
 5718.00    2.57899   2.46645   18.928
 5719.00    2.57878   2.47830   18.872
 5720.00    2.59342   2.49794   18.784
 5721.00    2.60985   2.51879   18.666
 5722.00    2.62954   2.53495   18.573
 5723.00    2.63722   2.54432   18.522
 5724.00    2.62592   2.54422   18.492
 5725.00    2.60615   2.52503   18.468
 5726.00    2.58787   2.48784   18.501
 5727.00    2.54925   2.45763   18.639
 5728.00    2.54108   2.46158   18.833
 5729.00    2.58733   2.48599   18.992
 5730.00    2.59338   2.49160   18.934
 5731.00    2.57441   2.47478   18.815
 5732.00    2.57032   2.46337   18.838
 5733.00    2.58769   2.48421   18.931
 5734.00    2.62669   2.52299   18.891
 5735.00    2.64379   2.53832   18.722
 5736.00    2.62755   2.52939   18.589
 5737.00    2.60293   2.51214   18.583
 5738.00    2.59138   2.50248   18.608
 5739.00    2.60232   2.50788   18.658
 5740.00    2.61832   2.51126   18.681
 5741.00    2.62122   2.50924   18.715
 5742.00    2.61663   2.50032   -1.000
 5743.00    2.62397   2.50043   -1.000
 5744.00    2.63395   2.52005   -1.000
 5745.00    2.64014   2.54263   18.732
 5746.00    2.64585   2.54327   18.617
 5747.00    2.61064   2.51193   18.506
 5748.00    2.57800   2.48470   18.572
 5749.00    2.59112   2.49879   18.748
 5750.00    2.61221   2.52371   18.843
 5751.00    2.60697   2.52353   18.762
 5752.00    2.55892   2.47490   18.689
 5753.00    2.51071   2.41789   18.800
 5754.00    2.51944   2.40199   -1.000
 5755.00    2.56227   2.43945   -1.000
 5756.00    2.59961   2.51085   19.253
 5757.00    2.63871   2.55856   19.047
 5758.00    2.64618   2.56867   18.707
 5759.00    2.62712   2.54484   18.459
 5760.00    2.59431   2.49711   18.467
 5761.00    2.54822   2.44433   18.653
 5762.00    2.52290   2.40864   18.895
 5763.00    2.54027   2.41660   -1.000
 5764.00    2.57010   2.47349   19.281
 5765.00    2.59599   2.54220   19.127
 5766.00    2.64191   2.57482   18.802
 5767.00    2.66746   2.58355   18.548
 5768.00    2.65553   2.58047   18.461
 5769.00    2.66490   2.57250   18.439
 5770.00    2.65285   2.56242   18.411
 5771.00    2.63417   2.55235   18.434
 5772.00    2.62240   2.53693   18.493
 5773.00    2.59540   2.51919   18.588
 5774.00    2.59344   2.51151   18.703
 5775.00    2.59264   2.51163   18.764
 5776.00    2.58548   2.52773   18.789
 5777.00    2.59543   2.54340   18.762
 5778.00    2.59168   2.53257   18.677
 5779.00    2.53923   2.48949   18.642
 5780.00    2.45691   2.42187   18.688
 5781.00    2.37636   2.35948   18.918
 5782.00    2.33144   2.33031   19.323
 5783.00    2.32956   2.34140   19.617
 5784.00    2.36880   2.35183   19.637
 5785.00    2.41418   2.35048   19.561
 5786.00    2.46749   2.37455   19.489
 5787.00    2.52833   2.42861   19.418
 5788.00    2.56947   2.47643   19.232
 5789.00    2.59841   2.49631   18.980
 5790.00    2.59880   2.48645   18.811
 5791.00    2.58795   2.47256   -1.000
 5792.00    2.59803   2.48200   -1.000
 5793.00    2.62955   2.52203   18.874
 5794.00    2.67013   2.56530   18.741
 5795.00    2.66814   2.58593   18.604
 5796.00    2.63474   2.57456   18.489
 5797.00    2.60728   2.53873   18.455
 5798.00    2.59220   2.52144   18.542
 5799.00    2.61899   2.54538   18.663
 5800.00    2.68285   2.59723   18.620
 5801.00    2.72686   2.63286   18.408
 5802.00    2.73095   2.63326   18.154
 5803.00    2.70140   2.60787   18.066
 5804.00    2.65961   2.56783   18.182
 5805.00    2.65339   2.54279   18.331
 5806.00    2.66058   2.54160   -1.000
 5807.00    2.66047   2.55502   18.577
 5808.00    2.64958   2.56814   18.560
 5809.00    2.65984   2.57805   18.492
 5810.00    2.67441   2.58949   18.433
 5811.00    2.67987   2.59776   18.421
 5812.00    2.68387   2.59475   18.408
 5813.00    2.67159   2.58260   18.350
 5814.00    2.65441   2.55857   18.291
 5815.00    2.63107   2.52628   18.307
 5816.00    2.62651   2.50551   -1.000
 5817.00    2.64140   2.52660   -1.000
 5818.00    2.68661   2.57341   -1.000
 5819.00    2.72395   2.61439   18.359
 5820.00    2.72650   2.62529   18.252
 5821.00    2.72956   2.61683   18.161
 5822.00    2.72116   2.60320   -1.000
 5823.00    2.71545   2.59474   -1.000
 5824.00    2.71827   2.59794   -1.000
 5825.00    2.71346   2.60237   18.153
 5826.00    2.71067   2.60927   18.122
 5827.00    2.72191   2.61458   18.090
 5828.00    2.74357   2.61938   -1.000
 5829.00    2.75014   2.62507   -1.000
 5830.00    2.75245   2.62753   -1.000
 5831.00    2.75151   2.62540   -1.000
 5832.00    2.75045   2.62031   -1.000
 5833.00    2.73949   2.60940   -1.000
 5834.00    2.72656   2.59466   -1.000
 5835.00    2.71997   2.58566   -1.000
 5836.00    2.73027   2.59213   -1.000
 5837.00    2.72946   2.59889   -1.000
 5838.00    2.71757   2.59514   -1.000
 5839.00    2.71844   2.59972   -1.000
 5840.00    2.73276   2.61695   -1.000
 5841.00    2.75990   2.63879   -1.000
 5842.00    2.77219   2.64981   -1.000
 5843.00    2.75650   2.64356   17.974
 5844.00    2.73312   2.62808   17.957
 5845.00    2.71125   2.60617   18.006
 5846.00    2.68537   2.58082   18.076
 5847.00    2.66824   2.56038   18.185
 5848.00    2.66931   2.55469   -1.000
 5849.00    2.66414   2.56207   18.374
 5850.00    2.65377   2.56364   18.380
 5851.00    2.64318   2.54461   18.394
 5852.00    2.62334   2.51268   18.484
 5853.00    2.61409   2.48972   -1.000
 5854.00    2.60765   2.48638   -1.000
 5855.00    2.60189   2.48733   -1.000
 5856.00    2.57615   2.45782   -1.000
 5857.00    2.54165   2.40273   -1.000
 5858.00    2.55505   2.37696   -1.000
 5859.00    2.58950   2.40971   -1.000
 5860.00    2.62975   2.47139   -1.000
 5861.00    2.64960   2.50762   -1.000
 5862.00    2.64353   2.51757   -1.000
 5863.00    2.65452   2.51714   -1.000
 5864.00    2.64509   2.52343   -1.000
 5865.00    2.63881   2.52279   18.629
 5866.00    2.63145   2.50216   -1.000
 5867.00    2.63771   2.48772   -1.000
 5868.00    2.65799   2.50902   -1.000
 5869.00    2.68596   2.54809   -1.000
 5870.00    2.70581   2.57586   -1.000
 5871.00    2.69972   2.58300   -1.000
 5872.00    2.69980   2.57120   -1.000
 5873.00    2.69079   2.55889   -1.000
 5874.00    2.70304   2.55554   -1.000
 5875.00    2.70237   2.55903   -1.000
 5876.00    2.68347   2.55347   -1.000
 5877.00    2.66497   2.53488   -1.000
 5878.00    2.64978   2.51168   -1.000
 5879.00    2.62815   2.48756   -1.000
 5880.00    2.60646   2.47256   -1.000
 5881.00    2.62302   2.47174   -1.000
 5882.00    2.62808   2.48051   -1.000
 5883.00    2.60075   2.47277   -1.000
 5884.00    2.59391   2.45445   -1.000
 5885.00    2.60162   2.44774   -1.000
 5886.00    2.56930   2.42676   -1.000
 5887.00    2.44734   2.33287   18.946
 5888.00    2.20665   2.13368   19.136
 5889.00    1.82746   1.88414   19.711
 5890.00    1.46885   1.73150   -1.000
 5891.00    1.31257   1.78014   -1.000
 5892.00    1.46060   1.95541   -1.000
 5893.00    1.81839   2.06696   -1.000
 5894.00    2.05337   2.05448   21.646
 5895.00    1.95387   1.95226   21.105
 5896.00    1.67690   1.88311   -1.000
 5897.00    1.56540   1.97083   -1.000
 5898.00    1.74083   2.13414   -1.000
 5899.00    2.09762   2.26309   21.338
 5900.00    2.40792   2.34696   20.588
 5901.00    2.52871   2.41155   -1.000
 5902.00    2.55733   2.45153   19.494
 5903.00    2.56911   2.47066   19.126
 5904.00    2.58455   2.47726   18.966
 5905.00    2.59906   2.47548   -1.000
 5906.00    2.60959   2.47609   -1.000
 5907.00    2.62308   2.48827   -1.000
 5908.00    2.64199   2.50371   -1.000
 5909.00    2.63572   2.51493   -1.000
 5910.00    2.62520   2.52753   18.877
 5911.00    2.62671   2.53293   18.914
 5912.00    2.60555   2.52065   18.956
 5913.00    2.57973   2.48373   18.975
 5914.00    2.55116   2.43806   19.034
 5915.00    2.54621   2.41978   -1.000
 5916.00    2.57651   2.43386   -1.000
 5917.00    2.59352   2.46037   -1.000
 5918.00    2.61762   2.49562   -1.000
 5919.00    2.62438   2.52122   19.266
 5920.00    2.61000   2.53018   19.190
 5921.00    2.60082   2.52603   19.135
 5922.00    2.59711   2.51541   19.071
 5923.00    2.61003   2.51170   19.057
 5924.00    2.61656   2.52446   19.076
 5925.00    2.62029   2.54438   19.023
 5926.00    2.61245   2.55800   18.955
 5927.00    2.61362   2.55328   18.915
 5928.00    2.61697   2.52320   18.897
 5929.00    2.60376   2.49183   18.920
 5930.00    2.60994   2.48008   -1.000
 5931.00    2.63918   2.50361   -1.000
 5932.00    2.65083   2.53261   -1.000
 5933.00    2.63901   2.53206   19.058
 5934.00    2.61504   2.51240   18.938
 5935.00    2.60008   2.50426   19.024
 5936.00    2.63024   2.53116   19.168
 5937.00    2.66415   2.56164   19.222
 5938.00    2.67500   2.57054   19.136
 5939.00    2.66802   2.56382   18.978
 5940.00    2.66340   2.54092   -1.000
 5941.00    2.65059   2.51179   -1.000
 5942.00    2.63513   2.49962   -1.000
 5943.00    2.61570   2.51626   19.221
 5944.00    2.61549   2.54402   19.235
 5945.00    2.63632   2.56537   19.143
 5946.00    2.64507   2.56804   19.027
 5947.00    2.62001   2.54853   18.943
 5948.00    2.59694   2.51738   18.964
 5949.00    2.60027   2.50527   19.110
 5950.00    2.61082   2.52149   19.309
 5951.00    2.61348   2.53083   19.396
 5952.00    2.60914   2.52004   19.327
 5953.00    2.60093   2.50441   19.243
 5954.00    2.61891   2.51167   19.262
 5955.00    2.63787   2.52708   -1.000
 5956.00    2.62464   2.51564   19.234
 5957.00    2.60957   2.49752   -1.000
 5958.00    2.61304   2.50395   19.289
 5959.00    2.63839   2.53278   19.334
 5960.00    2.66278   2.56824   19.283
 5961.00    2.66951   2.59277   19.095
 5962.00    2.68138   2.59918   18.896
 5963.00    2.69649   2.59490   18.796
 5964.00    2.69593   2.58049   -1.000
 5965.00    2.68169   2.56224   -1.000
 5966.00    2.67305   2.55378   -1.000
 5967.00    2.67928   2.56681   -1.000
 5968.00    2.68749   2.58577   19.026
 5969.00    2.70631   2.59852   -1.000
 5970.00    2.70653   2.61178   18.890
 5971.00    2.69288   2.62126   18.813
 5972.00    2.68664   2.62175   18.802
 5973.00    2.68601   2.61457   18.772
 5974.00    2.67557   2.59531   18.744
 5975.00    2.64569   2.56070   18.813
 5976.00    2.63155   2.52407   18.956
 5977.00    2.62013   2.50792   -1.000
 5978.00    2.62860   2.51450   -1.000
 5979.00    2.63798   2.54290   19.342
 5980.00    2.65204   2.57411   19.301
 5981.00    2.65630   2.58688   19.150
 5982.00    2.65536   2.56141   19.049
 5983.00    2.63485   2.51363   -1.000
 5984.00    2.60639   2.47586   -1.000
 5985.00    2.59342   2.48216   -1.000
 5986.00    2.62123   2.52209   19.484
 5987.00    2.66854   2.55097   -1.000
 5988.00    2.69299   2.56791   -1.000
 5989.00    2.69447   2.58183   -1.000
 5990.00    2.68943   2.58533   19.065
 5991.00    2.68684   2.58279   18.981
 5992.00    2.69378   2.59104   18.974
 5993.00    2.71500   2.61961   19.021
 5994.00    2.72917   2.64435   18.966
 5995.00    2.72400   2.63673   18.818
 5996.00    2.70879   2.60240   -1.000
 5997.00    2.68302   2.56803   -1.000
 5998.00    2.66449   2.55298   -1.000
 5999.00    2.67218   2.56623   -1.000
 6000.00    2.68253   2.58269   19.103
 6001.00    2.68725   2.58532   19.088
 6002.00    2.68093   2.57292   -1.000
 6003.00    2.67393   2.55873   -1.000
 6004.00    2.66664   2.56874   19.260
 6005.00    2.66494   2.57706   19.270
 6006.00    2.64134   2.55069   19.228
 6007.00    2.60568   2.50851   19.220
 6008.00    2.60455   2.48727   -1.000
 6009.00    2.63070   2.51896   -1.000
 6010.00    2.66359   2.57425   19.569
 6011.00    2.66740   2.59020   19.399
 6012.00    2.65477   2.56845   19.182
 6013.00    2.64582   2.54261   19.132
 6014.00    2.63906   2.53770   19.249
 6015.00    2.62952   2.54806   19.369
 6016.00    2.63358   2.54457   19.328
 6017.00    2.64661   2.53824   -1.000
 6018.00    2.64603   2.54341   19.354
 6019.00    2.64672   2.53500   -1.000
 6020.00    2.64651   2.51411   -1.000
 6021.00    2.64024   2.51167   -1.000
 6022.00    2.64167   2.52591   -1.000
 6023.00    2.66345   2.54501   -1.000
 6024.00    2.69879   2.56292   -1.000
 6025.00    2.71831   2.58597   -1.000
 6026.00    2.71975   2.60864   -1.000
 6027.00    2.72118   2.62148   -1.000
 6028.00    2.72310   2.63715   19.114
 6029.00    2.73635   2.65623   19.016
 6030.00    2.76044   2.66364   18.918
 6031.00    2.77328   2.66626   -1.000
 6032.00    2.77933   2.67338   -1.000
 6033.00    2.78724   2.68722   -1.000
 6034.00    2.79569   2.71007   18.901
 6035.00    2.78452   2.72263   18.827
 6036.00    2.77205   2.71463   18.766
 6037.00    2.77331   2.70107   18.748
 6038.00    2.75966   2.68382   18.723
 6039.00    2.74168   2.66811   18.725
 6040.00    2.73882   2.65682   18.809
 6041.00    2.74442   2.65981   18.872
 6042.00    2.74772   2.67321   18.921
 6043.00    2.76038   2.69140   18.914
 6044.00    2.77150   2.70636   18.878
 6045.00    2.77721   2.71053   18.805
 6046.00    2.78905   2.71578   18.667
 6047.00    2.79308   2.71985   18.626
 6048.00    2.78944   2.72328   18.641
 6049.00    2.79433   2.72459   18.619
 6050.00    2.79551   2.72564   18.621
 6051.00    2.79050   2.72132   18.675
 6052.00    2.79426   2.70596   18.726
 6053.00    2.78665   2.68237   -1.000
 6054.00    2.77112   2.66127   -1.000
 6055.00    2.76062   2.64078   -1.000
 6056.00    2.73619   2.62896   -1.000
 6057.00    2.73467   2.63795   18.998
 6058.00    2.75927   2.65975   -1.000
 6059.00    2.77318   2.68151   19.067
 6060.00    2.78143   2.69266   18.983
 6061.00    2.77218   2.68789   18.881
 6062.00    2.74879   2.66691   18.866
 6063.00    2.72302   2.63054   18.909
 6064.00    2.68772   2.59080   19.106
 6065.00    2.66972   2.57117   -1.000
 6066.00    2.64972   2.60091   19.143
 6067.00    2.69131   2.66030   25.059
 6068.00    2.65299   2.70686    8.608
 6069.00    2.75152   2.72762    9.852
 6070.00    2.85224   2.73741   -1.000
 6071.00    2.81478   2.74500   18.906
 6072.00    2.77177   2.74770   18.581
 6073.00    2.76277   2.74614   18.226
 6074.00    1.56955   2.74212   -1.000
 6075.00    1.50038   2.73133   -1.000
 6076.00    2.55362   2.70945   18.710
 6077.00    2.80294   2.68013   -1.000
 6078.00    2.73710   2.65266   18.845
 6079.00    2.73071   2.64100   18.951
 6080.00    2.73006   2.63636   19.086
 6081.00    2.71925   2.62560   19.216
 6082.00    2.71099   2.61434   19.260
 6083.00    2.72721   2.61883   -1.000
 6084.00    2.71922   2.62612   19.314
 6085.00    2.70059   2.63191   19.333
 6086.00    2.71657   2.64527   19.320
 6087.00    2.73396   2.65941   19.302
 6088.00    2.73796   2.66082   19.257
 6089.00    2.72541   2.64389   19.185
 6090.00    2.69497   2.62002   19.182
 6091.00    2.68455   2.61015   19.279
 6092.00    2.70901   2.61834   19.376
 6093.00    2.72935   2.63970   19.395
 6094.00    2.74682   2.66683   19.305
 6095.00    2.77761   2.68599   19.194
 6096.00    2.78565   2.69005   -1.000
 6097.00    2.76445   2.68978   18.999
 6098.00    2.75848   2.70134   18.977
 6099.00    2.77217   2.70492   19.015
 6100.00    2.75970   2.67048   19.041
 6101.00    2.69735   2.59572   -1.000
 6102.00    2.62430   2.50970   -1.000
 6103.00    2.60525   2.49307   -1.000
 6104.00    2.64321   2.54938   -1.000
 6105.00    2.70838   2.62126   19.985
 6106.00    2.74935   2.65891   19.662
 6107.00    2.74151   2.67370   19.329
 6108.00    2.74076   2.68575   19.189
 6109.00    2.73837   2.70131   19.224
 6110.00    2.72835   2.70145   19.286
 6111.00    2.74873   2.69329   19.296
 6112.00    2.76383   2.69972   19.263
 6113.00    2.76278   2.71712   19.192
 6114.00    2.76923   2.73152   19.157
 6115.00    2.76778   2.72465   19.095
 6116.00    2.74583   2.70853   19.023
 6117.00    2.72997   2.70224   19.058
 6118.00    2.72428   2.69191   19.172
 6119.00    2.70512   2.65713   19.236
 6120.00    2.66615   2.59597   19.300
 6121.00    2.62335   2.52832   19.518
 6122.00    2.61639   2.50111   -1.000
 6123.00    2.65155   2.53632   -1.000
 6124.00    2.70080   2.59871   -1.000
 6125.00    2.71796   2.63666   19.865
 6126.00    2.70212   2.64507   19.569
 6127.00    2.70036   2.64137   19.480
 6128.00    2.70679   2.63979   19.563
 6129.00    2.71319   2.66322   19.593
 6130.00    2.73687   2.70062   19.548
 6131.00    2.76906   2.73176   19.431
 6132.00    2.77321   2.74107   19.250
 6133.00    2.75076   2.72148   19.158
 6134.00    2.70175   2.65412   19.174
 6135.00    2.61176   2.54631   19.306
 6136.00    2.52956   2.44140   19.658
 6137.00    2.50321   2.41874   20.205
 6138.00    2.55242   2.48906   20.753
 6139.00    2.64929   2.58750   20.978
 6140.00    2.70613   2.63541   20.640
 6141.00    2.69817   2.63410   20.052
 6142.00    2.70043   2.64500   19.704
 6143.00    2.72418   2.68423   19.663
 6144.00    2.75025   2.72054   19.708
 6145.00    2.75319   2.73000   19.592
 6146.00    2.76204   2.71846   19.358
 6147.00    2.74818   2.69490   19.253
 6148.00    2.70450   2.66680   19.310
 6149.00    2.67855   2.64555   19.425
 6150.00    2.67504   2.63508   19.561
 6151.00    2.68158   2.64713   19.686
 6152.00    2.70197   2.66544   19.728
 6153.00    2.71464   2.66897   19.677
 6154.00    2.68419   2.64720   19.560
 6155.00    2.66230   2.62485   19.491
 6156.00    2.65818   2.62023   19.593
 6157.00    2.64135   2.61842   19.728
 6158.00    2.61767   2.60185   19.769
 6159.00    2.58158   2.54657   19.822
 6160.00    2.50200   2.44228   19.989
 6161.00    2.40506   2.32451   20.314
 6162.00    2.34853   2.25935   20.854
 6163.00    2.36970   2.28674   21.484
 6164.00    2.43721   2.36273   21.845
 6165.00    2.48392   2.44174   21.697
 6166.00    2.51117   2.49005   21.173
 6167.00    2.52322   2.49782   20.739
 6168.00    2.49983   2.45587   20.581
 6169.00    2.46838   2.40850   20.592
 6170.00    2.46043   2.41596   20.786
 6171.00    2.49992   2.47644   21.032
 6172.00    2.54774   2.53440   21.010
 6173.00    2.56497   2.56191   20.676
 6174.00    2.57379   2.57419   20.333
 6175.00    2.57120   2.57755   20.246
 6176.00    2.56756   2.57643   20.280
 6177.00    2.58304   2.58534   20.252
 6178.00    2.59792   2.60272   20.206
 6179.00    2.60523   2.61463   20.158
 6180.00    2.61017   2.62233   20.074
 6181.00    2.62037   2.63949   19.989
 6182.00    2.64313   2.65507   19.924
 6183.00    2.65094   2.65337   19.842
 6184.00    2.62636   2.63720   19.774
 6185.00    2.59568   2.60957   19.783
 6186.00    2.57676   2.57850   19.846
 6187.00    2.55775   2.55093   19.972
 6188.00    2.52731   2.53444   20.174
 6189.00    2.49808   2.50971   20.390
 6190.00    2.47908   2.46397   20.590
 6191.00    2.45928   2.43285   20.755
 6192.00    2.46242   2.45968   20.978
 6193.00    2.51659   2.52265   21.175
 6194.00    2.57735   2.57841   21.070
 6195.00    2.59966   2.61038   20.634
 6196.00    2.59775   2.62611   20.215
 6197.00    2.58808   2.61992   20.026
 6198.00    2.57205   2.59335   19.971
 6199.00    2.55424   2.56079   20.044
 6200.00    2.55276   2.56169   20.248
 6201.00    2.58053   2.59273   20.445
 6202.00    2.60433   2.62576   20.492
 6203.00    2.59614   2.64874   20.345
 6204.00    2.57840   2.65851   20.098
 6205.00    2.57441   2.66566   19.965
 6206.00    2.59279   2.67048   19.957
 6207.00    2.61241   2.67493   19.938
 6208.00    2.62938   2.67431   19.922
 6209.00    2.63113   2.66244   19.972
 6210.00    2.59104   2.64077   20.006
 6211.00    2.56212   2.60781   20.053
 6212.00    2.55249   2.55618   20.207
 6213.00    2.50870   2.50024   20.381
 6214.00    2.46469   2.46288   20.562
 6215.00    2.45592   2.46012   20.836
 6216.00    2.48249   2.48055   21.096
 6217.00    2.52606   2.50121   21.204
 6218.00    2.53703   2.49995   21.047
 6219.00    2.51397   2.48073   20.857
 6220.00    2.50199   2.47834   20.929
 6221.00    2.52692   2.49895   20.959
 6222.00    2.55433   2.52214   20.816
 6223.00    2.55922   2.53186   20.831
 6224.00    2.58256   2.53641   21.821
 6225.00    2.54263   2.54314   22.114
 6226.00    2.37987   2.54994   21.037
 6227.00    2.42020   2.54300   20.620
 6228.00    2.53387   2.50869   20.667
 6229.00    2.48878   2.44626   20.737
 6230.00    2.43419   2.39086   20.962
 6231.00    2.41861   2.38029   21.296
 6232.00    2.45991   2.41839   21.604
 6233.00    2.52196   2.48346   21.653
 6234.00    2.57574   2.54934   21.406
 6235.00    2.60188   2.58724   21.028
 6236.00    2.59388   2.58429   20.659
 6237.00    2.57149   2.55616   20.471
 6238.00    2.53372   2.51996   20.529
 6239.00    2.50899   2.49257   20.722
 6240.00    2.50663   2.47747   20.935
 6241.00    2.49979   2.47004   21.154
 6242.00    2.48360   2.45650   21.299
 6243.00    2.45547   2.43730   21.321
 6244.00    2.45297   2.42780   21.405
 6245.00    2.46806   2.43305   21.565
 6246.00    2.48365   2.45567   21.612
 6247.00    2.52048   2.50219   21.515
 6248.00    2.54815   2.54938   21.326
 6249.00    2.56362   2.57208   21.075
 6250.00    2.56118   2.55882   20.832
 6251.00    2.51483   2.51356   20.733
 6252.00    2.46673   2.46158   20.849
 6253.00    2.44605   2.43285   21.168
 6254.00    2.42914   2.42864   21.495
 6255.00    2.42761   2.42719   21.681
 6256.00    2.42952   2.41096   21.772
 6257.00    2.40719   2.38872   21.787
 6258.00    2.39079   2.39260   21.894
 6259.00    2.43373   2.42438   22.106
 6260.00    2.51351   2.47788   22.131
 6261.00    2.56237   2.53054   21.879
 6262.00    2.58670   2.57436   21.538
 6263.00    2.59351   2.59138   21.234
 6264.00    2.58872   2.58240   20.924
 6265.00    2.57591   2.56948   20.724
 6266.00    2.56149   2.57428   20.789
 6267.00    2.55813   2.58949   20.954
 6268.00    2.56993   2.58948   20.955
 6269.00    2.57344   2.57947   20.813
 6270.00    2.56156   2.57873   20.789
 6271.00    2.57712   2.59275   20.895
 6272.00    2.59014   2.60912   20.925
 6273.00    2.58293   2.61316   20.863
 6274.00    2.58628   2.59477   20.803
 6275.00    2.59042   2.56391   20.815
 6276.00    2.58375   2.53245   20.931
 6277.00    2.56319   2.50613   21.098
 6278.00    2.50902   2.48683   21.364
 6279.00    2.43902   2.47009   21.831
 6280.00    2.39259   2.46624   22.307
 6281.00    2.36889   2.48573   22.550
 6282.00    2.36847   2.52631   22.547
 6283.00    2.39169   2.57011   22.296
 6284.00    2.41715   2.60298   21.910
 6285.00    2.41601   2.62227   -1.000
 6286.00    2.41205   2.63862   -1.000
 6287.00    2.44952   2.65661   -1.000
 6288.00    2.50595   2.66698   20.881
 6289.00    2.54272   2.65545   20.713
 6290.00    2.56270   2.62870   20.630
 6291.00    2.57157   2.60391   20.680
 6292.00    2.56603   2.59325   20.835
 6293.00    2.56323   2.59295   21.004
 6294.00    2.56378   2.59539   21.094
 6295.00    2.55374   2.58130   21.117
 6296.00    2.53413   2.54845   21.148
 6297.00    2.51741   2.52632   21.257
 6298.00    2.51594   2.53176   21.417
 6299.00    2.51280   2.54372   21.495
 6300.00    2.48374   2.53636   21.485
 6301.00    2.41050   2.51517   21.417
 6302.00    2.36392   2.51586   21.321
 6303.00    2.44392   2.54251   21.378
 6304.00    2.58413   2.57874   21.612
 6305.00    2.66249   2.60711   21.624
 6306.00    2.65944   2.63559   21.327
 6307.00    2.64720   2.66278   21.025
 6308.00    2.64585   2.67755   20.816
 6309.00    2.63493   2.66881   20.636
 6310.00    2.61904   2.65131   20.531
 6311.00    2.60067   2.63501   20.576
 6312.00    2.58840   2.62519   20.700
 6313.00    2.58888   2.61414   20.810
 6314.00    2.58635   2.58964   20.889
 6315.00    2.56387   2.56825   20.939
 6316.00    2.54391   2.55328   21.049
 6317.00    2.53267   2.53735   21.191
 6318.00    2.52684   2.53054   21.209
 6319.00    2.54127   2.56015   21.187
 6320.00    2.57424   2.60519   21.194
 6321.00    2.60328   2.63226   21.168
 6322.00    2.61484   2.64718   20.986
 6323.00    2.62650   2.66733   20.748
 6324.00    2.64651   2.69149   20.616
 6325.00    2.65636   2.70339   20.550
 6326.00    2.64946   2.70396   20.458
 6327.00    2.64637   2.70355   20.369
 6328.00    2.65920   2.70676   20.337
 6329.00    2.68107   2.70750   20.279
 6330.00    2.69353   2.70661   20.237
 6331.00    2.68781   2.71923   20.262
 6332.00    2.68561   2.73159   20.274
 6333.00    2.68372   2.71522   20.241
 6334.00    2.65301   2.66778   20.184
 6335.00    2.61868   2.61183   20.201
 6336.00    2.60837   2.58964   20.258
 6337.00    2.60433   2.60706   20.532
 6338.00    2.61428   2.63916   20.810
 6339.00    2.64979   2.67391   20.709
 6340.00    2.68855   2.70456   20.505
 6341.00    2.70188   2.71016   20.286
 6342.00    2.68395   2.68836   20.128
 6343.00    2.66282   2.65668   20.037
 6344.00    2.65203   2.64332   19.998
 6345.00    2.65768   2.66297   20.108
 6346.00    2.67766   2.69264   20.219
 6347.00    2.70248   2.72278   20.193
 6348.00    2.72870   2.74870   20.105
 6349.00    2.72097   2.76498   19.976
 6350.00    2.70194   2.77121   19.868
 6351.00    2.71442   2.76924   19.838
 6352.00    2.71254   2.75534   19.822
 6353.00    2.68274   2.72519   19.807
 6354.00    2.65142   2.69108   19.865
 6355.00    2.62067   2.67420   19.957
 6356.00    2.60747   2.66858   20.121
 6357.00    2.59980   2.64793   20.331
 6358.00    2.58014   2.61480   20.416
 6359.00    2.56836   2.58987   20.442
 6360.00    2.57416   2.57486   20.596
 6361.00    2.57552   2.56210   20.765
 6362.00    2.57079   2.55932   20.755
 6363.00    2.58266   2.57662   20.671
 6364.00    2.60003   2.60936   20.631
 6365.00    2.62068   2.64451   20.587
 6366.00    2.64408   2.67816   20.479
 6367.00    2.67324   2.71159   20.343
 6368.00    2.70554   2.73385   20.224
 6369.00    2.71177   2.73705   20.106
 6370.00    2.71441   2.73764   19.974
 6371.00    2.72385   2.74835   19.882
 6372.00    2.72573   2.77028   19.869
 6373.00    2.74204   2.78414   19.845
 6374.00    2.75504   2.78442   19.767
 6375.00    2.74379   2.78129   19.755
 6376.00    2.71037   2.77500   19.796
 6377.00    2.68758   2.75717   19.823
 6378.00    2.67951   2.73692   19.883
 6379.00    2.66702   2.72367   19.973
 6380.00    2.66096   2.71745   20.093
 6381.00    2.66334   2.71999   20.202
 6382.00    2.67013   2.72684   20.243
 6383.00    2.67661   2.73067   20.266
 6384.00    2.68376   2.73309   20.285
 6385.00    2.67692   2.74311   20.252
 6386.00    2.66689   2.75870   20.270
 6387.00    2.67777   2.76541   20.349
 6388.00    2.67469   2.76597   20.360
 6389.00    2.65940   2.76667   20.379
 6390.00    2.64358   2.75721   20.448
 6391.00    2.60691   2.72215   20.565
 6392.00    2.57991   2.67181   20.737
 6393.00    2.55277   2.63958   20.936
 6394.00    2.51825   2.65971   21.221
 6395.00    2.52912   2.71196   21.478
 6396.00    2.56246   2.75625   21.528
 6397.00    2.56715   2.75940   21.321
 6398.00    2.53767   2.71270   21.129
 6399.00    2.49100   2.64900   21.192
 6400.00    2.45854   2.62854   21.425
 6401.00    2.46190   2.67662   -1.000
 6402.00    2.49729   2.74355   -1.000
 6403.00    2.53893   2.79091   -1.000
 6404.00    2.55378   2.80766   -1.000
 6405.00    2.54003   2.79186   -1.000
 6406.00    2.50484   2.75376   -1.000
 6407.00    2.45820   2.72418   -1.000
 6408.00    2.44013   2.72438   -1.000
 6409.00    2.44355   2.73812   -1.000
 6410.00    2.43375   2.73503   -1.000
 6411.00    2.40354   2.71777   -1.000
 6412.00    2.38134   2.71193   -1.000
 6413.00    2.37087   2.72668   -1.000
 6414.00    2.35554   2.74283   -1.000
 6415.00    2.35020   2.75855   -1.000
 6416.00    2.34842   2.76960   -1.000
 6417.00    2.32984   2.76476   -1.000
 6418.00    2.30737   2.73738   -1.000
 6419.00    2.26603   2.69614   -1.000
 6420.00    2.22397   2.66557   -1.000
 6421.00    2.21823   2.67448   -1.000
 6422.00    2.21717   2.72498   -1.000
 6423.00    2.21531   2.77309   -1.000
 6424.00    2.23042   2.79858   -1.000
 6425.00    2.23032   2.81393   -1.000
 6426.00    2.21384   2.82793   -1.000
 6427.00    2.18661   2.83139   -1.000
 6428.00    2.15560   2.80193   -1.000
