###################################################################
## OUTPUT of StarlightChains_v04.for    [Cid@UFSC - 01/Apr/2007] ##
###################################################################

## Some input info
NGC5927_c_1.cxt                          [arq_obs]
Base.BC03.N                              [arq_base]
NGC5927_c_1.msk                          [arq_masks]
StCv04.C99.config                        [arq_config]
   45                                    [N_base]
    0                                    [N_YAV_components = # of components with extra extinction!]
    0                                    [i_FitPowerLaw (1/0 = Yes/No)]
-9.99                                    [alpha_PowerLaw]
CCM                                      [red_law_option]
 1.458241                                [q_norm = A(l_norm)/A(V)]

## (Re)Sampling Parameters
 3359.00                                 [l_ini (A)]
 6428.00                                 [l_fin (A)]
    1.00                                 [dl    (A)]     (OBS: dl_cushion =    50.00 A)

## Normalization info
 4020.00                                 [l_norm (A) - for base]
 4010.00                                 [llow_norm (A) - window for f_obs]
 4060.00                                 [lupp_norm (A) - window for f_obs]
5.954027E-15                             [fobs_norm (in input units)]

## S/N
 4730.00                                 [llow_SN (A) - window for S/N]
 4780.00                                 [lupp_SN (A) - window for S/N]
  31.182                                 [S/N in S/N window]
  18.272                                 [S/N in norm. window]
 384.682                                 [S/N_err in S/N window]
 225.410                                 [S/N_err in norm. window]
  1.0000                                 [fscale_chi2]

## etc...
  2147483631                             [idum_orig]
  3066                                   [NOl_eff]
  1182                                   [Nl_eff]
  1884    NSIGMA                         [Ntot_cliped & clip_method]
  1968400                                [Nglobal_steps]
   7                                     [N_chains]
  11                                     [NEX0s_base = N_base in EX0s-fits]
 0   0   1      166   2.0   5.068E+02    [Clip-Bug, RC-Crash & Burn-In warning-flags, n_censored_weights, wei_nsig_threshold & wei_limit]
    24     24.563     24.559      0.004  [idt_all, wdt_TotTime, wdt_UsrTime & wdt_SysTime (sec)]

## Synthesis Results - Best model ##

 2.42630E+00                             [chi2/Nl_eff]
     1.94227                             [adev (%)]

   101.02100                             [sum-of-x (%)]
 2.71057E-14                             [Flux_tot (units of input spectrum!)]
 1.71526E-09                             [Mini_tot (???)]
 8.70671E-10                             [Mcor_tot (???)]

   5.95                                  [v0_min  (km/s)]
  60.52                                  [vd_min  (km/s)]
 1.1209                                  [AV_min  (mag)]
 0.0000                                  [YAV_min (mag)]

# j     x_j(%)      Mini_j(%)     Mcor_j(%)     age_j(yr)     Z_j      (L/M)_j    YAV?  Mstars   component_j        a/Fe...       SSP_chi2r SSP_adev(%)   SSP_AV   SSP_x(%)
  1      4.3837     6.1557E-03    1.2127E-02    1.000000E+06  0.00400  1.114E-02    0   1.0000   age020_m42            0.0000     2.6833E+03    33.1136   4.0000    92.5910
  2      8.1821     3.1424E-03    6.1902E-03    3.160000E+06  0.00400  4.073E-02    0   0.9999   age045_m42            0.0000     6.4010E+02    10.3276   4.0000   101.8574
  3      0.0000     0.0000E+00    0.0000E+00    5.010000E+06  0.00400  2.534E-02    0   0.9488   age055_m42            0.0000     1.2887E+03    19.4749   4.0000    99.0699
  4      7.4968     9.2268E-03    1.6109E-02    1.000000E+07  0.00400  1.271E-02    0   0.8862   age070_m42            0.0000     5.2806E+02    11.5456   4.0000    96.1575
  5      0.0000     0.0000E+00    0.0000E+00    2.512000E+07  0.00400  5.070E-03    0   0.8174   age090_m42            0.0000     4.5134E+02    12.7509   4.0000    95.9197
  6      0.0000     0.0000E+00    0.0000E+00    4.000000E+07  0.00400  3.505E-03    0   0.7851   age104_m42            0.0000     3.7911E+02    12.1397   3.7583    96.9336
  7      0.0000     0.0000E+00    0.0000E+00    1.015200E+08  0.00400  2.268E-03    0   0.7207   age116_m42            0.0000     8.9291E+02     8.3095   3.5314   106.4582
  8      0.0000     0.0000E+00    0.0000E+00    2.861200E+08  0.00400  1.079E-03    0   0.6613   age125_m42            0.0000     9.4244E+02     8.1534   3.0193   107.9776
  9      0.0000     0.0000E+00    0.0000E+00    6.405400E+08  0.00400  5.077E-04    0   0.6197   age132_m42            0.0000     9.6657E+02     8.5440   2.6734   111.9471
 10      1.2938     5.7251E-02    6.7943E-02    9.047900E+08  0.00400  3.535E-04    0   0.6024   age135_m42            0.0000     7.1221E+02     7.5240   2.4264   111.2650
 11      0.0000     0.0000E+00    0.0000E+00    1.434000E+09  0.00400  1.910E-04    0   0.5716   age139_m42            0.0000     3.8066E+02     6.1443   1.8248   109.8621
 12      0.0000     0.0000E+00    0.0000E+00    2.500000E+09  0.00400  9.818E-05    0   0.5463   age150_m42            0.0000     1.4339E+02     4.5354   1.5462   104.9759
 13      0.0000     0.0000E+00    0.0000E+00    5.000000E+09  0.00400  4.718E-05    0   0.5228   age161_m42            0.0000     6.1823E+01     3.5473   1.3853   101.4665
 14      7.6113     5.3997E+00    5.2976E+00    1.100000E+10  0.00400  2.205E-05    0   0.4980   age185_m42            0.0000     3.0917E+01     4.4703   1.0600    99.2563
 15      8.7102     7.2359E+00    7.0235E+00    1.300000E+10  0.00400  1.883E-05    0   0.4927   age193_m42            0.0000     2.9515E+01     4.5763   1.0400    99.0721
 16      0.0000     0.0000E+00    0.0000E+00    1.000000E+06  0.02000  1.989E-02    0   1.0000   age020_m62            0.0000     2.6202E+03    32.2048   4.0000    93.2251
 17      0.0000     0.0000E+00    0.0000E+00    3.160000E+06  0.02000  3.772E-02    0   0.9858   age045_m62            0.0000     2.2519E+03    29.0551   4.0000    95.4757
 18      0.0000     0.0000E+00    0.0000E+00    5.010000E+06  0.02000  3.227E-02    0   0.9342   age055_m62            0.0000     1.0075E+03    15.7649   4.0000   101.0496
 19      1.1016     1.7045E-03    2.9385E-03    1.000000E+07  0.02000  1.011E-02    0   0.8751   age070_m62            0.0000     7.7617E+02    13.8614   4.0000    93.8717
 20      0.0000     0.0000E+00    0.0000E+00    2.512000E+07  0.02000  4.206E-03    0   0.8099   age090_m62            0.0000     6.0377E+02    13.3413   4.0000    93.3961
 21      0.0000     0.0000E+00    0.0000E+00    4.000000E+07  0.02000  3.373E-03    0   0.7799   age104_m62            0.0000     4.9156E+02    12.2073   3.9653    98.3904
 22      0.0000     0.0000E+00    0.0000E+00    1.015200E+08  0.02000  1.878E-03    0   0.7221   age116_m62            0.0000     8.6130E+02     8.5958   3.6209   106.5116
 23      0.0000     0.0000E+00    0.0000E+00    2.861200E+08  0.02000  8.869E-04    0   0.6700   age125_m62            0.0000     1.3334E+03     9.3481   3.0207   112.6937
 24      0.0000     0.0000E+00    0.0000E+00    6.405400E+08  0.02000  3.657E-04    0   0.6322   age132_m62            0.0000     9.2047E+02     9.3258   2.2550   115.9117
 25      0.0000     0.0000E+00    0.0000E+00    9.047900E+08  0.02000  2.312E-04    0   0.6152   age135_m62            0.0000     5.6199E+02     8.2634   1.8544   115.1830
 26      0.0000     0.0000E+00    0.0000E+00    1.434000E+09  0.02000  1.168E-04    0   0.5865   age139_m62            0.0000     1.9464E+02     5.6980   1.4493   109.0284
 27      0.0000     0.0000E+00    0.0000E+00    2.500000E+09  0.02000  5.505E-05    0   0.5610   age150_m62            0.0000     7.1206E+01     5.5239   1.0372   106.0489
 28      0.7480     4.5074E-01    4.7534E-01    5.000000E+09  0.02000  2.596E-05    0   0.5353   age161_m62            0.0000     6.4041E+01     7.6895   0.6218   105.9410
 29     35.6952     4.7765E+01    4.8019E+01    1.100000E+10  0.02000  1.169E-05    0   0.5103   age185_m62            0.0000     1.1866E+02    10.8701   0.1558   107.5859
 30     21.5372     3.4765E+01    3.4566E+01    1.300000E+10  0.02000  9.691E-06    0   0.5047   age193_m62            0.0000     1.3306E+02    11.4612   0.0932   107.8384
 31      0.0000     0.0000E+00    0.0000E+00    1.000000E+06  0.05000  2.651E-02    0   0.9998   age020_m72            0.0000     2.5544E+03    31.7700   4.0000    94.3384
 32      0.0000     0.0000E+00    0.0000E+00    3.160000E+06  0.05000  4.817E-02    0   0.9577   age045_m72            0.0000     1.7848E+03    24.6850   4.0000    99.0357
 33      0.0000     0.0000E+00    0.0000E+00    5.010000E+06  0.05000  3.101E-02    0   0.9147   age055_m72            0.0000     1.1998E+03    16.5509   4.0000    99.8497
 34      0.0000     0.0000E+00    0.0000E+00    1.000000E+07  0.05000  8.954E-03    0   0.8524   age070_m72            0.0000     1.5297E+03    21.7751   4.0000    99.4197
 35      0.0000     0.0000E+00    0.0000E+00    2.512000E+07  0.05000  4.207E-03    0   0.7902   age090_m72            0.0000     7.7668E+02    11.5411   4.0000   101.7069
 36      0.0000     0.0000E+00    0.0000E+00    4.000000E+07  0.05000  3.198E-03    0   0.7618   age104_m72            0.0000     6.7148E+02     8.6311   4.0000   102.5926
 37      0.0000     0.0000E+00    0.0000E+00    1.015200E+08  0.05000  1.716E-03    0   0.7092   age116_m72            0.0000     9.7410E+02     8.5917   3.6890   106.7149
 38      0.0000     0.0000E+00    0.0000E+00    2.861200E+08  0.05000  7.047E-04    0   0.6618   age125_m72            0.0000     1.2458E+03     9.6199   2.7502   113.4998
 39      0.0000     0.0000E+00    0.0000E+00    6.405400E+08  0.05000  2.633E-04    0   0.6253   age132_m72            0.0000     6.8233E+02     9.4913   1.8065   115.7434
 40      0.0000     0.0000E+00    0.0000E+00    9.047900E+08  0.05000  1.484E-04    0   0.6088   age135_m72            0.0000     2.7332E+02     7.9273   1.3059   110.2265
 41      0.0000     0.0000E+00    0.0000E+00    1.434000E+09  0.05000  7.827E-05    0   0.5847   age139_m72            0.0000     1.0634E+02     7.6594   0.8697   106.6654
 42      0.0000     0.0000E+00    0.0000E+00    2.500000E+09  0.05000  3.759E-05    0   0.5583   age150_m72            0.0000     7.9607E+01     8.4936   0.5157   105.7575
 43      4.2610     4.3059E+00    4.5129E+00    5.000000E+09  0.05000  1.548E-05    0   0.5320   age161_m72            0.0000     1.2689E+02    11.5455   0.0146   105.2916
 44      0.0000     0.0000E+00    0.0000E+00    1.100000E+10  0.05000  6.532E-06    0   0.5070   age185_m72            0.0000     2.3031E+02    16.0627  -0.5530   106.1871
 45      0.0000     0.0000E+00    0.0000E+00    1.300000E+10  0.05000  5.316E-06    0   0.5018   age193_m72            0.0000     2.8161E+02    17.8015  -0.7500   106.8744


## Synthesis Results - Average & Chains ##

# j      x_j: min, <> & last-chain-values for 1 ...  7 chains
  1      4.3837      4.0640      4.0222      4.1357      4.2014      3.9297      4.0348      4.2193      4.1481
  2      8.1821      8.1954      8.1542      8.3569      8.4278      8.0447      8.2355      8.3648      8.4383
  3      0.0000      0.0685      0.0000      0.1726      0.0000      0.2754      0.0332      0.0003      0.0000
  4      7.4968      7.8676      7.9262      7.8926      7.8197      7.4982      7.9846      7.8675      7.7772
  5      0.0000      0.0465      0.0000      0.0000      0.0000      0.0000      0.0000      0.0000      0.0000
  6      0.0000      0.0174      0.0000      0.0000      0.0000      0.0000      0.0000      0.0090      0.1064
  7      0.0000      0.0136      0.0000      0.0000      0.0000      0.0000      0.0000      0.0000      0.0000
  8      0.0000      0.0250      0.0235      0.1780      0.0088      0.0000      0.0000      0.0000      0.0000
  9      0.0000      0.0888      0.1754      0.0000      0.2807      0.0861      0.3790      0.2462      0.0000
 10      1.2938      0.1451      0.3951      0.2008      0.3420      0.3549      0.3456      0.4437      0.4074
 11      0.0000      0.1517      0.1116      0.1335      0.3214      0.0000      0.3300      0.0733      0.3897
 12      0.0000      0.2258      0.0000      0.2395      0.0000      0.2564      0.0869      0.0214      0.0000
 13      0.0000      0.3715      0.3412      0.3038      0.2787      0.3948      0.0000      0.0000      0.3442
 14      7.6113     13.7236     12.7144     12.4017     13.1908     13.2141     12.0599     13.6233     13.9339
 15      8.7102      1.6885      3.2998      3.7919      2.0116      2.3652      3.1253      2.1313      1.6364
 16      0.0000      0.2568      0.4159      0.1832      0.3108      0.2427      0.2262      0.3594      0.1947
 17      0.0000      0.0566      0.0578      0.0000      0.0379      0.0987      0.0322      0.0000      0.2613
 18      0.0000      0.0365      0.0000      0.0000      0.0000      0.0000      0.0000      0.0000      0.0000
 19      1.1016      0.3555      0.4870      0.3829      0.3520      0.7250      0.5141      0.3318      0.2917
 20      0.0000      0.0116      0.0000      0.0000      0.0000      0.0000      0.0000      0.0000      0.0038
 21      0.0000      0.0203      0.0000      0.0000      0.0000      0.0000      0.0000      0.0000      0.0000
 22      0.0000      0.0150      0.0450      0.0000      0.0000      0.0000      0.0000      0.0000      0.0000
 23      0.0000      0.0200      0.0000      0.0000      0.0000      0.0000      0.0000      0.0000      0.0000
 24      0.0000      0.0296      0.0000      0.0000      0.0000      0.0000      0.0000      0.0000      0.0431
 25      0.0000      0.0462      0.1367      0.0269      0.0000      0.0673      0.0000      0.0000      0.0000
 26      0.0000      0.0621      0.0244      0.0000      0.0000      0.0543      0.0000      0.0471      0.0000
 27      0.0000      0.1203      0.0000      0.2999      0.0000      0.0000      0.0801      0.0260      0.0131
 28      0.7480      0.2518      0.3205      0.0000      0.9927      0.3218      0.1696      0.4699      0.4524
 29     35.6952     35.6610     36.2030     35.7154     35.5147     35.8006     35.6129     35.6002     35.9803
 30     21.5372     21.1362     20.4749     21.1726     21.0119     21.1964     21.6603     21.3327     20.9974
 31      0.0000      0.0511      0.0990      0.0000      0.0703      0.0632      0.0000      0.0000      0.0000
 32      0.0000      0.0350      0.0383      0.1013      0.0000      0.0000      0.0000      0.0284      0.0000
 33      0.0000      0.0240      0.0000      0.0000      0.0000      0.2266      0.1373      0.0151      0.0000
 34      0.0000      0.1023      0.0000      0.0000      0.1012      0.0855      0.2140      0.1046      0.1115
 35      0.0000      0.0353      0.0080      0.0000      0.0000      0.0000      0.0200      0.0330      0.0000
 36      0.0000      0.0127      0.0034      0.0000      0.0000      0.0000      0.0000      0.0000      0.0000
 37      0.0000      0.0167      0.0000      0.0000      0.0000      0.0329      0.0142      0.0000      0.0000
 38      0.0000      0.0160      0.0000      0.0000      0.0000      0.1557      0.0000      0.1450      0.0000
 39      0.0000      0.0439      0.0211      0.0843      0.0000      0.0062      0.0000      0.0000      0.1387
 40      0.0000      0.0994      0.0000      0.0000      0.0570      0.0000      0.0216      0.0000      0.0000
 41      0.0000      0.0754      0.0000      0.0000      0.0000      0.0000      0.0000      0.0000      0.0000
 42      0.0000      0.1753      0.0746      0.3748      0.2259      0.1256      0.2114      0.0000      0.1231
 43      4.2610      5.5683      5.4324      4.8816      5.4740      5.3929      5.5592      5.5340      5.2523
 44      0.0000      0.0143      0.0035      0.0000      0.0000      0.0000      0.0000      0.0000      0.0000
 45      0.0000      0.0075      0.0000      0.0000      0.0000      0.0000      0.0000      0.0116      0.0000

# j      m_j: min, <> & last-chain-values for 1 ...  7 chains
  1  1.2127E-02  1.1320E-02  1.1207E-02  1.1513E-02  1.1736E-02  1.0924E-02  1.1182E-02  1.1716E-02  1.1561E-02
  2  6.1902E-03  6.2428E-03  6.2137E-03  6.3626E-03  6.4384E-03  6.1159E-03  6.2417E-03  6.3524E-03  6.4319E-03
  3  0.0000E+00  7.9640E-05  0.0000E+00  2.0039E-04  0.0000E+00  3.1936E-04  3.8382E-05  3.0047E-07  0.0000E+00
  4  1.6109E-02  1.7021E-02  1.7154E-02  1.7067E-02  1.6967E-02  1.6190E-02  1.7187E-02  1.6969E-02  1.6837E-02
  5  0.0000E+00  2.3280E-04  0.0000E+00  0.0000E+00  0.0000E+00  0.0000E+00  0.0000E+00  0.0000E+00  0.0000E+00
  6  0.0000E+00  1.2096E-04  0.0000E+00  0.0000E+00  0.0000E+00  0.0000E+00  0.0000E+00  6.2037E-05  7.4014E-04
  7  0.0000E+00  1.3425E-04  0.0000E+00  0.0000E+00  0.0000E+00  0.0000E+00  0.0000E+00  0.0000E+00  0.0000E+00
  8  0.0000E+00  4.7538E-04  4.4695E-04  3.3840E-03  1.6750E-04  0.0000E+00  0.0000E+00  0.0000E+00  0.0000E+00
  9  0.0000E+00  3.3632E-03  6.6451E-03  0.0000E+00  1.0662E-02  3.2563E-03  1.4280E-02  9.2968E-03  0.0000E+00
 10  6.7943E-02  7.6722E-03  2.0901E-02  1.0610E-02  1.8136E-02  1.8730E-02  1.8183E-02  2.3389E-02  2.1554E-02
 11  0.0000E+00  1.4082E-02  1.0363E-02  1.2394E-02  2.9933E-02  0.0000E+00  3.0493E-02  6.7895E-03  3.6213E-02
 12  0.0000E+00  3.8989E-02  0.0000E+00  4.1332E-02  0.0000E+00  4.4176E-02  1.4922E-02  3.6890E-03  0.0000E+00
 13  0.0000E+00  1.2775E-01  1.1737E-01  1.0439E-01  9.6114E-02  1.3548E-01  0.0000E+00  0.0000E+00  1.1841E-01
 14  5.2976E+00  9.6174E+00  8.9134E+00  8.6866E+00  9.2707E+00  9.2420E+00  8.4088E+00  9.5179E+00  9.7709E+00
 15  7.0235E+00  1.3709E+00  2.6800E+00  3.0771E+00  1.6379E+00  1.9165E+00  2.5246E+00  1.7251E+00  1.3294E+00
 16  0.0000E+00  4.0058E-04  6.4904E-04  2.8571E-04  4.8620E-04  3.7786E-04  3.5115E-04  5.5892E-04  3.0386E-04
 17  0.0000E+00  4.5934E-05  4.6903E-05  0.0000E+00  3.0818E-05  7.9887E-05  2.5960E-05  0.0000E+00  2.1204E-04
 18  0.0000E+00  3.2826E-05  0.0000E+00  0.0000E+00  0.0000E+00  0.0000E+00  0.0000E+00  0.0000E+00  0.0000E+00
 19  2.9385E-03  9.5470E-04  1.3084E-03  1.0279E-03  9.4813E-04  1.9435E-03  1.3737E-03  8.8851E-04  7.8394E-04
 20  0.0000E+00  6.9304E-05  0.0000E+00  0.0000E+00  0.0000E+00  0.0000E+00  0.0000E+00  0.0000E+00  2.2625E-05
 21  0.0000E+00  1.4547E-04  0.0000E+00  0.0000E+00  0.0000E+00  0.0000E+00  0.0000E+00  0.0000E+00  0.0000E+00
 22  0.0000E+00  1.7869E-04  5.3751E-04  0.0000E+00  0.0000E+00  0.0000E+00  0.0000E+00  0.0000E+00  0.0000E+00
 23  0.0000E+00  4.6859E-04  0.0000E+00  0.0000E+00  0.0000E+00  0.0000E+00  0.0000E+00  0.0000E+00  0.0000E+00
 24  0.0000E+00  1.5866E-03  0.0000E+00  0.0000E+00  0.0000E+00  0.0000E+00  0.0000E+00  0.0000E+00  2.3140E-03
 25  0.0000E+00  3.8110E-03  1.1290E-02  2.2162E-03  0.0000E+00  5.5441E-03  0.0000E+00  0.0000E+00  0.0000E+00
 26  0.0000E+00  9.6695E-03  3.8012E-03  0.0000E+00  0.0000E+00  8.4428E-03  0.0000E+00  7.3208E-03  0.0000E+00
 27  0.0000E+00  3.8027E-02  0.0000E+00  9.4783E-02  0.0000E+00  0.0000E+00  2.5185E-02  8.2096E-03  4.1385E-03
 28  4.7534E-01  1.6108E-01  2.0513E-01  0.0000E+00  6.3699E-01  2.0552E-01  1.0795E-01  2.9971E-01  2.8964E-01
 29  4.8019E+01  4.8303E+01  4.9055E+01  4.8352E+01  4.8244E+01  4.8396E+01  4.7994E+01  4.8073E+01  4.8766E+01
 30  3.4566E+01  3.4155E+01  3.3099E+01  3.4197E+01  3.4053E+01  3.4185E+01  3.4826E+01  3.4367E+01  3.3953E+01
 31  0.0000E+00  5.9794E-05  1.1590E-04  0.0000E+00  8.2464E-05  7.3762E-05  0.0000E+00  0.0000E+00  0.0000E+00
 32  0.0000E+00  2.1602E-05  2.3617E-05  6.2488E-05  0.0000E+00  0.0000E+00  0.0000E+00  1.7472E-05  0.0000E+00
 33  0.0000E+00  2.1946E-05  0.0000E+00  0.0000E+00  0.0000E+00  2.0699E-04  1.2501E-04  1.3744E-05  0.0000E+00
 34  0.0000E+00  3.0227E-04  0.0000E+00  0.0000E+00  2.9967E-04  2.5193E-04  6.2894E-04  3.0790E-04  3.2955E-04
 35  0.0000E+00  2.0551E-04  4.6934E-05  0.0000E+00  0.0000E+00  0.0000E+00  1.1624E-04  1.9167E-04  0.0000E+00
 36  0.0000E+00  9.3557E-05  2.5395E-05  0.0000E+00  0.0000E+00  0.0000E+00  0.0000E+00  0.0000E+00  0.0000E+00
 37  0.0000E+00  2.1421E-04  0.0000E+00  0.0000E+00  0.0000E+00  4.2088E-04  1.8093E-04  0.0000E+00  0.0000E+00
 38  0.0000E+00  4.6660E-04  0.0000E+00  0.0000E+00  0.0000E+00  4.5275E-03  0.0000E+00  4.2131E-03  0.0000E+00
 39  0.0000E+00  3.2383E-03  1.5537E-03  6.2091E-03  0.0000E+00  4.5241E-04  0.0000E+00  0.0000E+00  1.0230E-02
 40  0.0000E+00  1.2657E-02  0.0000E+00  0.0000E+00  7.2711E-03  0.0000E+00  2.7365E-03  0.0000E+00  0.0000E+00
 41  0.0000E+00  1.7478E-02  0.0000E+00  0.0000E+00  0.0000E+00  0.0000E+00  0.0000E+00  0.0000E+00  0.0000E+00
 42  0.0000E+00  8.0782E-02  3.4380E-02  1.7263E-01  1.0441E-01  5.7791E-02  9.6943E-02  0.0000E+00  5.6746E-02
 43  4.5129E+00  5.9379E+00  5.7951E+00  5.2029E+00  5.8542E+00  5.7395E+00  5.8983E+00  5.8833E+00  5.6044E+00
 44  0.0000E+00  3.4511E-02  8.3439E-03  0.0000E+00  0.0000E+00  0.0000E+00  0.0000E+00  0.0000E+00  0.0000E+00
 45  0.0000E+00  2.2006E-02  0.0000E+00  0.0000E+00  0.0000E+00  0.0000E+00  0.0000E+00  3.3739E-02  0.0000E+00

# AV, chi2 & Mass for <> & i_chain = 1 ...  7 solutions
AV       1.1209      1.1097      1.1147      1.1142      1.1162      1.1128      1.1117      1.1137      1.1148
chi2 2.4263E+00  2.4607E+00  2.4492E+00  2.4500E+00  2.4500E+00  2.4543E+00  2.4511E+00  2.4516E+00  2.4538E+00
Mass 8.7067E-10  8.5178E-10  8.5721E-10  8.5733E-10  8.5672E-10  8.5707E-10  8.5843E-10  8.5901E-10  8.5708E-10
   6.26                                  [v0_min (km/s) before EX0s...]
  60.93                                  [vd_min (km/s) before EX0s...]


## Synthetic spectrum (Best Model) ##l_obs f_obs f_syn wei
 3070    [Nl_obs]
 3359.00    0.00000   0.43704   -2.000
 3360.00    0.00000   0.41080   -2.000
 3361.00    0.19294   0.41138   -1.000
 3362.00    0.28834   0.43715   -1.000
 3363.00    0.27569   0.47304   -1.000
 3364.00    0.29677   0.49925   -1.000
 3365.00    0.31174   0.50287   -1.000
 3366.00    0.30632   0.48463   -1.000
 3367.00    0.30890   0.45837   -1.000
 3368.00    0.30454   0.43533   -1.000
 3369.00    0.30817   0.42219   -1.000
 3370.00    0.27804   0.41734   -1.000
 3371.00    0.26039   0.41678   -1.000
 3372.00    0.24927   0.42289   -1.000
 3373.00    0.27245   0.44078   -1.000
 3374.00    0.31184   0.46924   -1.000
 3375.00    0.31428   0.50060   -1.000
 3376.00    0.33075   0.52061   -1.000
 3377.00    0.33804   0.51727   -1.000
 3378.00    0.31181   0.49459   -1.000
 3379.00    0.30866   0.46945   -1.000
 3380.00    0.31278   0.45689   -1.000
 3381.00    0.31025   0.46332   -1.000
 3382.00    0.32576   0.48045   -1.000
 3383.00    0.33404   0.49772   -1.000
 3384.00    0.34323   0.51040   -1.000
 3385.00    0.34268   0.52032   -1.000
 3386.00    0.35963   0.52553   -1.000
 3387.00    0.36594   0.52550   -1.000
 3388.00    0.34337   0.52308   -1.000
 3389.00    0.35527   0.51993   -1.000
 3390.00    0.37520   0.51280   -1.000
 3391.00    0.36327   0.49825   -1.000
 3392.00    0.35157   0.48310   -1.000
 3393.00    0.35561   0.47906   -1.000
 3394.00    0.36963   0.49066   -1.000
 3395.00    0.37746   0.51272   -1.000
 3396.00    0.39294   0.53373   -1.000
 3397.00    0.41787   0.55105   -1.000
 3398.00    0.43186   0.56364   -1.000
 3399.00    0.44602   0.56813   -1.000
 3400.00    0.45125   0.56500   -1.000
 3401.00    0.46269   0.55556   -1.000
 3402.00    0.46741   0.54107   -1.000
 3403.00    0.45382   0.52740   -1.000
 3404.00    0.45693   0.51740   -1.000
 3405.00    0.44401   0.50919   -1.000
 3406.00    0.41599   0.50078   -1.000
 3407.00    0.41331   0.49424   -1.000
 3408.00    0.42619   0.49404   -1.000
 3409.00    0.42162   0.50063   -1.000
 3410.00    0.40120   0.50893   -1.000
 3411.00    0.40545   0.50761   -1.000
 3412.00    0.41271   0.49352   -1.000
 3413.00    0.40521   0.47518   -1.000
 3414.00    0.42063   0.46427   70.458
 3415.00    0.41589   0.46984   -1.000
 3416.00    0.40321   0.48870   -1.000
 3417.00    0.41897   0.51376   -1.000
 3418.00    0.44814   0.53724   -1.000
 3419.00    0.47196   0.55578   -1.000
 3420.00    0.47119   0.56336   -1.000
 3421.00    0.46338   0.55629   -1.000
 3422.00    0.45989   0.53887   -1.000
 3423.00    0.46824   0.52521   -1.000
 3424.00    0.47458   0.52085   62.165
 3425.00    0.47890   0.52281   63.721
 3426.00    0.47277   0.52814   -1.000
 3427.00    0.46946   0.53797   -1.000
 3428.00    0.46077   0.55538   -1.000
 3429.00    0.47955   0.57357   -1.000
 3430.00    0.50064   0.57572   -1.000
 3431.00    0.49046   0.55999   -1.000
 3432.00    0.49036   0.53761   -1.000
 3433.00    0.48847   0.52481   -1.000
 3434.00    0.50022   0.52757   87.434
 3435.00    0.51155   0.53464   60.335
 3436.00    0.49155   0.53422   -1.000
 3437.00    0.47201   0.52126   -1.000
 3438.00    0.45234   0.49600   -1.000
 3439.00    0.44299   0.46195   62.020
 3440.00    0.41868   0.42881   65.480
 3441.00    0.39204   0.40632   70.258
 3442.00    0.40490   0.40278   74.054
 3443.00    0.41609   0.41454   75.130
 3444.00    0.39288   0.43179   74.948
 3445.00    0.40122   0.44890   -1.000
 3446.00    0.42691   0.46785   69.198
 3447.00    0.44541   0.49004   65.376
 3448.00    0.47845   0.51518   62.658
 3449.00    0.50937   0.53560   -1.000
 3450.00    0.50891   0.54024   -1.000
 3451.00    0.50755   0.52883   -1.000
 3452.00    0.49105   0.51469   -1.000
 3453.00    0.48188   0.51005   -1.000
 3454.00    0.48266   0.51753   -1.000
 3455.00    0.51227   0.52562   -1.000
 3456.00    0.51832   0.52224  506.816
 3457.00    0.49963   0.50599  506.816
 3458.00    0.48340   0.48349  506.816
 3459.00    0.48393   0.46577   -1.000
 3460.00    0.46395   0.45653   88.151
 3461.00    0.45978   0.45980   60.888
 3462.00    0.49159   0.47749   60.907
 3463.00    0.50627   0.50024  144.566
 3464.00    0.50359   0.51016  506.816
 3465.00    0.52615   0.50849   -1.000
 3466.00    0.53272   0.50688   -1.000
 3467.00    0.51636   0.51349  506.816
 3468.00    0.53898   0.52812   -1.000
 3469.00    0.54771   0.54172   -1.000
 3470.00    0.53708   0.54652   -1.000
 3471.00    0.53585   0.53738  506.816
 3472.00    0.52671   0.51609   -1.000
 3473.00    0.49582   0.48798   -1.000
 3474.00    0.47479   0.46109   -1.000
 3475.00    0.46358   0.44364   -1.000
 3476.00    0.44871   0.44492   89.583
 3477.00    0.45267   0.46269   62.322
 3478.00    0.46849   0.48670   62.248
 3479.00    0.48030   0.50619   -1.000
 3480.00    0.48887   0.51593   -1.000
 3481.00    0.52453   0.51487   -1.000
 3482.00    0.54101   0.50530   -1.000
 3483.00    0.52866   0.49492   -1.000
 3484.00    0.54489   0.49454   -1.000
 3485.00    0.55406   0.50887   -1.000
 3486.00    0.53121   0.52790  506.816
 3487.00    0.52456   0.53623   -1.000
 3488.00    0.53284   0.52385   -1.000
 3489.00    0.51536   0.49738   -1.000
 3490.00    0.49375   0.47367   -1.000
 3491.00    0.50809   0.46605   -1.000
 3492.00    0.49620   0.47439   -1.000
 3493.00    0.47080   0.48767   -1.000
 3494.00    0.48033   0.49510   -1.000
 3495.00    0.52149   0.49121   -1.000
 3496.00    0.52678   0.48419   -1.000
 3497.00    0.49941   0.48866   -1.000
 3498.00    0.50253   0.51076  506.816
 3499.00    0.53026   0.53822   -1.000
 3500.00    0.54963   0.55439  506.816
 3501.00    0.58228   0.56279   -1.000
 3502.00    0.59722   0.57121   -1.000
 3503.00    0.58502   0.57641   -1.000
 3504.00    0.57602   0.57225  468.692
 3505.00    0.56825   0.56034   -1.000
 3506.00    0.54717   0.54974  484.813
 3507.00    0.55728   0.54550   -1.000
 3508.00    0.56765   0.54166   -1.000
 3509.00    0.56039   0.53159   -1.000
 3510.00    0.55217   0.51813   -1.000
 3511.00    0.54947   0.50422   -1.000
 3512.00    0.51228   0.49063   -1.000
 3513.00    0.49665   0.47881   -1.000
 3514.00    0.49458   0.47722   -1.000
 3515.00    0.48819   0.49559  506.816
 3516.00    0.52443   0.52941  506.816
 3517.00    0.56277   0.56021  506.816
 3518.00    0.58260   0.57261   -1.000
 3519.00    0.57527   0.56178   -1.000
 3520.00    0.54694   0.53616   -1.000
 3521.00    0.53421   0.50655   -1.000
 3522.00    0.52423   0.48174   -1.000
 3523.00    0.50260   0.46031   -1.000
 3524.00    0.47759   0.44307   -1.000
 3525.00    0.46500   0.43848   91.189
 3526.00    0.46888   0.45290   61.675
 3527.00    0.47612   0.48307   62.249
 3528.00    0.49909   0.51822  139.514
 3529.00    0.52103   0.54283   -1.000
 3530.00    0.51299   0.55019   -1.000
 3531.00    0.51204   0.54533   -1.000
 3532.00    0.52880   0.54258   -1.000
 3533.00    0.53943   0.54902   -1.000
 3534.00    0.53486   0.56103   -1.000
 3535.00    0.54093   0.57047   -1.000
 3536.00    0.56544   0.57349   -1.000
 3537.00    0.57982   0.57674  485.311
 3538.00    0.56869   0.58433   -1.000
 3539.00    0.58565   0.58906  482.035
 3540.00    0.57464   0.58498   -1.000
 3541.00    0.54504   0.57595   -1.000
 3542.00    0.53823   0.57389   -1.000
 3543.00    0.53742   0.58213   -1.000
 3544.00    0.54586   0.59172   -1.000
 3545.00    0.56570   0.59436   -1.000
 3546.00    0.56584   0.58882   -1.000
 3547.00    0.53682   0.58247   -1.000
 3548.00    0.54904   0.58086   -1.000
 3549.00    0.56094   0.58202   -1.000
 3550.00    0.55884   0.58065   -1.000
 3551.00    0.54252   0.57244   -1.000
 3552.00    0.52039   0.55806   -1.000
 3553.00    0.52898   0.54395   -1.000
 3554.00    0.51929   0.53861   -1.000
 3555.00    0.50388   0.54255   -1.000
 3556.00    0.51315   0.54730   -1.000
 3557.00    0.50735   0.54699   -1.000
 3558.00    0.50494   0.54233   -1.000
 3559.00    0.50003   0.54136   -1.000
 3560.00    0.49252   0.54986   -1.000
 3561.00    0.51778   0.56345   -1.000
 3562.00    0.53226   0.56992   -1.000
 3563.00    0.52667   0.55458   -1.000
 3564.00    0.52270   0.51767   -1.000
 3565.00    0.48561   0.47843   -1.000
 3566.00    0.44700   0.45970   93.862
 3567.00    0.43495   0.45842   62.443
 3568.00    0.44051   0.45572   62.988
 3569.00    0.43600   0.44452   62.478
 3570.00    0.41441   0.43424   63.637
 3571.00    0.41514   0.43813   65.216
 3572.00    0.43831   0.45648   64.402
 3573.00    0.46188   0.47572   61.829
 3574.00    0.47159   0.48889  132.201
 3575.00    0.49481   0.49525  506.816
 3576.00    0.51095   0.49404   -1.000
 3577.00    0.50020   0.48268   -1.000
 3578.00    0.46354   0.46037   -1.000
 3579.00    0.42589   0.43014  506.816
 3580.00    0.40972   0.40349   97.911
 3581.00    0.39934   0.39001   65.933
 3582.00    0.38851   0.39163   70.227
 3583.00    0.38833   0.39827   72.013
 3584.00    0.39147   0.39906   72.361
 3585.00    0.38749   0.39382   73.581
 3586.00    0.37400   0.39181   75.794
 3587.00    0.38279   0.40097   77.437
 3588.00    0.39550   0.42207   75.427
 3589.00    0.41919   0.45304   71.461
 3590.00    0.45113   0.48586   67.870
 3591.00    0.47896   0.51088   62.838
 3592.00    0.50595   0.52115  129.285
 3593.00    0.50937   0.52375   -1.000
 3594.00    0.51179   0.53142   -1.000
 3595.00    0.52923   0.54929   -1.000
 3596.00    0.54228   0.57121   -1.000
 3597.00    0.55444   0.58793   -1.000
 3598.00    0.57088   0.60055   -1.000
 3599.00    0.58531   0.60976   -1.000
 3600.00    0.59905   0.60745   -1.000
 3601.00    0.60064   0.58796   -1.000
 3602.00    0.57193   0.55755   -1.000
 3603.00    0.53323   0.52734   -1.000
 3604.00    0.51125   0.50791  506.816
 3605.00    0.50973   0.50041   -1.000
 3606.00    0.51278   0.49587   -1.000
 3607.00    0.50069   0.48521   -1.000
 3608.00    0.47354   0.47034  506.816
 3609.00    0.46413   0.46425  506.816
 3610.00    0.47820   0.47569  506.816
 3611.00    0.49788   0.49890  506.816
 3612.00    0.51903   0.51910  506.816
 3613.00    0.52690   0.53455   -1.000
 3614.00    0.54734   0.54917  506.816
 3615.00    0.55770   0.55763  506.816
 3616.00    0.55099   0.54660  499.035
 3617.00    0.54479   0.51173   -1.000
 3618.00    0.51289   0.47175   -1.000
 3619.00    0.48491   0.45916   -1.000
 3620.00    0.48589   0.47980   95.631
 3621.00    0.51916   0.51878  125.765
 3622.00    0.55965   0.55538  506.816
 3623.00    0.57617   0.58085  496.442
 3624.00    0.58716   0.60264   -1.000
 3625.00    0.61120   0.63026   -1.000
 3626.00    0.64276   0.65899   -1.000
 3627.00    0.65425   0.67398   -1.000
 3628.00    0.64311   0.66087   -1.000
 3629.00    0.60863   0.61623   -1.000
 3630.00    0.56806   0.55530   -1.000
 3631.00    0.52329   0.51017   -1.000
 3632.00    0.49938   0.49623  506.816
 3633.00    0.50529   0.50952  506.816
 3634.00    0.52321   0.53292   -1.000
 3635.00    0.54678   0.55341  506.816
 3636.00    0.55738   0.56907   -1.000
 3637.00    0.57635   0.58843   -1.000
 3638.00    0.60126   0.61355   -1.000
 3639.00    0.62341   0.63555   -1.000
 3640.00    0.65374   0.64488  442.231
 3641.00    0.64770   0.63640   -1.000
 3642.00    0.61984   0.61463  442.127
 3643.00    0.58607   0.58958  455.585
 3644.00    0.56853   0.56684  476.449
 3645.00    0.55062   0.54697  495.546
 3646.00    0.52391   0.52780  506.444
 3647.00    0.52666   0.51153   -1.000
 3648.00    0.51672   0.50795   -1.000
 3649.00    0.51623   0.52200  506.816
 3650.00    0.55697   0.55200  506.816
 3651.00    0.59767   0.58887   -1.000
 3652.00    0.61902   0.62289  478.143
 3653.00    0.63342   0.64413   -1.000
 3654.00    0.66157   0.65508  442.285
 3655.00    0.67658   0.66392   -1.000
 3656.00    0.65772   0.67665   -1.000
 3657.00    0.66168   0.69262   -1.000
 3658.00    0.68947   0.70441   -1.000
 3659.00    0.69618   0.70914   -1.000
 3660.00    0.68626   0.70609   -1.000
 3661.00    0.68341   0.69483   -1.000
 3662.00    0.68202   0.67822  416.813
 3663.00    0.67097   0.66436  421.397
 3664.00    0.66449   0.65786  427.492
 3665.00    0.66906   0.65776   -1.000
 3666.00    0.65795   0.65712  430.777
 3667.00    0.63850   0.64892   -1.000
 3668.00    0.61676   0.63480   -1.000
 3669.00    0.60893   0.62562   -1.000
 3670.00    0.62730   0.63279   -1.000
 3671.00    0.65651   0.65248  452.168
 3672.00    0.67527   0.67052  440.840
 3673.00    0.66538   0.67865   -1.000
 3674.00    0.65359   0.67623   -1.000
 3675.00    0.65360   0.66407   -1.000
 3676.00    0.64637   0.64274  424.069
 3677.00    0.64060   0.61528   -1.000
 3678.00    0.60924   0.58816   -1.000
 3679.00    0.58703   0.57079   -1.000
 3680.00    0.58507   0.57067   -1.000
 3681.00    0.58360   0.58604  476.262
 3682.00    0.61084   0.60518  468.349
 3683.00    0.63021   0.61597   -1.000
 3684.00    0.61324   0.60919  447.179
 3685.00    0.58972   0.58443  451.651
 3686.00    0.56865   0.55435   -1.000
 3687.00    0.55396   0.54137   -1.000
 3688.00    0.58036   0.55630   -1.000
 3689.00    0.61808   0.59450   -1.000
 3690.00    0.64850   0.63852   -1.000
 3691.00    0.66975   0.66823  439.008
 3692.00    0.66448   0.67190   -1.000
 3693.00    0.65238   0.65826   -1.000
 3694.00    0.63755   0.64441   -1.000
 3695.00    0.63967   0.63830  432.027
 3696.00    0.65165   0.64278  433.430
 3697.00    0.65045   0.65901   -1.000
 3698.00    0.67392   0.68392   -1.000
 3699.00    0.70406   0.70576  415.371
 3700.00    0.71014   0.71349   -1.000
 3701.00    0.70653   0.69924  395.965
 3702.00    0.66843   0.66001  397.953
 3703.00    0.62763   0.60259   -1.000
 3704.00    0.59841   0.54716   -1.000
 3705.00    0.55741   0.50983   -1.000
 3706.00    0.54164   0.49848   -1.000
 3707.00    0.54310   0.50451   -1.000
 3708.00    0.54021   0.51795   -1.000
 3709.00    0.56248   0.53890   -1.000
 3710.00    0.60691   0.57032   -1.000
 3711.00    0.63015   0.60873   -1.000
 3712.00    0.64248   0.64932   -1.000
 3713.00    0.68184   0.68298  432.293
 3714.00    0.71170   0.69916   -1.000
 3715.00    0.71569   0.69473   -1.000
 3716.00    0.69903   0.67135   -1.000
 3717.00    0.65478   0.62856   -1.000
 3718.00    0.58337   0.56911   -1.000
 3719.00    0.52139   0.50312   -1.000
 3720.00    0.49118   0.44985   -1.000
 3721.00    0.47345   0.43263   -1.000
 3722.00    0.46894   0.45499  103.393
 3723.00    0.51332   0.50377  119.266
 3724.00    0.57004   0.55818   -1.000
 3725.00    0.61120   0.59399   -1.000
 3726.00    0.63161   0.60033   -1.000
 3727.00    0.62606   0.59269   -1.000
 3728.00    0.62233   0.59144   -1.000
 3729.00    0.61751   0.59434   -1.000
 3730.00    0.60946   0.58556   -1.000
 3731.00    0.59630   0.55262   -1.000
 3732.00    0.54511   0.49749   -1.000
 3733.00    0.47876   0.43962   -1.000
 3734.00    0.43345   0.39506   -1.000
 3735.00    0.40340   0.37723   63.871
 3736.00    0.40607   0.39144   68.758
 3737.00    0.44311   0.43330   67.953
 3738.00    0.50371   0.49147   62.817
 3739.00    0.55096   0.55165  115.045
 3740.00    0.57059   0.59218   -1.000
 3741.00    0.58104   0.60078   -1.000
 3742.00    0.57351   0.57967  448.869
 3743.00    0.55310   0.54297   -1.000
 3744.00    0.51786   0.50528   -1.000
 3745.00    0.49100   0.47736   -1.000
 3746.00    0.48104   0.45497   -1.000
 3747.00    0.45542   0.43087   -1.000
 3748.00    0.42898   0.40962  104.457
 3749.00    0.42682   0.40582   63.046
 3750.00    0.45624   0.43296   65.315
 3751.00    0.50925   0.48682  125.009
 3752.00    0.56667   0.54760   -1.000
 3753.00    0.62138   0.60244   -1.000
 3754.00    0.66660   0.64244   -1.000
 3755.00    0.68777   0.65095   -1.000
 3756.00    0.65594   0.62192   -1.000
 3757.00    0.58026   0.57107   -1.000
 3758.00    0.53469   0.52824   -1.000
 3759.00    0.53166   0.51635   -1.000
 3760.00    0.53887   0.52939   -1.000
 3761.00    0.55748   0.54720   -1.000
 3762.00    0.56625   0.55584   -1.000
 3763.00    0.55585   0.55632  469.465
 3764.00    0.55372   0.55417  463.049
 3765.00    0.56778   0.54896   -1.000
 3766.00    0.56745   0.54161   -1.000
 3767.00    0.56322   0.53861   -1.000
 3768.00    0.57395   0.54230   -1.000
 3769.00    0.59055   0.54921   -1.000
 3770.00    0.60783   0.55986   -1.000
 3771.00    0.62217   0.57900   -1.000
 3772.00    0.64193   0.60481   -1.000
 3773.00    0.66588   0.62852   -1.000
 3774.00    0.66362   0.64196   -1.000
 3775.00    0.65480   0.64820  417.454
 3776.00    0.65615   0.65458  416.653
 3777.00    0.65315   0.66458   -1.000
 3778.00    0.66080   0.67879   -1.000
 3779.00    0.67447   0.69469   -1.000
 3780.00    0.69329   0.70934   -1.000
 3781.00    0.71611   0.71995  389.562
 3782.00    0.73132   0.72558  383.984
 3783.00    0.72319   0.72380  381.598
 3784.00    0.69370   0.70746   -1.000
 3785.00    0.65374   0.67361   -1.000
 3786.00    0.61456   0.63164   -1.000
 3787.00    0.60097   0.59459   -1.000
 3788.00    0.58056   0.57219   -1.000
 3789.00    0.55290   0.56870   -1.000
 3790.00    0.55227   0.57816   -1.000
 3791.00    0.56530   0.58734   -1.000
 3792.00    0.57428   0.58443   -1.000
 3793.00    0.57045   0.56620  462.374
 3794.00    0.54996   0.54163   -1.000
 3795.00    0.52882   0.51771   -1.000
 3796.00    0.52153   0.49375   -1.000
 3797.00    0.51301   0.46962   -1.000
 3798.00    0.49354   0.45780   -1.000
 3799.00    0.50519   0.47465   -1.000
 3800.00    0.55791   0.51936   -1.000
 3801.00    0.59886   0.57286   -1.000
 3802.00    0.62438   0.61940  473.088
 3803.00    0.64499   0.64883  444.401
 3804.00    0.64629   0.65768   -1.000
 3805.00    0.62695   0.64799   -1.000
 3806.00    0.59335   0.63115   -1.000
 3807.00    0.56828   0.62400   -1.000
 3808.00    0.57421   0.63521   -1.000
 3809.00    0.60266   0.65570   -1.000
 3810.00    0.62328   0.66758   -1.000
 3811.00    0.61701   0.65780   -1.000
 3812.00    0.60309   0.62562   -1.000
 3813.00    0.58213   0.58354  441.495
 3814.00    0.53398   0.54568   -1.000
 3815.00    0.49209   0.52549   -1.000
 3816.00    0.49314   0.52501   -1.000
 3817.00    0.50665   0.53032   -1.000
 3818.00    0.50093   0.52292   -1.000
 3819.00    0.47222   0.50056   -1.000
 3820.00    0.44080   0.48189   -1.000
 3821.00    0.44288   0.48189   -1.000
 3822.00    0.46255   0.49348   -1.000
 3823.00    0.46843   0.49361   -1.000
 3824.00    0.45848   0.47389   -1.000
 3825.00    0.42602   0.45007   -1.000
 3826.00    0.39490   0.43652   -1.000
 3827.00    0.39811   0.43627   63.714
 3828.00    0.40375   0.44417   64.080
 3829.00    0.41492   0.45159   63.254
 3830.00    0.42458   0.45013   62.216
 3831.00    0.41892   0.43632   62.114
 3832.00    0.40252   0.41404   63.957
 3833.00    0.38981   0.39292   68.019
 3834.00    0.39831   0.38236   71.812
 3835.00    0.40996   0.38374   72.091
 3836.00    0.41941   0.39134   69.837
 3837.00    0.41685   0.39707   67.662
 3838.00    0.40497   0.40038   67.684
 3839.00    0.39827   0.40939   69.270
 3840.00    0.41612   0.43287   69.448
 3841.00    0.44522   0.47228   66.731
 3842.00    0.48596   0.51741   -1.000
 3843.00    0.52786   0.55650   -1.000
 3844.00    0.53948   0.58063   -1.000
 3845.00    0.54520   0.59182   -1.000
 3846.00    0.53210   0.59715   -1.000
 3847.00    0.52446   0.59720   -1.000
 3848.00    0.53315   0.58888   -1.000
 3849.00    0.51357   0.57680   -1.000
 3850.00    0.50112   0.57207   -1.000
 3851.00    0.51660   0.57936   -1.000
 3852.00    0.53038   0.58885   -1.000
 3853.00    0.52514   0.58855   -1.000
 3854.00    0.50685   0.57584   -1.000
 3855.00    0.49781   0.55740   -1.000
 3856.00    0.49406   0.53891   -1.000
 3857.00    0.48161   0.51910   -1.000
 3858.00    0.45927   0.49864   -1.000
 3859.00    0.43357   0.48875   -1.000
 3860.00    0.43254   0.50051   -1.000
 3861.00    0.45816   0.53302   -1.000
 3862.00    0.50336   0.56929   -1.000
 3863.00    0.54798   0.59053   -1.000
 3864.00    0.56518   0.59226   -1.000
 3865.00    0.55059   0.58496   -1.000
 3866.00    0.53954   0.57957   -1.000
 3867.00    0.52986   0.57729   -1.000
 3868.00    0.50496   0.57222   -1.000
 3869.00    0.48417   0.55860   -1.000
 3870.00    0.46044   0.53748   -1.000
 3871.00    0.44842   0.52101   -1.000
 3872.00    0.46387   0.52197   -1.000
 3873.00    0.49785   0.54460   -1.000
 3874.00    0.54256   0.57734   -1.000
 3875.00    0.56844   0.59862   -1.000
 3876.00    0.55626   0.59193   -1.000
 3877.00    0.52627   0.56603   -1.000
 3878.00    0.49448   0.54479   -1.000
 3879.00    0.48348   0.53832   -1.000
 3880.00    0.49163   0.54119   -1.000
 3881.00    0.49573   0.54505   -1.000
 3882.00    0.50468   0.54977   -1.000
 3883.00    0.54041   0.55706   -1.000
 3884.00    0.57341   0.55526   -1.000
 3885.00    0.56817   0.53276   -1.000
 3886.00    0.54403   0.49823   -1.000
 3887.00    0.52784   0.47143   -1.000
 3888.00    0.54028   0.46856   -1.000
 3889.00    0.56773   0.49465   -1.000
 3890.00    0.60711   0.54234   -1.000
 3891.00    0.66625   0.59512   -1.000
 3892.00    0.70209   0.63468   -1.000
 3893.00    0.69966   0.65004   -1.000
 3894.00    0.68978   0.64885   -1.000
 3895.00    0.68612   0.64749   -1.000
 3896.00    0.68875   0.65260   -1.000
 3897.00    0.69714   0.65878   -1.000
 3898.00    0.69811   0.65865   -1.000
 3899.00    0.69404   0.65510   -1.000
 3900.00    0.69039   0.65656   -1.000
 3901.00    0.69611   0.66083   -1.000
 3902.00    0.69523   0.65885   -1.000
 3903.00    0.67992   0.64743   -1.000
 3904.00    0.66014   0.63207   -1.000
 3905.00    0.64268   0.62502   -1.000
 3906.00    0.64585   0.63516   -1.000
 3907.00    0.68042   0.66340   -1.000
 3908.00    0.71667   0.69922   -1.000
 3909.00    0.73879   0.72845   -1.000
 3910.00    0.75627   0.74536   -1.000
 3911.00    0.77339   0.75410   -1.000
 3912.00    0.77833   0.75704   -1.000
 3913.00    0.76436   0.75357   -1.000
 3914.00    0.76206   0.74476   -1.000
 3915.00    0.75887   0.73331   -1.000
 3916.00    0.73979   0.72047   -1.000
 3917.00    0.71500   0.70472   -1.000
 3918.00    0.69302   0.68208   -1.000
 3919.00    0.65148   0.65307  400.612
 3920.00    0.61304   0.62613   -1.000
 3921.00    0.60380   0.61019  434.575
 3922.00    0.60939   0.60952  449.786
 3923.00    0.61603   0.61705  452.426
 3924.00    0.61359   0.61944  446.060
 3925.00    0.59608   0.60692  443.359
 3926.00    0.55701   0.57674   -1.000
 3927.00    0.50713   0.53546   -1.000
 3928.00    0.46105   0.49075   -1.000
 3929.00    0.39987   0.44918   -1.000
 3930.00    0.34078   0.41117   -1.000
 3931.00    0.29644   0.37434   -1.000
 3932.00    0.27382   0.34081   -1.000
 3933.00    0.25743   0.31869   -1.000
 3934.00    0.23936   0.32010   -1.000
 3935.00    0.24592   0.34717   -1.000
 3936.00    0.29491   0.38982   -1.000
 3937.00    0.36552   0.43814   -1.000
 3938.00    0.43090   0.48701   -1.000
 3939.00    0.48103   0.52925   71.516
 3940.00    0.50968   0.56025   -1.000
 3941.00    0.51930   0.57642   -1.000
 3942.00    0.52512   0.57961   -1.000
 3943.00    0.53404   0.58016   -1.000
 3944.00    0.55540   0.59161   -1.000
 3945.00    0.60164   0.61705   -1.000
 3946.00    0.64930   0.64549   -1.000
 3947.00    0.66684   0.66719  428.475
 3948.00    0.67967   0.68353  413.290
 3949.00    0.70731   0.70095   -1.000
 3950.00    0.73443   0.71726   -1.000
 3951.00    0.74697   0.72380   -1.000
 3952.00    0.74277   0.72505   -1.000
 3953.00    0.74875   0.73012   -1.000
 3954.00    0.76361   0.73569   -1.000
 3955.00    0.76102   0.73292   -1.000
 3956.00    0.74691   0.72193   -1.000
 3957.00    0.72889   0.71219   -1.000
 3958.00    0.72075   0.70518   -1.000
 3959.00    0.71250   0.68474   -1.000
 3960.00    0.66479   0.63995   -1.000
 3961.00    0.59124   0.58484   -1.000
 3962.00    0.52443   0.53791   -1.000
 3963.00    0.48873   0.50683   -1.000
 3964.00    0.47057   0.48020  506.816
 3965.00    0.43114   0.44210  123.103
 3966.00    0.37471   0.39088   67.298
 3967.00    0.31666   0.33805   80.673
 3968.00    0.28008   0.30280   99.255
 3969.00    0.28869   0.29776  116.327
 3970.00    0.32345   0.32362  118.676
 3971.00    0.37889   0.37186  103.823
 3972.00    0.44127   0.43166   85.368
 3973.00    0.50213   0.49349   70.775
 3974.00    0.56207   0.55392  106.429
 3975.00    0.61159   0.60974  506.816
 3976.00    0.67566   0.66022   -1.000
 3977.00    0.74232   0.70712   -1.000
 3978.00    0.78467   0.74995   -1.000
 3979.00    0.82333   0.78533   -1.000
 3980.00    0.85135   0.80448   -1.000
 3981.00    0.84852   0.80649   -1.000
 3982.00    0.83627   0.80017   -1.000
 3983.00    0.83712   0.79826   -1.000
 3984.00    0.84040   0.80695   -1.000
 3985.00    0.84578   0.82270   -1.000
 3986.00    0.86983   0.84150   -1.000
 3987.00    0.89173   0.85999   -1.000
 3988.00    0.89978   0.87254   -1.000
 3989.00    0.90348   0.87724   -1.000
 3990.00    0.89249   0.88025   -1.000
 3991.00    0.90420   0.88818   -1.000
 3992.00    0.94215   0.89980   -1.000
 3993.00    0.94820   0.90620   -1.000
 3994.00    0.93304   0.90018   -1.000
 3995.00    0.91807   0.88387   -1.000
 3996.00    0.88387   0.86701   -1.000
 3997.00    0.86793   0.86295  323.767
 3998.00    0.89458   0.87757   -1.000
 3999.00    0.93648   0.90471   -1.000
 4000.00    0.97397   0.93201   -1.000
 4001.00    0.98083   0.95079   -1.000
 4002.00    0.99039   0.95329   -1.000
 4003.00    0.99391   0.93221   -1.000
 4004.00    0.94518   0.89119   -1.000
 4005.00    0.88747   0.85464   -1.000
 4006.00    0.87158   0.84892   -1.000
 4007.00    0.90352   0.87651   -1.000
 4008.00    0.94813   0.91631   -1.000
 4009.00    0.98220   0.94541   -1.000
 4010.00    0.99677   0.95996   -1.000
 4011.00    1.00155   0.96686   -1.000
 4012.00    1.00491   0.97155   -1.000
 4013.00    0.99537   0.97721   -1.000
 4014.00    0.99824   0.98362  291.229
 4015.00    1.03514   0.98673   -1.000
 4016.00    1.02304   0.98517   -1.000
 4017.00    0.99583   0.98486  286.760
 4018.00    0.99817   0.99107  289.846
 4019.00    1.00393   1.00013  291.250
 4020.00    1.01773   1.00475  288.355
 4021.00    1.02017   1.00098   -1.000
 4022.00    1.01419   0.99147   -1.000
 4023.00    0.99710   0.98005   -1.000
 4024.00    0.98612   0.97154  293.380
 4025.00    1.00632   0.97430   -1.000
 4026.00    1.03660   0.99218   -1.000
 4027.00    1.07448   1.01285   -1.000
 4028.00    1.08512   1.01230   -1.000
 4029.00    1.04287   0.97697   -1.000
 4030.00    0.96955   0.91862   -1.000
 4031.00    0.91329   0.86592   -1.000
 4032.00    0.88242   0.83661   -1.000
 4033.00    0.88321   0.83529   -1.000
 4034.00    0.91277   0.86220   -1.000
 4035.00    0.97494   0.91288   -1.000
 4036.00    1.02327   0.97317   -1.000
 4037.00    1.05630   1.02455   -1.000
 4038.00    1.07621   1.04800   -1.000
 4039.00    1.07438   1.04255   -1.000
 4040.00    1.07073   1.02614   -1.000
 4041.00    1.05023   1.01109   -1.000
 4042.00    1.02976   0.98545   -1.000
 4043.00    0.98938   0.93105   -1.000
 4044.00    0.89826   0.85435   -1.000
 4045.00    0.81856   0.79544   -1.000
 4046.00    0.81611   0.79704   -1.000
 4047.00    0.89733   0.85721   -1.000
 4048.00    0.98901   0.93423   -1.000
 4049.00    1.04077   0.99472   -1.000
 4050.00    1.06210   1.02521   -1.000
 4051.00    1.06660   1.02842   -1.000
 4052.00    1.05044   1.01330   -1.000
 4053.00    1.02262   0.99008   -1.000
 4054.00    1.00000   0.96770   -1.000
 4055.00    0.97931   0.94906   -1.000
 4056.00    0.96198   0.93235   -1.000
 4057.00    0.95676   0.92185   -1.000
 4058.00    0.96586   0.92795   -1.000
 4059.00    0.98520   0.94803   -1.000
 4060.00    0.99515   0.95880   -1.000
 4061.00    0.98439   0.93646   -1.000
 4062.00    0.94525   0.88546   -1.000
 4063.00    0.89400   0.84014   -1.000
 4064.00    0.87767   0.82640   -1.000
 4065.00    0.90753   0.84405   -1.000
 4066.00    0.95052   0.87881   -1.000
 4067.00    0.98745   0.91512   -1.000
 4068.00    1.01690   0.94161   -1.000
 4069.00    1.02228   0.94624   -1.000
 4070.00    1.00096   0.92321   -1.000
 4071.00    0.97071   0.89256   -1.000
 4072.00    0.96346   0.88591   -1.000
 4073.00    0.98497   0.90530   -1.000
 4074.00    0.99508   0.92109   -1.000
 4075.00    0.97218   0.90591   -1.000
 4076.00    0.92468   0.86904   -1.000
 4077.00    0.88170   0.84693   -1.000
 4078.00    0.88850   0.86401   -1.000
 4079.00    0.95201   0.91648   -1.000
 4080.00    1.02017   0.97579   -1.000
 4081.00    1.06334   1.01264   -1.000
 4082.00    1.07301   1.01442   -1.000
 4083.00    1.04088   0.99392   -1.000
 4084.00    1.01218   0.97740   -1.000
 4085.00    1.01664   0.98400   -1.000
 4086.00    1.05453   1.01415   -1.000
 4087.00    1.09281   1.05183   -1.000
 4088.00    1.11954   1.07935   -1.000
 4089.00    1.13228   1.08471   -1.000
 4090.00    1.12962   1.07018   -1.000
 4091.00    1.11489   1.04995   -1.000
 4092.00    1.09395   1.03524   -1.000
 4093.00    1.08498   1.02145   -1.000
 4094.00    1.07883   0.99865   -1.000
 4095.00    1.04417   0.96479   -1.000
 4096.00    0.99337   0.92934   -1.000
 4097.00    0.97291   0.90143   -1.000
 4098.00    0.96155   0.87457   -1.000
 4099.00    0.93093   0.83584   -1.000
 4100.00    0.88760   0.78695   -1.000
 4101.00    0.84435   0.75130   -1.000
 4102.00    0.82844   0.75394   -1.000
 4103.00    0.86907   0.79853   -1.000
 4104.00    0.93508   0.86323   -1.000
 4105.00    0.99585   0.92323   -1.000
 4106.00    1.04354   0.96374   -1.000
 4107.00    1.05037   0.98312   -1.000
 4108.00    1.03370   0.98511   -1.000
 4109.00    1.00700   0.97622   -1.000
 4110.00    0.99362   0.96734   -1.000
 4111.00    0.99482   0.96819   -1.000
 4112.00    1.00478   0.98103   -1.000
 4113.00    1.03172   1.00219   -1.000
 4114.00    1.06864   1.02458   -1.000
 4115.00    1.08345   1.03885   -1.000
 4116.00    1.06406   1.03692   -1.000
 4117.00    1.02525   1.01935  283.697
 4118.00    1.00606   0.99695  287.065
 4119.00    0.99476   0.98308  294.763
 4120.00    1.01296   0.98303   -1.000
 4121.00    1.03484   0.99026   -1.000
 4122.00    1.02779   0.99767   -1.000
 4123.00    1.01947   1.00577  297.250
 4124.00    1.04316   1.01598   -1.000
 4125.00    1.06256   1.02258   -1.000
 4126.00    1.04462   1.01809   -1.000
 4127.00    1.03033   1.00408   -1.000
 4128.00    1.02538   0.98896   -1.000
 4129.00    1.00266   0.97410   -1.000
 4130.00    0.98520   0.95282   -1.000
 4131.00    0.96488   0.92442   -1.000
 4132.00    0.92009   0.90083   -1.000
 4133.00    0.90488   0.90118  319.998
 4134.00    0.93967   0.93086  326.441
 4135.00    0.98809   0.97541   -1.000
 4136.00    1.03940   1.01721   -1.000
 4137.00    1.06444   1.04631   -1.000
 4138.00    1.06007   1.06173  288.054
 4139.00    1.06373   1.06388  283.565
 4140.00    1.05137   1.04439  280.448
 4141.00    1.00661   0.99631  282.105
 4142.00    0.94132   0.93351  291.570
 4143.00    0.88196   0.88964   -1.000
 4144.00    0.87368   0.88893   -1.000
 4145.00    0.93683   0.92574   -1.000
 4146.00    0.99683   0.97038   -1.000
 4147.00    1.02568   0.99460   -1.000
 4148.00    1.01727   0.99464   -1.000
 4149.00    0.99553   0.98453  298.515
 4150.00    0.97890   0.97729  305.471
 4151.00    0.96096   0.97403   -1.000
 4152.00    0.96101   0.96935   -1.000
 4153.00    0.96250   0.96065  311.385
 4154.00    0.96002   0.95164  311.439
 4155.00    0.94718   0.95004  315.342
 4156.00    0.93962   0.96084   -1.000
 4157.00    0.96292   0.98248   -1.000
 4158.00    1.12026   1.01051   -1.000
 4159.00    1.33233   1.03758   -1.000
 4160.00    1.11072   1.05765   -1.000
 4161.00    0.74552   1.07231   -1.000
 4162.00    0.94805   1.08269   -1.000
 4163.00    1.10764   1.08533   -1.000
 4164.00    1.05084   1.07590   -1.000
 4165.00    1.02546   1.05452   -1.000
 4166.00    1.00108   1.02979   -1.000
 4167.00    0.98397   1.01577   -1.000
 4168.00    0.98963   1.01602   -1.000
 4169.00    1.00275   1.01882   -1.000
 4170.00    0.99741   1.00557   -1.000
 4171.00    0.96474   0.97127  302.476
 4172.00    0.92169   0.93433   -1.000
 4173.00    0.89697   0.91706   -1.000
 4174.00    0.89810   0.92590   -1.000
 4175.00    0.93542   0.94704   -1.000
 4176.00    0.95501   0.96340  326.258
 4177.00    0.94576   0.97367   -1.000
 4178.00    0.94090   0.98483   -1.000
 4179.00    0.95099   0.99545   -1.000
 4180.00    0.96837   0.99853   -1.000
 4181.00    0.97974   0.99450   -1.000
 4182.00    0.97762   0.99637   -1.000
 4183.00    0.99567   1.01266   -1.000
 4184.00    1.03103   1.03025  305.828
 4185.00    1.03788   1.03068  299.877
 4186.00    1.01588   1.01160  296.762
 4187.00    0.97865   0.99147   -1.000
 4188.00    0.95481   0.98943   -1.000
 4189.00    0.98332   1.00400   -1.000
 4190.00    1.00754   1.02233   -1.000
 4191.00    1.02053   1.03816   -1.000
 4192.00    1.03453   1.05185   -1.000
 4193.00    1.04018   1.05724   -1.000
 4194.00    1.03124   1.04196   -1.000
 4195.00    0.99208   1.00472   -1.000
 4196.00    0.95912   0.96222  304.336
 4197.00    0.92878   0.93027  318.444
 4198.00    0.92668   0.91430   -1.000
 4199.00    0.93006   0.91101   -1.000
 4200.00    0.93557   0.91555   -1.000
 4201.00    0.94148   0.92449   -1.000
 4202.00    0.94725   0.94006  321.620
 4203.00    0.97288   0.96662  320.423
 4204.00    0.99838   1.00232  317.181
 4205.00    1.01428   1.03876   -1.000
 4206.00    1.03627   1.06837   -1.000
 4207.00    1.05167   1.08741   -1.000
 4208.00    1.07573   1.09299   -1.000
 4209.00    1.09088   1.08875  291.577
 4210.00    1.07916   1.08476  291.243
 4211.00    1.06927   1.08605   -1.000
 4212.00    1.07663   1.08318  290.642
 4213.00    1.05335   1.06111   -1.000
 4214.00    1.00229   1.02399   -1.000
 4215.00    0.96268   0.99923   -1.000
 4216.00    0.98451   1.01157   -1.000
 4217.00    1.05729   1.05885  319.378
 4218.00    1.12220   1.11254  304.319
 4219.00    1.16260   1.14909   -1.000
 4220.00    1.18028   1.15789   -1.000
 4221.00    1.17439   1.13680   -1.000
 4222.00    1.13048   1.08574   -1.000
 4223.00    1.06147   1.00498   -1.000
 4224.00    0.96911   0.90337   -1.000
 4225.00    0.84911   0.81008   -1.000
 4226.00    0.75332   0.76152  348.395
 4227.00    0.75515   0.78476   -1.000
 4228.00    0.85968   0.87282   -1.000
 4229.00    1.00245   0.98067   -1.000
 4230.00    1.10273   1.05602   -1.000
 4231.00    1.12998   1.08303   -1.000
 4232.00    1.10475   1.07360   -1.000
 4233.00    1.08744   1.04755   -1.000
 4234.00    1.06346   1.02231   -1.000
 4235.00    1.04050   1.00772   -1.000
 4236.00    1.02499   1.00486   -1.000
 4237.00    1.03703   1.01374   -1.000
 4238.00    1.05135   1.03375   -1.000
 4239.00    1.06443   1.05980  303.536
 4240.00    1.08388   1.08667  297.283
 4241.00    1.12006   1.11271  292.603
 4242.00    1.13541   1.13799  287.517
 4243.00    1.15165   1.16433   -1.000
 4244.00    1.18680   1.18527  282.156
 4245.00    1.18642   1.18466  276.768
 4246.00    1.15564   1.15427  273.989
 4247.00    1.10525   1.10368  280.586
 4248.00    1.05789   1.05193  293.174
 4249.00    1.02627   1.01819  302.965
 4250.00    1.01216   1.01043  308.807
 4251.00    1.03588   1.02224   -1.000
 4252.00    1.06255   1.03378   -1.000
 4253.00    1.07509   1.03031   -1.000
 4254.00    1.05045   1.02241   -1.000
 4255.00    1.05092   1.03417   -1.000
 4256.00    1.09020   1.06514   -1.000
 4257.00    1.10954   1.08141   -1.000
 4258.00    1.08847   1.05861   -1.000
 4259.00    1.01947   1.01399  288.030
 4260.00    0.97627   0.98952   -1.000
 4261.00    0.99488   1.01426   -1.000
 4262.00    1.06552   1.08008   -1.000
 4263.00    1.14925   1.15260  300.514
 4264.00    1.19222   1.19931  283.099
 4265.00    1.19987   1.21255   -1.000
 4266.00    1.19262   1.19908  268.101
 4267.00    1.15934   1.16312  269.384
 4268.00    1.11843   1.10710  275.555
 4269.00    1.06320   1.03654   -1.000
 4270.00    0.99178   0.96217   -1.000
 4271.00    0.91939   0.90524   -1.000
 4272.00    0.88171   0.88113  328.524
 4273.00    0.88855   0.89102  342.984
 4274.00    0.92532   0.92738  342.010
 4275.00    0.98196   0.98383  333.637
 4276.00    1.05843   1.05197  322.872
 4277.00    1.12590   1.11250   -1.000
 4278.00    1.15191   1.13999   -1.000
 4279.00    1.12685   1.13064  279.049
 4280.00    1.08999   1.10665   -1.000
 4281.00    1.07398   1.09349   -1.000
 4282.00    1.08050   1.09527   -1.000
 4283.00    1.09647   1.09768  301.473
 4284.00    1.08224   1.09017  297.550
 4285.00    1.04426   1.07473   -1.000
 4286.00    1.01264   1.05624   -1.000
 4287.00    1.00162   1.03088   -1.000
 4288.00    0.98314   0.99307   -1.000
 4289.00    0.93343   0.95249   -1.000
 4290.00    0.91299   0.93590   -1.000
 4291.00    0.95158   0.95858  351.029
 4292.00    1.00819   1.00222  344.694
 4293.00    1.04410   1.03345   -1.000
 4294.00    1.05485   1.03867   -1.000
 4295.00    1.04873   1.02415   -1.000
 4296.00    1.03101   0.99480   -1.000
 4297.00    0.98132   0.94825   -1.000
 4298.00    0.90256   0.88907   -1.000
 4299.00    0.83305   0.83520  347.491
 4300.00    0.80068   0.80750  376.909
 4301.00    0.80584   0.80876  397.060
 4302.00    0.82226   0.82443  395.419
 4303.00    0.85161   0.83982   -1.000
 4304.00    0.86233   0.84718   -1.000
 4305.00    0.83963   0.83828  374.006
 4306.00    0.81357   0.80921   -1.000
 4307.00    0.78284   0.77329   -1.000
 4308.00    0.75922   0.75488   -1.000
 4309.00    0.76607   0.77015  410.942
 4310.00    0.79734   0.81624   -1.000
 4311.00    0.84676   0.87876   -1.000
 4312.00    0.91406   0.94520   -1.000
 4313.00    0.97754   1.01737   -1.000
 4314.00    1.05482   1.10155   -1.000
 4315.00    1.15677   1.19416   -1.000
 4316.00    1.26033   1.28027   -1.000
 4317.00    1.33054   1.33445  274.629
 4318.00    1.34950   1.34587  257.775
 4319.00    1.33029   1.32661  252.058
 4320.00    1.29351   1.29071  253.670
 4321.00    1.24835   1.23794  258.391
 4322.00    1.18558   1.16202   -1.000
 4323.00    1.09921   1.06571   -1.000
 4324.00    0.99339   0.97840   -1.000
 4325.00    0.93027   0.94439   -1.000
 4326.00    0.95391   0.98721   -1.000
 4327.00    1.07495   1.08798   -1.000
 4328.00    1.20503   1.19578  311.553
 4329.00    1.26695   1.26343  281.643
 4330.00    1.28197   1.28666  266.677
 4331.00    1.28130   1.29205   -1.000
 4332.00    1.29461   1.30227   -1.000
 4333.00    1.32167   1.31734  262.027
 4334.00    1.32898   1.32038  257.919
 4335.00    1.31962   1.29130   -1.000
 4336.00    1.25522   1.21923   -1.000
 4337.00    1.17100   1.11316   -1.000
 4338.00    1.07612   1.00510   -1.000
 4339.00    0.98683   0.93656   -1.000
 4340.00    0.95212   0.92824   -1.000
 4341.00    0.98374   0.97598  363.989
 4342.00    1.08394   1.05591   -1.000
 4343.00    1.17603   1.13476   -1.000
 4344.00    1.22533   1.19280   -1.000
 4345.00    1.25705   1.23436   -1.000
 4346.00    1.27002   1.26864  276.874
 4347.00    1.27842   1.29936   -1.000
 4348.00    1.31638   1.31868  266.400
 4349.00    1.32962   1.30560   -1.000
 4350.00    1.26183   1.25100  260.353
 4351.00    1.16618   1.18189   -1.000
 4352.00    1.10591   1.14225   -1.000
 4353.00    1.13730   1.15357   -1.000
 4354.00    1.18667   1.19969   -1.000
 4355.00    1.23280   1.24912   -1.000
 4356.00    1.26891   1.28011   -1.000
 4357.00    1.28698   1.28871  264.597
 4358.00    1.27584   1.28305   -1.000
 4359.00    1.25284   1.28027   -1.000
 4360.00    1.26548   1.29470   -1.000
 4361.00    1.30426   1.32353   -1.000
 4362.00    1.34012   1.35329   -1.000
 4363.00    1.35889   1.37581   -1.000
 4364.00    1.36648   1.38971   -1.000
 4365.00    1.36347   1.38705   -1.000
 4366.00    1.33206   1.35933   -1.000
 4367.00    1.28439   1.31782   -1.000
 4368.00    1.25524   1.28589   -1.000
 4369.00    1.26121   1.27237   -1.000
 4370.00    1.27061   1.26803  269.537
 4371.00    1.28050   1.25732   -1.000
 4372.00    1.25734   1.23056   -1.000
 4373.00    1.21317   1.19051   -1.000
 4374.00    1.16614   1.15408  271.824
 4375.00    1.14581   1.14647  283.315
 4376.00    1.19006   1.17815   -1.000
 4377.00    1.25869   1.22858   -1.000
 4378.00    1.30541   1.26249   -1.000
 4379.00    1.29549   1.25887   -1.000
 4380.00    1.25809   1.21113   -1.000
 4381.00    1.21102   1.12071   -1.000
 4382.00    1.09901   1.00923   -1.000
 4383.00    0.97201   0.92276   -1.000
 4384.00    0.92189   0.90533   -1.000
 4385.00    0.99072   0.96372   -1.000
 4386.00    1.09849   1.05557   -1.000
 4387.00    1.17701   1.12527   -1.000
 4388.00    1.20300   1.15280   -1.000
 4389.00    1.20914   1.15597   -1.000
 4390.00    1.19970   1.15921   -1.000
 4391.00    1.20410   1.17280   -1.000
 4392.00    1.21951   1.19098   -1.000
 4393.00    1.23859   1.20341   -1.000
 4394.00    1.22718   1.21253   -1.000
 4395.00    1.22246   1.23392   -1.000
 4396.00    1.28169   1.27167  277.761
 4397.00    1.33306   1.30313   -1.000
 4398.00    1.33941   1.30329   -1.000
 4399.00    1.29803   1.27577   -1.000
 4400.00    1.25100   1.24538  262.971
 4401.00    1.23334   1.22350  272.483
 4402.00    1.23863   1.19610   -1.000
 4403.00    1.21410   1.14655   -1.000
 4404.00    1.13586   1.08984   -1.000
 4405.00    1.09016   1.06314   -1.000
 4406.00    1.10780   1.08059   -1.000
 4407.00    1.15902   1.12428   -1.000
 4408.00    1.18220   1.17699  286.034
 4409.00    1.21700   1.23749   -1.000
 4410.00    1.30090   1.30453  277.667
 4411.00    1.37260   1.35498   -1.000
 4412.00    1.38993   1.35891   -1.000
 4413.00    1.36612   1.31468   -1.000
 4414.00    1.29475   1.25057   -1.000
 4415.00    1.21689   1.20540  258.174
 4416.00    1.20632   1.20949  271.957
 4417.00    1.25710   1.26175  278.097
 4418.00    1.31641   1.32996   -1.000
 4419.00    1.36628   1.37633   -1.000
 4420.00    1.38414   1.38217  253.024
 4421.00    1.34430   1.35428   -1.000
 4422.00    1.29727   1.31840   -1.000
 4423.00    1.28060   1.29918   -1.000
 4424.00    1.28310   1.30118   -1.000
 4425.00    1.28698   1.31096   -1.000
 4426.00    1.28332   1.31860   -1.000
 4427.00    1.28130   1.32532   -1.000
 4428.00    1.29180   1.32987   -1.000
 4429.00    1.29028   1.32787   -1.000
 4430.00    1.27553   1.32133   -1.000
 4431.00    1.26588   1.31608   -1.000
 4432.00    1.27210   1.30806   -1.000
 4433.00    1.25583   1.28366   -1.000
 4434.00    1.20919   1.24843   -1.000
 4435.00    1.18973   1.23442   -1.000
 4436.00    1.22491   1.26716   -1.000
 4437.00    1.30228   1.33580   -1.000
 4438.00    1.37661   1.39805   -1.000
 4439.00    1.41210   1.41857  249.105
 4440.00    1.38690   1.39094  241.660
 4441.00    1.31593   1.33814   -1.000
 4442.00    1.26649   1.29777   -1.000
 4443.00    1.25819   1.29980   -1.000
 4444.00    1.30518   1.34441   -1.000
 4445.00    1.37563   1.40148   -1.000
 4446.00    1.42642   1.44106   -1.000
 4447.00    1.43460   1.45538   -1.000
 4448.00    1.42821   1.45506   -1.000
 4449.00    1.41926   1.45027   -1.000
 4450.00    1.41095   1.44115   -1.000
 4451.00    1.41531   1.42350  251.330
 4452.00    1.40580   1.39174  252.557
 4453.00    1.35814   1.34159   -1.000
 4454.00    1.29958   1.28347   -1.000
 4455.00    1.25058   1.24308  265.925
 4456.00    1.23867   1.23269  276.514
 4457.00    1.26210   1.24057   -1.000
 4458.00    1.28632   1.24711   -1.000
 4459.00    1.26336   1.24426   -1.000
 4460.00    1.23582   1.24018  270.929
 4461.00    1.23404   1.24850   -1.000
 4462.00    1.26755   1.27713  275.614
 4463.00    1.31342   1.32005  275.843
 4464.00    1.36295   1.35923  268.445
 4465.00    1.38175   1.37972  258.774
 4466.00    1.38792   1.38047  254.466
 4467.00    1.38283   1.37050  254.530
 4468.00    1.35916   1.35950  255.460
 4469.00    1.33805   1.35643   -1.000
 4470.00    1.34273   1.37175   -1.000
 4471.00    1.38303   1.40768   -1.000
 4472.00    1.44193   1.45169   -1.000
 4473.00    1.47769   1.48918   -1.000
 4474.00    1.50114   1.51366   -1.000
 4475.00    1.50169   1.53054   -1.000
 4476.00    1.52202   1.54632   -1.000
 4477.00    1.55102   1.55182  234.794
 4478.00    1.54564   1.52884   -1.000
 4479.00    1.48735   1.47356  232.381
 4480.00    1.40129   1.40935   -1.000
 4481.00    1.35303   1.37363   -1.000
 4482.00    1.35013   1.38842   -1.000
 4483.00    1.40954   1.44434   -1.000
 4484.00    1.49298   1.51046   -1.000
 4485.00    1.55344   1.55697  244.033
 4486.00    1.55700   1.56492  235.954
 4487.00    1.53052   1.53234  232.527
 4488.00    1.48355   1.47922  234.439
 4489.00    1.42780   1.43957   -1.000
 4490.00    1.40599   1.43393   -1.000
 4491.00    1.43427   1.45364   -1.000
 4492.00    1.46846   1.46912  248.587
 4493.00    1.46217   1.45826  242.433
 4494.00    1.42438   1.42987  240.659
 4495.00    1.38027   1.41243   -1.000
 4496.00    1.39259   1.42596   -1.000
 4497.00    1.43603   1.46400   -1.000
 4498.00    1.47391   1.50307   -1.000
 4499.00    1.50842   1.52508   -1.000
 4500.00    1.50619   1.52990   -1.000
 4501.00    1.50141   1.53426   -1.000
 4502.00    1.51934   1.55434   -1.000
 4503.00    1.55884   1.59055   -1.000
 4504.00    1.59795   1.62873   -1.000
 4505.00    1.60715   1.64944   -1.000
 4506.00    1.59586   1.64507   -1.000
 4507.00    1.59429   1.62774   -1.000
 4508.00    1.60085   1.61515   -1.000
 4509.00    1.60776   1.61387  229.909
 4510.00    1.61303   1.61650  229.491
 4511.00    1.59502   1.61001   -1.000
 4512.00    1.57797   1.58873   -1.000
 4513.00    1.55041   1.56006   -1.000
 4514.00    1.52689   1.53668   -1.000
 4515.00    1.51765   1.52592  237.810
 4516.00    1.52493   1.52535  238.474
 4517.00    1.51687   1.52760   -1.000
 4518.00    1.50928   1.53209   -1.000
 4519.00    1.53569   1.54485  240.766
 4520.00    1.57009   1.56421  240.693
 4521.00    1.58772   1.57702  236.150
 4522.00    1.55868   1.57068   -1.000
 4523.00    1.51748   1.54497   -1.000
 4524.00    1.49412   1.50889   -1.000
 4525.00    1.46887   1.46691  244.745
 4526.00    1.41390   1.41755  247.185
 4527.00    1.35235   1.36620   -1.000
 4528.00    1.31546   1.32761   -1.000
 4529.00    1.32756   1.31529   -1.000
 4530.00    1.36434   1.33036   -1.000
 4531.00    1.39003   1.35890   -1.000
 4532.00    1.37965   1.38087  260.325
 4533.00    1.37048   1.38476   -1.000
 4534.00    1.34411   1.37832   -1.000
 4535.00    1.34096   1.38476   -1.000
 4536.00    1.39028   1.42197   -1.000
 4537.00    1.48807   1.48206  264.254
 4538.00    1.56190   1.53468   -1.000
 4539.00    1.56329   1.55435  235.773
 4540.00    1.54167   1.54333  231.866
 4541.00    1.52397   1.52571  235.340
 4542.00    1.52606   1.52044  239.783
 4543.00    1.53080   1.52470  238.857
 4544.00    1.50344   1.52515   -1.000
 4545.00    1.49615   1.51639   -1.000
 4546.00    1.47725   1.50427   -1.000
 4547.00    1.17142   1.49327   -1.000
 4548.00    0.20125   1.48127   -1.000
 4549.00   -0.00183   1.47038    0.000
 4550.00    0.31992   1.46978   -1.000
 4551.00    0.99227   1.48094   -1.000
 4552.00    0.52245   1.48982   -1.000
 4553.00    1.19669   1.48473   -1.000
 4554.00    1.51121   1.47352   -1.000
 4555.00    1.46335   1.47614   -1.000
 4556.00    1.49980   1.50557  253.536
 4557.00    1.55501   1.55512  248.118
 4558.00    1.60668   1.60333  238.566
 4559.00    1.63200   1.63387  230.187
 4560.00    1.62266   1.64558   -1.000
 4561.00    1.62505   1.64245   -1.000
 4562.00    1.60588   1.62445   -1.000
 4563.00    1.55554   1.59176   -1.000
 4564.00    1.51606   1.55577   -1.000
 4565.00    1.49299   1.53687   -1.000
 4566.00    1.51756   1.54877   -1.000
 4567.00    1.58710   1.58455  239.796
 4568.00    1.62249   1.61932  233.480
 4569.00    1.62502   1.62978  228.171
 4570.00    1.58954   1.61333   -1.000
 4571.00    1.54250   1.58728   -1.000
 4572.00    1.53663   1.57549   -1.000
 4573.00    1.57160   1.58917   -1.000
 4574.00    1.61524   1.61569  237.712
 4575.00    1.63533   1.63394  231.130
 4576.00    1.63725   1.63505  228.790
 4577.00    1.61634   1.62081  229.287
 4578.00    1.58133   1.59213  230.447
 4579.00    1.52875   1.55224   -1.000
 4580.00    1.47954   1.51483   -1.000
 4581.00    1.48565   1.49624  243.949
 4582.00    1.51069   1.49935  247.596
 4583.00    1.51943   1.51172  246.006
 4584.00    1.52225   1.51901  242.770
 4585.00    1.52726   1.51978  241.616
 4586.00    1.53361   1.52710  242.634
 4587.00    1.55711   1.55154  243.115
 4588.00    1.59368   1.58644  238.836
 4589.00    1.63049   1.61335   -1.000
 4590.00    1.61604   1.61774  228.809
 4591.00    1.58019   1.59935   -1.000
 4592.00    1.55925   1.57105  233.224
 4593.00    1.53341   1.54789   -1.000
 4594.00    1.52204   1.53569   -1.000
 4595.00    1.52415   1.53204  240.412
 4596.00    1.52560   1.53418  238.293
 4597.00    1.54782   1.54155  236.698
 4598.00    1.56757   1.55142   -1.000
 4599.00    1.56084   1.55824  235.655
 4600.00    1.54275   1.55919   -1.000
 4601.00    1.53307   1.55732   -1.000
 4602.00    1.54068   1.55696   -1.000
 4603.00    1.55637   1.55837  239.630
 4604.00    1.56448   1.56013  236.902
 4605.00    1.56197   1.56609  234.884
 4606.00    1.57532   1.58467  235.256
 4607.00    1.62622   1.61963  234.357
 4608.00    1.67534   1.66339   -1.000
 4609.00    1.69577   1.69832  226.498
 4610.00    1.68518   1.70817   -1.000
 4611.00    1.67991   1.69381   -1.000
 4612.00    1.64919   1.67140   -1.000
 4613.00    1.63720   1.65735   -1.000
 4614.00    1.64107   1.65801   -1.000
 4615.00    1.65590   1.66906  228.086
 4616.00    1.67940   1.68138  226.642
 4617.00    1.67450   1.68860   -1.000
 4618.00    1.66551   1.68997   -1.000
 4619.00    1.66590   1.68889   -1.000
 4620.00    1.67334   1.69056   -1.000
 4621.00    1.70216   1.69702  226.699
 4622.00    1.70007   1.70354  224.137
 4623.00    1.69562   1.70380  221.215
 4624.00    1.70526   1.69768  221.450
 4625.00    1.69302   1.68944  222.010
 4626.00    1.67657   1.68207  222.767
 4627.00    1.67267   1.67764  224.598
 4628.00    1.66824   1.67719  224.931
 4629.00    1.67066   1.68033  225.100
 4630.00    1.68008   1.68647  226.445
 4631.00    1.69693   1.69259  226.548
 4632.00    1.68754   1.69103  225.030
 4633.00    1.65516   1.67683   -1.000
 4634.00    1.62680   1.65625   -1.000
 4635.00    1.62332   1.63880   -1.000
 4636.00    1.60526   1.62434   -1.000
 4637.00    1.58762   1.60759   -1.000
 4638.00    1.58493   1.58970  232.163
 4639.00    1.57551   1.57866  234.887
 4640.00    1.59469   1.58160   -1.000
 4641.00    1.65343   1.59777   -1.000
 4642.00    1.68821   1.61608   -1.000
 4643.00    1.67687   1.62025   -1.000
 4644.00    1.65293   1.60089   -1.000
 4645.00    1.61707   1.56283   -1.000
 4646.00    1.56221   1.52031   -1.000
 4647.00    1.51762   1.49247   -1.000
 4648.00    1.52890   1.49490   -1.000
 4649.00    1.57628   1.52727   -1.000
 4650.00    1.61995   1.57349   -1.000
 4651.00    1.64392   1.61417   -1.000
 4652.00    1.65173   1.63717   -1.000
 4653.00    1.63912   1.63849  227.912
 4654.00    1.62713   1.62237  228.037
 4655.00    1.60382   1.60395  231.416
 4656.00    1.59073   1.60308  236.425
 4657.00    1.62100   1.63060  238.081
 4658.00    1.69523   1.68049   -1.000
 4659.00    1.77179   1.73110   -1.000
 4660.00    1.77866   1.75773   -1.000
 4661.00    1.74734   1.74960  214.751
 4662.00    1.70020   1.71470  215.306
 4663.00    1.66318   1.66896  218.623
 4664.00    1.64457   1.62247   -1.000
 4665.00    1.61738   1.57361   -1.000
 4666.00    1.56434   1.52006   -1.000
 4667.00    1.48051   1.47396  233.540
 4668.00    1.45472   1.45800  243.901
 4669.00    1.49077   1.48407  252.191
 4670.00    1.56921   1.53886   -1.000
 4671.00    1.64960   1.59380   -1.000
 4672.00    1.66074   1.62784   -1.000
 4673.00    1.65109   1.64023   -1.000
 4674.00    1.65971   1.64560   -1.000
 4675.00    1.66802   1.65556   -1.000
 4676.00    1.71145   1.66683   -1.000
 4677.00    1.70244   1.66590   -1.000
 4678.00    1.69035   1.64580   -1.000
 4679.00    1.65175   1.61427   -1.000
 4680.00    1.61067   1.58569   -1.000
 4681.00    1.59614   1.57110   -1.000
 4682.00    1.60548   1.57471   -1.000
 4683.00    1.63899   1.59312   -1.000
 4684.00    1.66629   1.61521   -1.000
 4685.00    1.67896   1.62929   -1.000
 4686.00    1.67230   1.63191   -1.000
 4687.00    1.66482   1.62717   -1.000
 4688.00    1.67191   1.62129   -1.000
 4689.00    1.67336   1.61779   -1.000
 4690.00    1.65308   1.61644   -1.000
 4691.00    1.64178   1.61610   -1.000
 4692.00    1.65202   1.61918   -1.000
 4693.00    1.69158   1.62962   -1.000
 4694.00    1.73041   1.64667   -1.000
 4695.00    1.75335   1.66330   -1.000
 4696.00    1.75609   1.66900   -1.000
 4697.00    1.72418   1.65519   -1.000
 4698.00    1.66417   1.62399   -1.000
 4699.00    1.61250   1.58911   -1.000
 4700.00    1.60288   1.56303   -1.000
 4701.00    1.61350   1.54751   -1.000
 4702.00    1.59720   1.54032   -1.000
 4703.00    1.58746   1.54359   -1.000
 4704.00    1.61919   1.55901   -1.000
 4705.00    1.64489   1.57743   -1.000
 4706.00    1.64876   1.58405   -1.000
 4707.00    1.62269   1.57536   -1.000
 4708.00    1.58572   1.56414   -1.000
 4709.00    1.58096   1.56619   -1.000
 4710.00    1.61665   1.58487   -1.000
 4711.00    1.67585   1.60948   -1.000
 4712.00    1.71819   1.62540   -1.000
 4713.00    1.69975   1.62579   -1.000
 4714.00    1.65094   1.61920   -1.000
 4715.00    1.64811   1.62365   -1.000
 4716.00    1.67952   1.64881   -1.000
 4717.00    1.71186   1.68754   -1.000
 4718.00    1.75571   1.72504   -1.000
 4719.00    1.77405   1.75162   -1.000
 4720.00    1.78252   1.76491   -1.000
 4721.00    1.77311   1.76575  217.497
 4722.00    1.74599   1.75961  217.178
 4723.00    1.74691   1.75604  219.128
 4724.00    1.75830   1.75714  220.197
 4725.00    1.77631   1.75045   -1.000
 4726.00    1.73507   1.72113   -1.000
 4727.00    1.65023   1.66853   -1.000
 4728.00    1.59507   1.61151   -1.000
 4729.00    1.58735   1.57503   -1.000
 4730.00    1.59349   1.57009   -1.000
 4731.00    1.59618   1.59035  234.634
 4732.00    1.63920   1.62138   -1.000
 4733.00    1.68382   1.65006   -1.000
 4734.00    1.70590   1.66785   -1.000
 4735.00    1.73803   1.67358   -1.000
 4736.00    1.70348   1.67398   -1.000
 4737.00    1.68579   1.67767  223.851
 4738.00    1.71035   1.68893   -1.000
 4739.00    1.73390   1.70357   -1.000
 4740.00    1.71329   1.71276  223.159
 4741.00    1.70070   1.71477  223.617
 4742.00    1.70310   1.71643  224.826
 4743.00    1.71700   1.72176  224.734
 4744.00    1.74179   1.72954   -1.000
 4745.00    1.75210   1.73959   -1.000
 4746.00    1.78044   1.75278   -1.000
 4747.00    1.77327   1.76802  221.149
 4748.00    1.76931   1.78203  219.302
 4749.00    1.78021   1.79172  217.319
 4750.00    1.77181   1.79487   -1.000
 4751.00    1.76348   1.78846   -1.000
 4752.00    1.74809   1.77120   -1.000
 4753.00    1.73038   1.74707  219.579
 4754.00    1.71267   1.72443  222.026
 4755.00    1.69088   1.71135   -1.000
 4756.00    1.69155   1.71019  225.025
 4757.00    1.69385   1.71842   -1.000
 4758.00    1.69971   1.73252   -1.000
 4759.00    1.72020   1.74671   -1.000
 4760.00    1.71399   1.75140   -1.000
 4761.00    1.68494   1.73778   -1.000
 4762.00    1.65213   1.70620   -1.000
 4763.00    1.61384   1.66801   -1.000
 4764.00    1.58526   1.63635   -1.000
 4765.00    1.59274   1.61561   -1.000
 4766.00    1.59247   1.60690  237.705
 4767.00    1.61556   1.61791  236.999
 4768.00    1.66432   1.65390   -1.000
 4769.00    1.71203   1.70145   -1.000
 4770.00    1.73053   1.73620  226.306
 4771.00    1.70964   1.74623   -1.000
 4772.00    1.69477   1.74364   -1.000
 4773.00    1.71549   1.74992   -1.000
 4774.00    1.74363   1.77250   -1.000
 4775.00    1.76235   1.80126   -1.000
 4776.00    1.77341   1.82257   -1.000
 4777.00    1.77181   1.83218   -1.000
 4778.00    1.75920   1.83245   -1.000
 4779.00    1.76424   1.82427   -1.000
 4780.00    1.73962   1.80857   -1.000
 4781.00    1.73333   1.78840   -1.000
 4782.00    1.70807   1.76507   -1.000
 4783.00    1.68717   1.74096   -1.000
 4784.00    1.70251   1.72340   -1.000
 4785.00    1.70075   1.71578  228.866
 4786.00    1.68125   1.71324   -1.000
 4787.00    1.66884   1.71148   -1.000
 4788.00    1.68700   1.71135   -1.000
 4789.00    1.68707   1.71440   -1.000
 4790.00    1.69182   1.72234   -1.000
 4791.00    1.71595   1.73997   -1.000
 4792.00    1.74676   1.77216   -1.000
 4793.00    1.76961   1.81653   -1.000
 4794.00    1.80322   1.86250   -1.000
 4795.00    1.82932   1.89508   -1.000
 4796.00    1.82926   1.90118   -1.000
 4797.00    1.78292   1.87865   -1.000
 4798.00    1.73881   1.83987   -1.000
 4799.00    1.72675   1.80430   -1.000
 4800.00    1.73367   1.78902   -1.000
 4801.00    1.75061   1.80116   -1.000
 4802.00    1.80089   1.83175   -1.000
 4803.00    1.82362   1.85811   -1.000
 4804.00    1.79799   1.86060   -1.000
 4805.00    1.75178   1.83926   -1.000
 4806.00    1.72426   1.80955   -1.000
 4807.00    1.72667   1.78672   -1.000
 4808.00    1.72206   1.77815   -1.000
 4809.00    1.73167   1.78488   -1.000
 4810.00    1.74831   1.80208   -1.000
 4811.00    1.76639   1.81995   -1.000
 4812.00    1.78046   1.83059   -1.000
 4813.00    1.77595   1.83497   -1.000
 4814.00    1.78481   1.84007   -1.000
 4815.00    1.80048   1.85085   -1.000
 4816.00    1.81259   1.86755   -1.000
 4817.00    1.82245   1.88705   -1.000
 4818.00    1.85144   1.90523   -1.000
 4819.00    1.84747   1.91775   -1.000
 4820.00    1.84903   1.91870   -1.000
 4821.00    1.83349   1.90201   -1.000
 4822.00    1.80187   1.86677   -1.000
 4823.00    1.77265   1.82283   -1.000
 4824.00    1.75452   1.79037   -1.000
 4825.00    1.75403   1.78700   -1.000
 4826.00    1.79683   1.80800  225.644
 4827.00    1.79904   1.82882   -1.000
 4828.00    1.77247   1.83304   -1.000
 4829.00    1.77691   1.82472   -1.000
 4830.00    1.75946   1.81272   -1.000
 4831.00    1.75783   1.79834   -1.000
 4832.00    1.74523   1.78475   -1.000
 4833.00    1.75588   1.78274   -1.000
 4834.00    1.79258   1.79797  225.613
 4835.00    1.81903   1.82239  221.864
 4836.00    1.82279   1.84065  219.203
 4837.00    1.80037   1.84319   -1.000
 4838.00    1.78796   1.82975   -1.000
 4839.00    1.76831   1.80618   -1.000
 4840.00    1.73651   1.78315   -1.000
 4841.00    1.74188   1.77001   -1.000
 4842.00    1.75593   1.76784  227.151
 4843.00    1.74416   1.77346   -1.000
 4844.00    1.75609   1.78807   -1.000
 4845.00    1.80734   1.81273  223.559
 4846.00    1.82807   1.83693  221.149
 4847.00    1.81530   1.84400   -1.000
 4848.00    1.79352   1.83105   -1.000
 4849.00    1.78597   1.81503   -1.000
 4850.00    1.79077   1.81275   -1.000
 4851.00    1.80027   1.82180  224.400
 4852.00    1.80544   1.82548  221.385
 4853.00    1.78845   1.80858  221.194
 4854.00    1.74961   1.76857  222.609
 4855.00    1.69686   1.71937   -1.000
 4856.00    1.66649   1.68286  231.997
 4857.00    1.66858   1.66537  237.797
 4858.00    1.66032   1.64381   -1.000
 4859.00    1.57012   1.58446  235.145
 4860.00    1.43339   1.48464   -1.000
 4861.00    1.35825   1.39149   -1.000
 4862.00    1.37703   1.36174   -1.000
 4863.00    1.48175   1.41024   -1.000
 4864.00    1.59037   1.50238   -1.000
 4865.00    1.65604   1.59419   -1.000
 4866.00    1.68229   1.66398   -1.000
 4867.00    1.70587   1.70905  237.513
 4868.00    1.72114   1.72991  232.923
 4869.00    1.71254   1.72333  231.035
 4870.00    1.65694   1.68748   -1.000
 4871.00    1.61619   1.63519  232.981
 4872.00    1.59999   1.59888  239.703
 4873.00    1.62965   1.60840   -1.000
 4874.00    1.68613   1.65731   -1.000
 4875.00    1.69581   1.71179  234.952
 4876.00    1.72265   1.75062   -1.000
 4877.00    1.73551   1.77779   -1.000
 4878.00    1.76312   1.80439   -1.000
 4879.00    1.78549   1.83068   -1.000
 4880.00    1.77812   1.84600   -1.000
 4881.00    1.75350   1.84130   -1.000
 4882.00    1.72575   1.82195   -1.000
 4883.00    1.72334   1.80183   -1.000
 4884.00    1.73758   1.78279   -1.000
 4885.00    1.71584   1.75683   -1.000
 4886.00    1.66942   1.72744   -1.000
 4887.00    1.66775   1.70802   -1.000
 4888.00    1.67885   1.69913  234.298
 4889.00    1.67084   1.68504  233.027
 4890.00    1.62966   1.65771   -1.000
 4891.00    1.61923   1.63675  236.873
 4892.00    1.67374   1.65671   -1.000
 4893.00    1.77667   1.73166   23.894
 4894.00    1.86911   1.83758   22.889
 4895.00    1.91149   1.92962   21.852
 4896.00    1.93008   1.98061   21.243
 4897.00    1.93445   1.99309   20.880
 4898.00    1.90319   1.98046   20.803
 4899.00    1.86227   1.95433   20.889
 4900.00    1.83195   1.92542   21.364
 4901.00    1.81435   1.90197   21.850
 4902.00    1.80924   1.88460   22.050
 4903.00    1.80299   1.87215   21.940
 4904.00    1.81987   1.87155   21.998
 4905.00    1.86170   1.89165   22.236
 4906.00    1.88873   1.92267   21.953
 4907.00    1.87665   1.93536   21.498
 4908.00    1.84189   1.91106   21.373
 4909.00    1.80589   1.85995   21.611
 4910.00    1.75704   1.81016   22.157
 4911.00    1.74411   1.78783   22.775
 4912.00    1.78819   1.80188   23.001
 4913.00    1.81879   1.84130   22.667
 4914.00    1.85026   1.88598   22.260
 4915.00    1.89338   1.91845   21.959
 4916.00    1.89305   1.92153   21.681
 4917.00    1.83077   1.87644   21.517
 4918.00    1.72575   1.78038   21.681
 4919.00    1.62470   1.66420   22.500
 4920.00    1.58618   1.57873   23.744
 4921.00    1.61202   1.56092   24.806
 4922.00    1.69063   1.60683   24.972
 4923.00    1.74432   1.67730   24.114
 4924.00    1.77342   1.73512   23.275
 4925.00    1.77916   1.77640   22.972
 4926.00    1.81027   1.81925   22.940
 4927.00    1.86230   1.87117   22.613
 4928.00    1.90498   1.92363   22.024
 4929.00    1.92610   1.96600   21.651
 4930.00    1.94533   1.98986   21.458
 4931.00    1.93779   1.98667   21.314
 4932.00    1.89481   1.95387   21.211
 4933.00    1.83042   1.90411   21.460
 4934.00    1.80540   1.86206   22.074
 4935.00    1.83017   1.84282   22.834
 4936.00    1.83327   1.83326   22.830
 4937.00    1.78258   1.80703   22.431
 4938.00    1.72440   1.76227   22.478
 4939.00    1.70447   1.73269   23.164
 4940.00    1.75694   1.75199   23.743
 4941.00    1.84468   1.81672   23.464
 4942.00    1.90963   1.89275   22.646
 4943.00    1.93433   1.94783   21.942
 4944.00    1.92803   1.97201   21.561
 4945.00    1.92662   1.97337   21.385
 4946.00    1.93835   1.96731   21.417
 4947.00    1.92476   1.96882   21.568
 4948.00    1.93802   1.98342   21.595
 4949.00    1.97050   2.00369   21.387
 4950.00    1.98382   2.01856   21.144
 4951.00    1.98245   2.02303   21.085
 4952.00    1.95788   2.01649   21.008
 4953.00    1.93459   1.99912   21.127
 4954.00    1.91655   1.96736   21.280
 4955.00    1.87650   1.91025   21.532
 4956.00    1.77319   1.82103   21.821
 4957.00    1.66255   1.72341   22.450
 4958.00    1.66606   1.67405   23.618
 4959.00    1.75731   1.70901   24.472
 4960.00    1.86548   1.80104   23.873
 4961.00    1.91280   1.88999   22.509
 4962.00    1.91038   1.93685   21.787
 4963.00    1.90704   1.94077   21.654
 4964.00    1.86821   1.91604   21.768
 4965.00    1.81477   1.87566   21.949
 4966.00    1.79084   1.83551   22.225
 4967.00    1.78602   1.81101   22.695
 4968.00    1.79823   1.80672   22.966
 4969.00    1.80224   1.81852   22.958
 4970.00    1.82391   1.84153   22.883
 4971.00    1.85171   1.87247   22.706
 4972.00    1.87931   1.90722   22.460
 4973.00    1.89042   1.93792   22.218
 4974.00    1.92660   1.95629   21.954
 4975.00    1.91266   1.95869   21.755
 4976.00    1.89747   1.94531   21.684
 4977.00    1.86703   1.91824   21.847
 4978.00    1.83176   1.88320   22.084
 4979.00    1.78320   1.84703   22.390
 4980.00    1.75553   1.80940   22.753
 4981.00    1.72999   1.76121   23.033
 4982.00    1.65751   1.70015   23.384
 4983.00    1.62949   1.64591   24.171
 4984.00    1.65750   1.62806   24.914
 4985.00    1.70951   1.65865   24.865
 4986.00    1.77544   1.72395   24.371
 4987.00    1.82256   1.79628   23.674
 4988.00    1.84923   1.84923   22.927
 4989.00    1.83430   1.86868   22.394
 4990.00    1.83141   1.86164   22.446
 4991.00    1.82551   1.84954   22.783
 4992.00    1.82859   1.84747   23.004
 4993.00    1.83647   1.85479   22.996
 4994.00    1.83409   1.86403   22.789
 4995.00    1.84478   1.87305   22.701
 4996.00    1.85727   1.88271   22.687
 4997.00    1.84806   1.88498   22.567
 4998.00    1.82251   1.86682   22.467
 4999.00    1.79881   1.82670   22.619
 5000.00    1.75570   1.77878   22.935
 5001.00    1.74233   1.74294   23.396
 5002.00    1.76636   1.72886   23.672
 5003.00    1.77819   1.72707   23.669
 5004.00    1.77182   1.71769   23.440
 5005.00    1.70858   1.69141   23.309
 5006.00    1.68585   1.66388   23.670
 5007.00    1.71169   1.66462   24.265
 5008.00    1.77338   1.70494   24.353
 5009.00    1.83560   1.76028   23.729
 5010.00    1.82324   1.79260   23.019
 5011.00    1.77068   1.78123   22.811
 5012.00    1.72867   1.73276   23.142
 5013.00    1.66785   1.67373   23.859
 5014.00    1.63091   1.63477   24.749
 5015.00    1.65595   1.63067   25.287
 5016.00    1.72381   1.65063   25.126
 5017.00    1.72809   1.67374   24.557
 5018.00    1.74437   1.69043   24.060
 5019.00    1.75358   1.70538   23.975
 5020.00    1.77855   1.72124   23.973
 5021.00    1.76096   1.73117   23.694
 5022.00    1.74765   1.73429   23.513
 5023.00    1.74463   1.74295   23.625
 5024.00    1.78521   1.76649   23.669
 5025.00    1.81133   1.79548   23.523
 5026.00    1.80380   1.80955   23.273
 5027.00    1.78344   1.80319   23.130
 5028.00    1.78559   1.79469   23.249
 5029.00    1.82099   1.80535   23.349
 5030.00    1.85974   1.83952   23.117
 5031.00    1.89134   1.88592   22.677
 5032.00    1.91147   1.92934   22.356
 5033.00    1.93577   1.95411   21.994
 5034.00    1.91536   1.94546   21.753
 5035.00    1.83988   1.90275   21.820
 5036.00    1.76707   1.84721   22.549
 5037.00    1.75791   1.80235   23.438
 5038.00    1.75938   1.76692   23.799
 5039.00    1.70831   1.72008   23.879
 5040.00    1.60796   1.65695   24.202
 5041.00    1.57353   1.60930   25.180
 5042.00    1.65259   1.61988   26.179
 5043.00    1.75903   1.69887   26.117
 5044.00    1.86397   1.81357   24.802
 5045.00    1.93518   1.91443   23.270
 5046.00    1.95411   1.96754   22.351
 5047.00    1.92089   1.96471   21.884
 5048.00    1.95331   1.91736   21.071
 5049.00    1.08375   1.85149   -1.000
 5050.00   -0.15885   1.79835    0.000
 5051.00    0.00228   1.77698   -1.000
 5052.00    0.55271   1.78802   -1.000
 5053.00    1.91512   1.82410   23.477
 5054.00    1.91824   1.87281   22.933
 5055.00    1.92793   1.91680   22.355
 5056.00    1.96805   1.94617   21.958
 5057.00    1.97544   1.96397   21.759
 5058.00    1.96778   1.97822   21.696
 5059.00    1.97146   1.99523   21.740
 5060.00    1.97671   2.01511   21.779
 5061.00    1.98545   2.03022   21.766
 5062.00    1.97806   2.02615   21.615
 5063.00    1.94754   1.98964   21.640
 5064.00    1.86885   1.92596   21.949
 5065.00    1.81592   1.86230   22.608
 5066.00    1.81170   1.82512   23.411
 5067.00    1.82771   1.81874   23.648
 5068.00    1.84089   1.83037   23.338
 5069.00    1.87073   1.84804   22.987
 5070.00    1.88738   1.86486   22.924
 5071.00    1.88568   1.87277   22.813
 5072.00    1.86569   1.86788   22.666
 5073.00    1.89267   1.85963   22.864
 5074.00    1.89787   1.86102   23.036
 5075.00    1.89748   1.87170   22.735
 5076.00    1.91041   1.87983   22.564
 5077.00    1.89449   1.87209   22.540
 5078.00    1.84026   1.83787   22.527
 5079.00    1.77574   1.77941   22.764
 5080.00    1.71895   1.72197   23.589
 5081.00    1.69824   1.69722   24.718
 5082.00    1.74535   1.71144   24.956
 5083.00    1.79615   1.74684   24.397
 5084.00    1.83112   1.78698   23.879
 5085.00    1.87822   1.82654   23.564
 5086.00    1.91638   1.86297   23.113
 5087.00    1.91559   1.89155   22.722
 5088.00    1.92209   1.91045   22.570
 5089.00    1.94196   1.92331   22.544
 5090.00    1.93953   1.93560   22.426
 5091.00    1.94881   1.95211   22.262
 5092.00    1.98261   1.97481   22.141
 5093.00    2.00371   1.99712   22.025
 5094.00    1.98678   2.00329   21.765
 5095.00    1.96843   1.98008   21.575
 5096.00    1.92438   1.92919   21.792
 5097.00    1.87022   1.86537   22.260
 5098.00    1.80634   1.80798   22.742
 5099.00    1.79738   1.77759   23.296
 5100.00    1.83531   1.78830   23.779
 5101.00    1.88805   1.83270   23.831
 5102.00    1.92638   1.88210   23.217
 5103.00    1.91075   1.90825   22.541
 5104.00    1.90206   1.90511   22.366
 5105.00    1.87276   1.88487   22.513
 5106.00    1.85677   1.85881   22.818
 5107.00    1.82702   1.83192   23.106
 5108.00    1.82558   1.80862   23.388
 5109.00    1.83488   1.79597   23.681
 5110.00    1.83402   1.80135   23.630
 5111.00    1.86221   1.82638   23.473
 5112.00    1.90508   1.86358   23.303
 5113.00    1.92624   1.90033   22.960
 5114.00    1.93961   1.93020   22.681
 5115.00    1.94198   1.95635   22.405
 5116.00    1.96381   1.98187   22.206
 5117.00    2.00256   2.00377   22.091
 5118.00    2.01483   2.01476   21.852
 5119.00    2.01077   2.00833   21.671
 5120.00    1.98178   1.98285   21.747
 5121.00    1.91672   1.94141   22.043
 5122.00    1.86643   1.88928   22.377
 5123.00    1.80617   1.83457   22.748
 5124.00    1.78569   1.78998   23.345
 5125.00    1.80280   1.76769   24.055
 5126.00    1.80850   1.76819   24.198
 5127.00    1.81939   1.77862   23.966
 5128.00    1.82074   1.78751   23.853
 5129.00    1.81574   1.79599   23.709
 5130.00    1.81858   1.81187   23.752
 5131.00    1.86272   1.83779   23.728
 5132.00    1.91235   1.86751   23.405
 5133.00    1.91833   1.89337   23.001
 5134.00    1.93626   1.91346   22.824
 5135.00    1.95549   1.92620   22.604
 5136.00    1.94677   1.92300   22.406
 5137.00    1.90844   1.89535   22.354
 5138.00    1.86656   1.85237   22.777
 5139.00    1.84999   1.81900   23.340
 5140.00    1.85678   1.80856   23.703
 5141.00    1.83908   1.81160   23.722
 5142.00    1.82847   1.81396   23.499
 5143.00    1.82597   1.81483   23.690
 5144.00    1.84500   1.82044   24.086
 5145.00    1.85935   1.82536   23.924
 5146.00    1.85047   1.81806   23.510
 5147.00    1.83066   1.80369   23.441
 5148.00    1.83920   1.79919   23.673
 5149.00    1.86835   1.80852   23.725
 5150.00    1.86809   1.81764   23.419
 5151.00    1.83986   1.81369   23.294
 5152.00    1.79435   1.80010   23.600
 5153.00    1.79547   1.79006   24.037
 5154.00    1.83654   1.79565   24.185
 5155.00    1.85200   1.82365   24.052
 5156.00    1.92224   1.87108   23.579
 5157.00    1.98268   1.92352   22.974
 5158.00    1.99258   1.96434   22.390
 5159.00    2.01888   1.98573   21.976
 5160.00    2.02317   1.98836   21.823
 5161.00    2.00393   1.97394   21.825
 5162.00    1.96956   1.94149   21.901
 5163.00    1.94236   1.88960   22.029
 5164.00    1.87853   1.81685   22.282
 5165.00    1.73489   1.71610   22.631
 5166.00    1.56393   1.58524   23.516
 5167.00    1.41715   1.45617   25.502
 5168.00    1.39542   1.38618   28.198
 5169.00    1.49753   1.39522   -1.000
 5170.00    1.56963   1.43301   -1.000
 5171.00    1.50584   1.43029   27.639
 5172.00    1.37398   1.38228   27.310
 5173.00    1.35071   1.35803   29.148
 5174.00    1.50215   1.41957   -1.000
 5175.00    1.69578   1.55583   -1.000
 5176.00    1.81565   1.69738   -1.000
 5177.00    1.86235   1.78984   24.304
 5178.00    1.87344   1.82924   23.425
 5179.00    1.87004   1.82855   23.175
 5180.00    1.81661   1.78639   23.135
 5181.00    1.70103   1.69046   23.373
 5182.00    1.52829   1.54777   24.211
 5183.00    1.36272   1.41118   25.996
 5184.00    1.34889   1.35668   29.069
 5185.00    1.51362   1.42286   -1.000
 5186.00    1.72610   1.57210   -1.000
 5187.00    1.86029   1.72477   -1.000
 5188.00    1.89247   1.82708   24.109
 5189.00    1.92899   1.87185   23.386
 5190.00    1.94337   1.87041   23.196
 5191.00    1.87423   1.83199   23.102
 5192.00    1.80227   1.77711   23.362
 5193.00    1.78885   1.74101   24.121
 5194.00    1.83309   1.74318   24.786
 5195.00    1.86451   1.77111   24.574
 5196.00    1.90254   1.80802   24.143
 5197.00    1.93658   1.85059   23.788
 5198.00    1.97434   1.89697   23.441
 5199.00    2.02037   1.93851   22.965
 5200.00    2.03693   1.96363   22.577
 5201.00    2.01839   1.96494   22.397
 5202.00    1.99394   1.93980   22.380
 5203.00    1.94819   1.88773   22.566
 5204.00    1.87386   1.81241   22.983
 5205.00    1.78035   1.72951   23.512
 5206.00    1.74707   1.66259   24.259
 5207.00    1.73285   1.62646   -1.000
 5208.00    1.72769   1.62123   -1.000
 5209.00    1.73974   1.64449   25.215
 5210.00    1.80915   1.69995   -1.000
 5211.00    1.90447   1.78496   -1.000
 5212.00    1.98840   1.87767   -1.000
 5213.00    2.04548   1.94577   -1.000
 5214.00    2.05336   1.96714   22.274
 5215.00    2.00001   1.94685   21.822
 5216.00    1.95077   1.91617   22.081
 5217.00    1.96874   1.91018   22.612
 5218.00    2.00339   1.94125   22.882
 5219.00    2.03771   1.99298   22.681
 5220.00    2.09823   2.03933   22.183
 5221.00    2.11701   2.06212   21.850
 5222.00    2.07564   2.05235   21.686
 5223.00    2.01873   2.00622   21.600
 5224.00    1.93866   1.92637   21.889
 5225.00    1.86143   1.82724   22.567
 5226.00    1.78235   1.74027   23.507
 5227.00    1.78083   1.70613   24.613
 5228.00    1.86384   1.74622   -1.000
 5229.00    1.99196   1.83933   -1.000
 5230.00    2.07036   1.93158   -1.000
 5231.00    2.06707   1.97478   22.381
 5232.00    2.02992   1.96199   21.993
 5233.00    1.99415   1.92583   21.965
 5234.00    1.98461   1.90867   22.421
 5235.00    2.01767   1.93303   22.820
 5236.00    2.06871   1.98915   22.762
 5237.00    2.11091   2.05004   22.230
 5238.00    2.13304   2.09250   21.698
 5239.00    2.12406   2.10900   21.459
 5240.00    2.13719   2.10737   21.444
 5241.00    2.13974   2.09970   21.514
 5242.00    2.14381   2.09540   21.474
 5243.00    2.14860   2.09910   21.345
 5244.00    2.14090   2.10509   21.380
 5245.00    2.12013   2.09621   21.335
 5246.00    2.06819   2.05996   21.301
 5247.00    1.99650   2.00627   21.737
 5248.00    1.98648   1.95962   22.425
 5249.00    1.98223   1.93446   22.945
 5250.00    1.97051   1.92818   22.996
 5251.00    1.98308   1.93528   23.038
 5252.00    2.02218   1.95227   23.188
 5253.00    2.02714   1.96983   23.075
 5254.00    2.02780   1.98005   22.751
 5255.00    2.04165   1.99187   22.527
 5256.00    2.07764   2.02447   22.534
 5257.00    2.14216   2.08055   22.369
 5258.00    2.18875   2.13412   21.841
 5259.00    2.20723   2.15331   21.248
 5260.00    2.15396   2.12372   21.066
 5261.00    2.03501   2.04936   21.268
 5262.00    1.94402   1.94629   21.858
 5263.00    1.87411   1.83712   22.791
 5264.00    1.79907   1.74471   23.880
 5265.00    1.76064   1.68665   24.703
 5266.00    1.78121   1.66842   -1.000
 5267.00    1.82596   1.67311   -1.000
 5268.00    1.81472   1.66751   -1.000
 5269.00    1.74014   1.63743   -1.000
 5270.00    1.72078   1.61576   -1.000
 5271.00    1.81817   1.65131   -1.000
 5272.00    1.95040   1.74680   -1.000
 5273.00    2.01800   1.84741   -1.000
 5274.00    2.01953   1.90610   -1.000
 5275.00    2.00949   1.93531   22.706
 5276.00    2.05317   1.97332   22.720
 5277.00    2.13887   2.03429   -1.000
 5278.00    2.21155   2.09699   -1.000
 5279.00    2.20099   2.12715   21.464
 5280.00    2.17000   2.11035   21.066
 5281.00    2.09562   2.05953   21.197
 5282.00    2.04000   2.00161   21.711
 5283.00    2.01406   1.96586   22.278
 5284.00    2.04394   1.97628   22.685
 5285.00    2.12861   2.03716   22.796
 5286.00    2.23632   2.12240   -1.000
 5287.00    2.25574   2.19146   21.646
 5288.00    2.24142   2.22482   20.964
 5289.00    2.26073   2.23511   20.807
 5290.00    2.27733   2.24084   20.919
 5291.00    2.29059   2.24573   20.916
 5292.00    2.29361   2.24245   20.792
 5293.00    2.25951   2.22709   20.748
 5294.00    2.22935   2.19959   20.871
 5295.00    2.20179   2.15296   21.069
 5296.00    2.10251   2.08067   21.349
 5297.00    2.00251   1.99858   21.930
 5298.00    1.97461   1.94355   22.776
 5299.00    2.01576   1.94121   23.388
 5300.00    2.08160   1.98040   -1.000
 5301.00    2.11549   2.03006   22.651
 5302.00    2.14043   2.07635   22.229
 5303.00    2.19502   2.12692   22.087
 5304.00    2.26356   2.18473   21.815
 5305.00    2.29901   2.23314   21.226
 5306.00    2.28856   2.25352   20.835
 5307.00    2.27151   2.25023   20.781
 5308.00    2.26901   2.24547   20.984
 5309.00    2.30089   2.25427   21.167
 5310.00    2.32880   2.27135   21.030
 5311.00    2.32403   2.28029   20.808
 5312.00    2.31495   2.27301   20.675
 5313.00    2.28883   2.25397   20.695
 5314.00    2.27636   2.23026   20.812
 5315.00    2.24681   2.20604   20.902
 5316.00    2.22591   2.18463   21.053
 5317.00    2.22525   2.17199   21.262
 5318.00    2.23346   2.17251   21.451
 5319.00    2.25182   2.18099   21.459
 5320.00    2.25777   2.18617   21.300
 5321.00    2.24650   2.17922   21.209
 5322.00    2.22826   2.15488   21.286
 5323.00    2.17580   2.11308   21.436
 5324.00    2.14171   2.06231   21.688
 5325.00    2.11651   2.00930   -1.000
 5326.00    2.07215   1.94529   -1.000
 5327.00    1.96776   1.86235   22.267
 5328.00    1.85217   1.78716   22.874
 5329.00    1.87976   1.77350   -1.000
 5330.00    2.00143   1.84519   -1.000
 5331.00    2.13276   1.96175   -1.000
 5332.00    2.17355   2.06093   -1.000
 5333.00    2.21138   2.12155   21.995
 5334.00    2.25987   2.16077   21.759
 5335.00    2.27586   2.19425   21.552
 5336.00    2.26755   2.21613   21.301
 5337.00    2.25330   2.21253   21.207
 5338.00    2.22344   2.17852   21.342
 5339.00    2.16868   2.12037   21.480
 5340.00    2.10863   2.05917   21.715
 5341.00    2.08980   2.02808   22.261
 5342.00    2.14266   2.04582   22.655
 5343.00    2.20200   2.09340   -1.000
 5344.00    2.22405   2.13289   21.872
 5345.00    2.22349   2.14442   21.476
 5346.00    2.21448   2.13326   21.469
 5347.00    2.20847   2.11338   21.609
 5348.00    2.18895   2.09508   21.748
 5349.00    2.17500   2.08835   21.855
 5350.00    2.21534   2.10490   -1.000
 5351.00    2.26942   2.14669   -1.000
 5352.00    2.28945   2.19950   21.771
 5353.00    2.31337   2.24649   21.266
 5354.00    2.34568   2.28284   20.997
 5355.00    2.36120   2.31342   20.927
 5356.00    2.38605   2.33866   20.764
 5357.00    2.39631   2.35266   20.500
 5358.00    2.39700   2.35337   20.344
 5359.00    2.38816   2.34272   20.359
 5360.00    2.36470   2.32111   20.390
 5361.00    2.33132   2.28982   20.464
 5362.00    2.28282   2.25462   20.702
 5363.00    2.26440   2.22166   21.048
 5364.00    2.23203   2.19309   21.358
 5365.00    2.19358   2.16956   21.511
 5366.00    2.21053   2.15274   21.636
 5367.00    2.22497   2.14047   21.767
 5368.00    2.21122   2.11900   21.704
 5369.00    2.15980   2.07205   21.701
 5370.00    2.07855   2.00633   21.917
 5371.00    2.05337   1.95798   22.459
 5372.00    2.10555   1.96613   -1.000
 5373.00    2.22374   2.03745   -1.000
 5374.00    2.32061   2.13631   -1.000
 5375.00    2.36561   2.21584   -1.000
 5376.00    2.35533   2.25413   20.828
 5377.00    2.33918   2.26180   20.667
 5378.00    2.33687   2.26110   20.725
 5379.00    2.33368   2.26117   20.735
 5380.00    2.31501   2.25605   20.775
 5381.00    2.28659   2.23948   20.894
 5382.00    2.26736   2.21665   21.099
 5383.00    2.26579   2.20094   21.308
 5384.00    2.28715   2.20205   21.414
 5385.00    2.32612   2.21856   -1.000
 5386.00    2.33559   2.23791   21.303
 5387.00    2.32336   2.24367   21.076
 5388.00    2.29925   2.22665   21.030
 5389.00    2.25474   2.19108   21.123
 5390.00    2.23316   2.15035   21.325
 5391.00    2.21514   2.11798   21.650
 5392.00    2.19617   2.10043   21.895
 5393.00    2.20192   2.09422   -1.000
 5394.00    2.20778   2.08847   -1.000
 5395.00    2.18104   2.07086   -1.000
 5396.00    2.12576   2.03921   22.237
 5397.00    2.11489   2.01090   -1.000
 5398.00    2.15176   2.01198   -1.000
 5399.00    2.19733   2.05015   -1.000
 5400.00    2.24881   2.10387   -1.000
 5401.00    2.25680   2.14251   -1.000
 5402.00    2.24457   2.14711   21.554
 5403.00    2.18614   2.11090   21.591
 5404.00    2.10444   2.03985   21.760
 5405.00    2.04092   1.96304   22.410
 5406.00    2.03589   1.92328   -1.000
 5407.00    2.09209   1.93793   -1.000
 5408.00    2.13235   1.97902   -1.000
 5409.00    2.12339   2.01010   -1.000
 5410.00    2.13492   2.02813   -1.000
 5411.00    2.19507   2.05754   -1.000
 5412.00    2.25075   2.10976   -1.000
 5413.00    2.29641   2.16426   -1.000
 5414.00    2.31267   2.20019   -1.000
 5415.00    2.29846   2.22165   21.321
 5416.00    2.31691   2.24364   21.328
 5417.00    2.33533   2.26788   21.339
 5418.00    2.32427   2.28015   21.183
 5419.00    2.31008   2.27198   21.047
 5420.00    2.28864   2.25237   21.127
 5421.00    2.29226   2.23471   21.335
 5422.00    2.30742   2.22208   21.466
 5423.00    2.29553   2.20944   21.386
 5424.00    2.26386   2.20015   21.299
 5425.00    2.26724   2.20923   21.586
 5426.00    2.31704   2.23837   21.788
 5427.00    2.34035   2.25867   21.570
 5428.00    2.28549   2.23579   21.206
 5429.00    2.20111   2.17235   21.259
 5430.00    2.17199   2.11203   21.832
 5431.00    2.20530   2.09059   -1.000
 5432.00    2.22862   2.09743   -1.000
 5433.00    2.19995   2.09798   -1.000
 5434.00    2.16009   2.07971   22.178
 5435.00    2.14397   2.06607   22.487
 5436.00    2.17189   2.08593   22.750
 5437.00    2.25739   2.14392   -1.000
 5438.00    2.33673   2.22158   -1.000
 5439.00    2.37517   2.29330   21.628
 5440.00    2.40257   2.34269   21.170
 5441.00    2.42193   2.36787   20.869
 5442.00    2.40421   2.37348   20.693
 5443.00    2.38938   2.35783   20.653
 5444.00    2.32592   2.31117   20.651
 5445.00    2.25094   2.23137   20.861
 5446.00    2.15505   2.14119   21.407
 5447.00    2.12291   2.08309   22.282
 5448.00    2.18541   2.08736   -1.000
 5449.00    2.27116   2.14366   -1.000
 5450.00    2.31554   2.20974   -1.000
 5451.00    2.34338   2.24636   21.550
 5452.00    2.30810   2.24269   21.329
 5453.00    2.25869   2.20515   21.326
 5454.00    2.18957   2.14462   21.502
 5455.00    2.13804   2.08572   21.992
 5456.00    2.16596   2.06515   22.624
 5457.00    2.24258   2.10361   -1.000
 5458.00    2.32333   2.17940   -1.000
 5459.00    2.35014   2.24209   -1.000
 5460.00    2.33634   2.25709   21.433
 5461.00    2.27930   2.22913   21.293
 5462.00    2.24480   2.18516   21.530
 5463.00    2.23067   2.15426   21.932
 5464.00    2.24744   2.15250   22.235
 5465.00    2.27701   2.17594   -1.000
 5466.00    2.30226   2.20755   22.102
 5467.00    2.32009   2.23266   21.842
 5468.00    2.33212   2.24552   21.732
 5469.00    2.31465   2.24521   21.497
 5470.00    2.28806   2.23358   21.399
 5471.00    2.29999   2.21597   21.589
 5472.00    2.28673   2.19779   21.815
 5473.00    2.26325   2.17818   21.900
 5474.00    2.24386   2.14964   22.010
 5475.00    2.19229   2.10788   22.230
 5476.00    2.13906   2.06452   22.543
 5477.00    2.13113   2.04584   23.019
 5478.00    2.20988   2.06844   -1.000
 5479.00    2.26160   2.11391   -1.000
 5480.00    2.24892   2.14306   -1.000
 5481.00    2.22886   2.14176   22.066
 5482.00    2.22432   2.13479   22.207
 5483.00    2.25115   2.15423   22.482
 5484.00    2.31009   2.20126   -1.000
 5485.00    2.35449   2.24483   -1.000
 5486.00    2.33576   2.25678   21.626
 5487.00    2.28141   2.23673   21.425
 5488.00    2.25642   2.20853   21.614
 5489.00    2.26338   2.19753   21.924
 5490.00    2.28334   2.20903   22.061
 5491.00    2.31646   2.22926   22.071
 5492.00    2.32994   2.24191   21.922
 5493.00    2.32770   2.24371   21.762
 5494.00    2.33288   2.24067   21.677
 5495.00    2.34172   2.23717   -1.000
 5496.00    2.32819   2.23190   21.731
 5497.00    2.30517   2.22592   21.728
 5498.00    2.31821   2.22714   21.878
 5499.00    2.35643   2.23662   -1.000
 5500.00    2.35803   2.24016   -1.000
 5501.00    2.31487   2.22492   21.686
 5502.00    2.29116   2.19811   21.835
 5503.00    2.29315   2.17865   -1.000
 5504.00    2.30521   2.17227   -1.000
 5505.00    2.29625   2.16663   -1.000
 5506.00    2.26204   2.15623   -1.000
 5507.00    2.25272   2.15398   -1.000
 5508.00    2.28519   2.17157   -1.000
 5509.00    2.30534   2.19862   -1.000
 5510.00    2.30156   2.20868   21.982
 5511.00    2.26927   2.18741   21.871
 5512.00    2.22475   2.14761   22.004
 5513.00    2.20676   2.11475   22.422
 5514.00    2.21786   2.10646   -1.000
 5515.00    2.26000   2.12406   -1.000
 5516.00    2.31090   2.15876   -1.000
 5517.00    2.36028   2.20273   -1.000
 5518.00    2.39549   2.24961   -1.000
 5519.00    2.41391   2.29030   -1.000
 5520.00    2.43098   2.31455   -1.000
 5521.00    2.42729   2.32046   -1.000
 5522.00    2.41942   2.31714   -1.000
 5523.00    2.40794   2.31299   21.257
 5524.00    2.38913   2.30480   21.330
 5525.00    2.36098   2.28163   21.369
 5526.00    2.31765   2.23680   21.491
 5527.00    2.24794   2.17925   21.774
 5528.00    2.22033   2.13523   22.265
 5529.00    2.24808   2.13190   -1.000
 5530.00    2.31155   2.17179   -1.000
 5531.00    2.35133   2.22585   -1.000
 5532.00    2.35978   2.26136   -1.000
 5533.00    2.36018   2.26804   21.639
 5534.00    2.35372   2.25779   21.664
 5535.00    2.34312   2.24617   21.860
 5536.00    2.34733   2.24193   -1.000
 5537.00    2.36752   2.24788   -1.000
 5538.00    2.36728   2.26285   -1.000
 5539.00    2.38725   2.28403   -1.000
 5540.00    2.42960   2.30703   -1.000
 5541.00    2.43373   2.32329   -1.000
 5542.00    2.42960   2.32386   -1.000
 5543.00    2.39568   2.31006   21.204
 5544.00    2.38890   2.29379   21.410
 5545.00    2.39393   2.28617   -1.000
 5546.00    2.39129   2.29024   -1.000
 5547.00    2.41092   2.30548   -1.000
 5548.00    2.43608   2.33025   -1.000
 5549.00    2.46317   2.35766   -1.000
 5550.00    2.48120   2.37630   -1.000
 5551.00    2.47408   2.37878   21.073
 5552.00    2.45379   2.36505   21.015
 5553.00    2.42467   2.34116   21.117
 5554.00    2.40255   2.31807   21.298
 5555.00    2.40829   2.30566   -1.000
 5556.00    2.41687   2.30483   -1.000
 5557.00    2.41750   2.30868   -1.000
 5558.00    2.42060   2.31150   -1.000
 5559.00    2.42168   2.31283   -1.000
 5560.00    2.42107   2.31164   -1.000
 5561.00    2.40556   2.30302   -1.000
 5562.00    2.39672   2.28629   -1.000
 5563.00    2.38139   2.26882   -1.000
 5564.00    2.34199   2.25713   21.835
 5565.00    2.34104   2.24957   21.994
 5566.00    2.35181   2.24162   -1.000
 5567.00    2.35171   2.23342   -1.000
 5568.00    2.36429   2.22930   -1.000
 5569.00    2.37061   2.23152   -1.000
 5570.00    2.37459   2.23752   -1.000
 5571.00    2.37609   2.24206   -1.000
 5572.00    2.36469   2.24147   -1.000
 5573.00    2.35908   2.23908   -1.000
 5574.00    2.37744   2.24490   -1.000
 5575.00    2.38504   2.26349   -1.000
 5576.00    2.29318   2.28527   21.843
 5577.00    1.89914   2.29944   -1.000
 5578.00    1.19255   2.30861   -1.000
 5579.00    0.92074   2.31826   -1.000
 5580.00    1.28278   2.32537   -1.000
 5581.00    1.99142   2.32480   -1.000
 5582.00    2.46944   2.31622   -1.000
 5583.00    2.47579   2.30196   -1.000
 5584.00    2.41448   2.27946   -1.000
 5585.00    2.36042   2.23895   -1.000
 5586.00    2.28920   2.17720   -1.000
 5587.00    2.22549   2.11038   -1.000
 5588.00    2.20081   2.06565   -1.000
 5589.00    2.21698   2.06019   -1.000
 5590.00    2.26363   2.08849   -1.000
 5591.00    2.30288   2.12980   -1.000
 5592.00    2.30686   2.16471   -1.000
 5593.00    2.30588   2.18734   -1.000
 5594.00    2.33116   2.20731   -1.000
 5595.00    2.35217   2.23449   -1.000
 5596.00    2.38663   2.26291   -1.000
 5597.00    2.38123   2.27313   -1.000
 5598.00    2.34143   2.25379   22.009
 5599.00    2.32184   2.21480   -1.000
 5600.00    2.29991   2.17566   -1.000
 5601.00    2.27917   2.14914   -1.000
 5602.00    2.28322   2.14207   -1.000
 5603.00    2.30759   2.16375   -1.000
 5604.00    2.34972   2.21779   -1.000
 5605.00    2.42176   2.28882   -1.000
 5606.00    2.47818   2.35094   -1.000
 5607.00    2.49352   2.38818   -1.000
 5608.00    2.49770   2.40159   -1.000
 5609.00    2.50180   2.40272   -1.000
 5610.00    2.50088   2.40379   -1.000
 5611.00    2.49779   2.40772   21.325
 5612.00    2.49671   2.40244   -1.000
 5613.00    2.45082   2.36737   21.246
 5614.00    2.37194   2.29544   21.330
 5615.00    2.28907   2.21100   21.742
 5616.00    2.27723   2.15791   -1.000
 5617.00    2.32027   2.16068   -1.000
 5618.00    2.37453   2.20200   -1.000
 5619.00    2.38239   2.24575   -1.000
 5620.00    2.39449   2.27487   -1.000
 5621.00    2.40762   2.29320   -1.000
 5622.00    2.42021   2.29719   -1.000
 5623.00    2.38393   2.27594   -1.000
 5624.00    2.32270   2.23536   21.846
 5625.00    2.31376   2.20305   -1.000
 5626.00    2.35317   2.20434   -1.000
 5627.00    2.39221   2.23912   -1.000
 5628.00    2.42875   2.28642   -1.000
 5629.00    2.46278   2.32868   -1.000
 5630.00    2.48815   2.35858   -1.000
 5631.00    2.49529   2.37285   -1.000
 5632.00    2.50234   2.37123   -1.000
 5633.00    2.48210   2.35735   -1.000
 5634.00    2.45973   2.33592   -1.000
 5635.00    2.42612   2.31090   -1.000
 5636.00    2.40016   2.28697   -1.000
 5637.00    2.39096   2.27011   -1.000
 5638.00    2.39426   2.26383   -1.000
 5639.00    2.39443   2.26498   -1.000
 5640.00    2.39346   2.26513   -1.000
 5641.00    2.38592   2.25966   -1.000
 5642.00    2.38621   2.25444   -1.000
 5643.00    2.39576   2.25862   -1.000
 5644.00    2.40796   2.27239   -1.000
 5645.00    2.41652   2.28873   -1.000
 5646.00    2.43451   2.30265   -1.000
 5647.00    2.45079   2.31136   -1.000
 5648.00    2.45994   2.31299   -1.000
 5649.00    2.45873   2.31021   -1.000
 5650.00    2.45847   2.31080   -1.000
 5651.00    2.46986   2.32015   -1.000
 5652.00    2.47182   2.33255   -1.000
 5653.00    2.47166   2.33488   -1.000
 5654.00    2.45326   2.32201   -1.000
 5655.00    2.42132   2.30015   -1.000
 5656.00    2.39943   2.27258   -1.000
 5657.00    2.33966   2.23561   -1.000
 5658.00    2.27361   2.19373   22.339
 5659.00    2.27985   2.16744   -1.000
 5660.00    2.34300   2.17312   -1.000
 5661.00    2.37497   2.19947   -1.000
 5662.00    2.36636   2.22340   -1.000
 5663.00    2.38087   2.24278   -1.000
 5664.00    2.42541   2.26802   -1.000
 5665.00    2.45189   2.29506   -1.000
 5666.00    2.45350   2.30923   -1.000
 5667.00    2.43228   2.30578   -1.000
 5668.00    2.40153   2.29531   -1.000
 5669.00    2.40595   2.29179   -1.000
 5670.00    2.42231   2.30066   -1.000
 5671.00    2.44655   2.32081   -1.000
 5672.00    2.47095   2.34929   -1.000
 5673.00    2.50545   2.37838   -1.000
 5674.00    2.51403   2.39798   -1.000
 5675.00    2.51332   2.40498   -1.000
 5676.00    2.52554   2.40506   -1.000
 5677.00    2.52016   2.40395   -1.000
 5678.00    2.51261   2.40017   -1.000
 5679.00    2.49469   2.38839   -1.000
 5680.00    2.49111   2.36754   -1.000
 5681.00    2.46853   2.34030   -1.000
 5682.00    2.42298   2.31143   -1.000
 5683.00    2.40703   2.29105   -1.000
 5684.00    2.43070   2.28791   -1.000
 5685.00    2.43759   2.29556   -1.000
 5686.00    2.42337   2.29793   -1.000
 5687.00    2.39161   2.29026   -1.000
 5688.00    2.38451   2.28427   -1.000
 5689.00    2.41648   2.29380   -1.000
 5690.00    2.46628   2.32137   -1.000
 5691.00    2.51100   2.35710   -1.000
 5692.00    2.53670   2.38778   -1.000
 5693.00    2.54394   2.40522   -1.000
 5694.00    2.54198   2.40897   -1.000
 5695.00    2.52715   2.40370   -1.000
 5696.00    2.51379   2.39303   -1.000
 5697.00    2.49074   2.37638   -1.000
 5698.00    2.46545   2.35288   -1.000
 5699.00    2.43211   2.32549   -1.000
 5700.00    2.39623   2.29905   -1.000
 5701.00    2.38591   2.27888   -1.000
 5702.00    2.38878   2.27223   -1.000
 5703.00    2.39951   2.28179   -1.000
 5704.00    2.41382   2.29631   -1.000
 5705.00    2.40934   2.29730   -1.000
 5706.00    2.36212   2.27563   22.040
 5707.00    2.30876   2.23833   22.168
 5708.00    2.28257   2.20095   22.467
 5709.00    2.28556   2.17524   -1.000
 5710.00    2.28322   2.16683   -1.000
 5711.00    2.29861   2.17902   -1.000
 5712.00    2.34724   2.21238   -1.000
 5713.00    2.40565   2.26191   -1.000
 5714.00    2.46813   2.31477   -1.000
 5715.00    2.50162   2.35658   -1.000
 5716.00    2.51582   2.38301   -1.000
 5717.00    2.53417   2.39922   -1.000
 5718.00    2.54617   2.41163   -1.000
 5719.00    2.55180   2.42528   -1.000
 5720.00    2.56383   2.44251   -1.000
 5721.00    2.56950   2.46163   -1.000
 5722.00    2.58041   2.47848   -1.000
 5723.00    2.59200   2.48859   -1.000
 5724.00    2.59133   2.48716   -1.000
 5725.00    2.57881   2.47103   -1.000
 5726.00    2.53744   2.44447   -1.000
 5727.00    2.50896   2.42130   21.305
 5728.00    2.52084   2.41452   -1.000
 5729.00    2.54548   2.42150   -1.000
 5730.00    2.54287   2.42674   -1.000
 5731.00    2.53743   2.42263   -1.000
 5732.00    2.53445   2.41939   -1.000
 5733.00    2.57039   2.43025   -1.000
 5734.00    2.59988   2.45255   -1.000
 5735.00    2.58789   2.46994   -1.000
 5736.00    2.58085   2.47188   -1.000
 5737.00    2.56750   2.46296   -1.000
 5738.00    2.55545   2.45417   -1.000
 5739.00    2.55264   2.45132   -1.000
 5740.00    2.54806   2.45165   -1.000
 5741.00    2.55163   2.45029   -1.000
 5742.00    2.55994   2.44783   -1.000
 5743.00    2.56452   2.45043   -1.000
 5744.00    2.58183   2.46197   -1.000
 5745.00    2.57901   2.47559   -1.000
 5746.00    2.57478   2.47758   -1.000
 5747.00    2.55928   2.46325   -1.000
 5748.00    2.53667   2.44586   21.225
 5749.00    2.54968   2.44210   -1.000
 5750.00    2.56974   2.44918   -1.000
 5751.00    2.55486   2.44630   -1.000
 5752.00    2.50786   2.41977   21.350
 5753.00    2.47132   2.38217   21.489
 5754.00    2.47166   2.36311   -1.000
 5755.00    2.51727   2.38115   -1.000
 5756.00    2.56683   2.42711   -1.000
 5757.00    2.60608   2.47244   -1.000
 5758.00    2.60599   2.49222   -1.000
 5759.00    2.57224   2.47916   -1.000
 5760.00    2.55070   2.44114   -1.000
 5761.00    2.51222   2.39590   -1.000
 5762.00    2.47875   2.36576   -1.000
 5763.00    2.48785   2.36866   -1.000
 5764.00    2.53646   2.40616   -1.000
 5765.00    2.59050   2.45896   -1.000
 5766.00    2.62638   2.50151   -1.000
 5767.00    2.60900   2.52278   21.180
 5768.00    2.61383   2.52690   21.090
 5769.00    2.61261   2.52121   -1.000
 5770.00    2.60414   2.51059   -1.000
 5771.00    2.57981   2.49758   21.064
 5772.00    2.55820   2.48326   21.132
 5773.00    2.55415   2.46965   21.243
 5774.00    2.53838   2.46084   21.374
 5775.00    2.54805   2.46056   21.439
 5776.00    2.55931   2.46801   -1.000
 5777.00    2.56957   2.47395   -1.000
 5778.00    2.54849   2.46374   21.333
 5779.00    2.49421   2.42816   21.298
 5780.00    2.39840   2.37218   21.355
 5781.00    2.32020   2.31434   21.631
 5782.00    2.28662   2.27517   22.101
 5783.00    2.28908   2.26137   22.425
 5784.00    2.31977   2.26356   22.431
 5785.00    2.35662   2.27439   22.344
 5786.00    2.41651   2.29893   -1.000
 5787.00    2.50318   2.33934   -1.000
 5788.00    2.54894   2.38248   -1.000
 5789.00    2.55501   2.41106   -1.000
 5790.00    2.53754   2.42001   -1.000
 5791.00    2.53373   2.42043   -1.000
 5792.00    2.55294   2.42943   -1.000
 5793.00    2.58350   2.45470   -1.000
 5794.00    2.60738   2.48698   -1.000
 5795.00    2.60129   2.50797   -1.000
 5796.00    2.57940   2.50653   21.118
 5797.00    2.55173   2.48956   21.085
 5798.00    2.53841   2.47862   21.192
 5799.00    2.57966   2.49160   21.329
 5800.00    2.64044   2.52546   -1.000
 5801.00    2.67471   2.55839   -1.000
 5802.00    2.65955   2.56962   -1.000
 5803.00    2.62466   2.55488   20.640
 5804.00    2.60841   2.52567   20.782
 5805.00    2.59476   2.49947   -1.000
 5806.00    2.60320   2.48809   -1.000
 5807.00    2.62038   2.49164   -1.000
 5808.00    2.63059   2.50303   -1.000
 5809.00    2.63080   2.51617   -1.000
 5810.00    2.64014   2.52817   -1.000
 5811.00    2.64362   2.53611   -1.000
 5812.00    2.63796   2.53590   -1.000
 5813.00    2.63987   2.52458   -1.000
 5814.00    2.61705   2.50281   -1.000
 5815.00    2.59718   2.47766   -1.000
 5816.00    2.59146   2.46340   -1.000
 5817.00    2.59961   2.47279   -1.000
 5818.00    2.63363   2.50387   -1.000
 5819.00    2.66644   2.53958   -1.000
 5820.00    2.68603   2.56191   -1.000
 5821.00    2.69496   2.56553   -1.000
 5822.00    2.69655   2.55768   -1.000
 5823.00    2.67970   2.54935   -1.000
 5824.00    2.68717   2.54706   -1.000
 5825.00    2.69019   2.55040   -1.000
 5826.00    2.68854   2.55587   -1.000
 5827.00    2.69408   2.56121   -1.000
 5828.00    2.69680   2.56638   -1.000
 5829.00    2.70435   2.57152   -1.000
 5830.00    2.71173   2.57484   -1.000
 5831.00    2.69976   2.57396   -1.000
 5832.00    2.69030   2.56794   -1.000
 5833.00    2.68831   2.55753   -1.000
 5834.00    2.68482   2.54558   -1.000
 5835.00    2.68200   2.53700   -1.000
 5836.00    2.68437   2.53466   -1.000
 5837.00    2.67790   2.53611   -1.000
 5838.00    2.67471   2.53891   -1.000
 5839.00    2.67519   2.54607   -1.000
 5840.00    2.67352   2.56062   -1.000
 5841.00    2.70045   2.57870   -1.000
 5842.00    2.71338   2.59119   -1.000
 5843.00    2.71241   2.59115   -1.000
 5844.00    2.69639   2.57805   -1.000
 5845.00    2.66559   2.55608   -1.000
 5846.00    2.63267   2.53136   -1.000
 5847.00    2.62806   2.51082   -1.000
 5848.00    2.63527   2.49973   -1.000
 5849.00    2.63538   2.49699   -1.000
 5850.00    2.62453   2.49396   -1.000
 5851.00    2.60216   2.48164   -1.000
 5852.00    2.57825   2.46029   -1.000
 5853.00    2.55869   2.43929   -1.000
 5854.00    2.56242   2.42557   -1.000
 5855.00    2.56931   2.41362   -1.000
 5856.00    2.54741   2.39194   -1.000
 5857.00    2.51539   2.36219   -1.000
 5858.00    2.50798   2.34390   -1.000
 5859.00    2.54413   2.35449   -1.000
 5860.00    2.58292   2.38884   -1.000
 5861.00    2.58965   2.42475   -1.000
 5862.00    2.59787   2.44657   -1.000
 5863.00    2.62309   2.45492   -1.000
 5864.00    2.62011   2.45652   -1.000
 5865.00    2.60656   2.45317   -1.000
 5866.00    2.59534   2.44535   -1.000
 5867.00    2.58324   2.44161   -1.000
 5868.00    2.61176   2.45297   -1.000
 5869.00    2.64396   2.47778   -1.000
 5870.00    2.68953   2.50205   -1.000
 5871.00    2.68289   2.51390   -1.000
 5872.00    2.66290   2.51242   -1.000
 5873.00    2.65853   2.50527   -1.000
 5874.00    2.66420   2.50007   -1.000
 5875.00    2.66295   2.49721   -1.000
 5876.00    2.66177   2.49057   -1.000
 5877.00    2.64240   2.47524   -1.000
 5878.00    2.62111   2.45286   -1.000
 5879.00    2.60041   2.43002   -1.000
 5880.00    2.59419   2.41417   -1.000
 5881.00    2.59758   2.40911   -1.000
 5882.00    2.60060   2.41082   -1.000
 5883.00    2.59787   2.41037   -1.000
 5884.00    2.59284   2.40322   -1.000
 5885.00    2.58837   2.38712   -1.000
 5886.00    2.53552   2.34701   -1.000
 5887.00    2.40063   2.25518   -1.000
 5888.00    2.14280   2.09949   21.877
 5889.00    1.74130   1.91511   -1.000
 5890.00    1.36209   1.77904   -1.000
 5891.00    1.17402   1.75365   -1.000
 5892.00    1.35204   1.82662   -1.000
 5893.00    1.73593   1.91681   -1.000
 5894.00    1.95300   1.94996   24.680
 5895.00    1.86074   1.92221   24.093
 5896.00    1.62696   1.89562   -1.000
 5897.00    1.53863   1.93321   -1.000
 5898.00    1.73838   2.03666   -1.000
 5899.00    2.07769   2.15899   24.341
 5900.00    2.35767   2.26077   -1.000
 5901.00    2.51307   2.33180   -1.000
 5902.00    2.56528   2.37635   -1.000
 5903.00    2.58334   2.40062   -1.000
 5904.00    2.59305   2.41076   -1.000
 5905.00    2.58257   2.41331   -1.000
 5906.00    2.58218   2.41548   -1.000
 5907.00    2.59985   2.42271   -1.000
 5908.00    2.60562   2.43493   -1.000
 5909.00    2.60709   2.44830   -1.000
 5910.00    2.60943   2.45898   -1.000
 5911.00    2.60927   2.46206   -1.000
 5912.00    2.59654   2.45107   -1.000
 5913.00    2.55935   2.42417   -1.000
 5914.00    2.52685   2.39085   -1.000
 5915.00    2.51575   2.36849   -1.000
 5916.00    2.53386   2.36823   -1.000
 5917.00    2.57416   2.38748   -1.000
 5918.00    2.60197   2.41548   -1.000
 5919.00    2.61853   2.44068   -1.000
 5920.00    2.61867   2.45535   -1.000
 5921.00    2.60320   2.45823   -1.000
 5922.00    2.60378   2.45463   -1.000
 5923.00    2.60916   2.45340   -1.000
 5924.00    2.62160   2.46058   -1.000
 5925.00    2.62945   2.47366   -1.000
 5926.00    2.63002   2.48300   -1.000
 5927.00    2.62575   2.47919   -1.000
 5928.00    2.60520   2.46105   -1.000
 5929.00    2.59291   2.43899   -1.000
 5930.00    2.58729   2.42811   -1.000
 5931.00    2.60822   2.43478   -1.000
 5932.00    2.63970   2.44919   -1.000
 5933.00    2.63587   2.45571   -1.000
 5934.00    2.63022   2.45137   -1.000
 5935.00    2.61299   2.44876   -1.000
 5936.00    2.61941   2.45951   -1.000
 5937.00    2.65080   2.47908   -1.000
 5938.00    2.65277   2.49304   -1.000
 5939.00    2.63904   2.49230   -1.000
 5940.00    2.62414   2.47755   -1.000
 5941.00    2.61327   2.45743   -1.000
 5942.00    2.60232   2.44505   -1.000
 5943.00    2.61787   2.44928   -1.000
 5944.00    2.64026   2.46673   -1.000
 5945.00    2.64318   2.48480   -1.000
 5946.00    2.63409   2.49109   -1.000
 5947.00    2.62967   2.48128   -1.000
 5948.00    2.62201   2.46267   -1.000
 5949.00    2.60394   2.44941   -1.000
 5950.00    2.59012   2.44834   -1.000
 5951.00    2.60577   2.45201   -1.000
 5952.00    2.59163   2.45080   -1.000
 5953.00    2.56991   2.44607   -1.000
 5954.00    2.58905   2.44503   -1.000
 5955.00    2.60143   2.44719   -1.000
 5956.00    2.60440   2.44521   -1.000
 5957.00    2.60270   2.44004   -1.000
 5958.00    2.60219   2.44301   -1.000
 5959.00    2.60900   2.46102   -1.000
 5960.00    2.63518   2.48846   -1.000
 5961.00    2.66738   2.51338   -1.000
 5962.00    2.66880   2.52678   -1.000
 5963.00    2.66386   2.52679   -1.000
 5964.00    2.66401   2.51694   -1.000
 5965.00    2.64973   2.50432   -1.000
 5966.00    2.64946   2.49784   -1.000
 5967.00    2.65941   2.50290   -1.000
 5968.00    2.67073   2.51675   -1.000
 5969.00    2.68197   2.53264   -1.000
 5970.00    2.68472   2.54617   -1.000
 5971.00    2.68051   2.55510   -1.000
 5972.00    2.67265   2.55702   -1.000
 5973.00    2.66556   2.54942   -1.000
 5974.00    2.65128   2.53059   -1.000
 5975.00    2.62741   2.50226   -1.000
 5976.00    2.61196   2.47263   -1.000
 5977.00    2.60029   2.45344   -1.000
 5978.00    2.59526   2.45225   -1.000
 5979.00    2.62562   2.46744   -1.000
 5980.00    2.65756   2.48787   -1.000
 5981.00    2.66039   2.49723   -1.000
 5982.00    2.62732   2.48442   -1.000
 5983.00    2.59004   2.45414   -1.000
 5984.00    2.58638   2.42619   -1.000
 5985.00    2.59029   2.42001   -1.000
 5986.00    2.60194   2.43770   -1.000
 5987.00    2.63297   2.46501   -1.000
 5988.00    2.65071   2.48861   -1.000
 5989.00    2.65984   2.50427   -1.000
 5990.00    2.66216   2.51269   -1.000
 5991.00    2.65574   2.51801   -1.000
 5992.00    2.65289   2.52736   -1.000
 5993.00    2.67172   2.54336   -1.000
 5994.00    2.68688   2.55759   -1.000
 5995.00    2.68232   2.55683   -1.000
 5996.00    2.65498   2.53738   -1.000
 5997.00    2.63852   2.51032   -1.000
 5998.00    2.64202   2.49201   -1.000
 5999.00    2.63665   2.49019   -1.000
 6000.00    2.63075   2.49847   -1.000
 6001.00    2.63787   2.50458   -1.000
 6002.00    2.63230   2.50300   -1.000
 6003.00    2.61611   2.49841   -1.000
 6004.00    2.63193   2.49632   -1.000
 6005.00    2.62812   2.49174   -1.000
 6006.00    2.61107   2.47545   -1.000
 6007.00    2.58128   2.45134   -1.000
 6008.00    2.56586   2.43796   -1.000
 6009.00    2.57639   2.44943   -1.000
 6010.00    2.59165   2.47681   -1.000
 6011.00    2.60032   2.49568   -1.000
 6012.00    2.58444   2.49325   -1.000
 6013.00    2.58882   2.47889   -1.000
 6014.00    2.60408   2.46856   -1.000
 6015.00    2.60188   2.46671   -1.000
 6016.00    2.59959   2.46713   -1.000
 6017.00    2.60193   2.46601   -1.000
 6018.00    2.59855   2.46340   -1.000
 6019.00    2.58942   2.45737   -1.000
 6020.00    2.58252   2.44879   -1.000
 6021.00    2.58262   2.44520   -1.000
 6022.00    2.58989   2.45231   -1.000
 6023.00    2.61729   2.46862   -1.000
 6024.00    2.64544   2.48945   -1.000
 6025.00    2.64498   2.51103   -1.000
 6026.00    2.65775   2.53090   -1.000
 6027.00    2.68446   2.54844   -1.000
 6028.00    2.69292   2.56477   -1.000
 6029.00    2.69758   2.57973   -1.000
 6030.00    2.70023   2.59134   -1.000
 6031.00    2.71087   2.60007   -1.000
 6032.00    2.72711   2.60981   -1.000
 6033.00    2.73721   2.62396   -1.000
 6034.00    2.73697   2.64107   -1.000
 6035.00    2.73009   2.65384   -1.000
 6036.00    2.71682   2.65529   21.438
 6037.00    2.71412   2.64538   21.420
 6038.00    2.70796   2.62931   -1.000
 6039.00    2.68150   2.61326   21.395
 6040.00    2.66537   2.60284   21.496
 6041.00    2.67606   2.60221   21.563
 6042.00    2.70574   2.61165   -1.000
 6043.00    2.71918   2.62662   -1.000
 6044.00    2.71443   2.64045   -1.000
 6045.00    2.72563   2.64938   -1.000
 6046.00    2.74121   2.65446   -1.000
 6047.00    2.73184   2.65784   21.282
 6048.00    2.71585   2.66023   21.297
 6049.00    2.71934   2.66149   21.271
 6050.00    2.73020   2.66037   21.276
 6051.00    2.73657   2.65385   -1.000
 6052.00    2.72660   2.63952   -1.000
 6053.00    2.70833   2.61888   -1.000
 6054.00    2.70257   2.59656   -1.000
 6055.00    2.70014   2.57761   -1.000
 6056.00    2.69165   2.56724   -1.000
 6057.00    2.69418   2.56956   -1.000
 6058.00    2.71200   2.58308   -1.000
 6059.00    2.71956   2.59999   -1.000
 6060.00    2.73021   2.61048   -1.000
 6061.00    2.73498   2.60769   -1.000
 6062.00    2.70067   2.59008   -1.000
 6063.00    2.67247   2.56221   -1.000
 6064.00    2.64986   2.53524   -1.000
 6065.00    2.64322   2.52476   -1.000
 6066.00    2.66944   2.54124   -1.000
 6067.00    2.62294   2.57950   -1.000
 6068.00    2.30712   2.62139    9.246
 6069.00    2.38234   2.65199   12.044
 6070.00    2.67170   2.66939   22.815
 6071.00    2.76211   2.67865   -1.000
 6072.00    2.80555   2.68289   -1.000
 6073.00    2.56765   2.68219   20.813
 6074.00    1.24318   2.67582   -1.000
 6075.00    1.76366   2.66265   -1.000
 6076.00    2.67649   2.64211   21.377
 6077.00    2.72679   2.61661   -1.000
 6078.00    2.67465   2.59198   -1.000
 6079.00    2.65518   2.57341   -1.000
 6080.00    2.63571   2.56094   -1.000
 6081.00    2.63520   2.55145   -1.000
 6082.00    2.65294   2.54487   -1.000
 6083.00    2.65597   2.54388   -1.000
 6084.00    2.66004   2.54868   -1.000
 6085.00    2.65926   2.55704   -1.000
 6086.00    2.66703   2.56704   -1.000
 6087.00    2.66789   2.57521   -1.000
 6088.00    2.66823   2.57580   -1.000
 6089.00    2.65511   2.56590   -1.000
 6090.00    2.63542   2.55061   -1.000
 6091.00    2.63752   2.54043   -1.000
 6092.00    2.65136   2.54294   -1.000
 6093.00    2.66453   2.55810   -1.000
 6094.00    2.69668   2.57960   -1.000
 6095.00    2.72738   2.59873   -1.000
 6096.00    2.72844   2.61032   -1.000
 6097.00    2.71588   2.61637   -1.000
 6098.00    2.71154   2.61976   -1.000
 6099.00    2.69604   2.61405   -1.000
 6100.00    2.66539   2.58681   -1.000
 6101.00    2.61262   2.53649   -1.000
 6102.00    2.56180   2.48394   -1.000
 6103.00    2.55166   2.46068   -1.000
 6104.00    2.59320   2.47978   -1.000
 6105.00    2.65640   2.52405   -1.000
 6106.00    2.69632   2.56630   -1.000
 6107.00    2.70039   2.59394   -1.000
 6108.00    2.68393   2.61036   -1.000
 6109.00    2.69221   2.62048   -1.000
 6110.00    2.70958   2.62491   -1.000
 6111.00    2.69636   2.62630   -1.000
 6112.00    2.68156   2.63093   22.005
 6113.00    2.70519   2.64051   21.921
 6114.00    2.72128   2.64850   -1.000
 6115.00    2.70637   2.64775   21.809
 6116.00    2.68923   2.63873   21.732
 6117.00    2.67043   2.62561   21.779
 6118.00    2.65870   2.60660   21.911
 6119.00    2.64381   2.57486   21.978
 6120.00    2.60606   2.53000   -1.000
 6121.00    2.56749   2.48607   -1.000
 6122.00    2.56816   2.46514   -1.000
 6123.00    2.60371   2.47877   -1.000
 6124.00    2.64166   2.51519   -1.000
 6125.00    2.66236   2.54935   -1.000
 6126.00    2.65250   2.56601   -1.000
 6127.00    2.63514   2.56904   22.257
 6128.00    2.63625   2.57241   22.358
 6129.00    2.64563   2.58711   22.382
 6130.00    2.67307   2.61269   22.332
 6131.00    2.69767   2.63757   22.190
 6132.00    2.70066   2.64599   21.982
 6133.00    2.68396   2.62437   21.887
 6134.00    2.62915   2.56700   21.909
 6135.00    2.55065   2.48482   22.069
 6136.00    2.47714   2.40981   22.487
 6137.00    2.46594   2.37975   -1.000
 6138.00    2.51534   2.40802   -1.000
 6139.00    2.56926   2.47026   -1.000
 6140.00    2.60651   2.52693   -1.000
 6141.00    2.62491   2.55983   -1.000
 6142.00    2.64177   2.58031   22.502
 6143.00    2.65929   2.60362   22.469
 6144.00    2.67886   2.62840   22.518
 6145.00    2.68078   2.64293   22.370
 6146.00    2.68053   2.64013   22.103
 6147.00    2.67932   2.62250   21.997
 6148.00    2.65841   2.59827   22.067
 6149.00    2.62378   2.57713   22.200
 6150.00    2.62638   2.56688   22.357
 6151.00    2.63741   2.56912   -1.000
 6152.00    2.65920   2.57664   -1.000
 6153.00    2.65014   2.57824   -1.000
 6154.00    2.62058   2.56906   22.339
 6155.00    2.60830   2.55450   22.268
 6156.00    2.60918   2.54172   -1.000
 6157.00    2.59788   2.52851   -1.000
 6158.00    2.56335   2.50251   22.587
 6159.00    2.52998   2.45054   -1.000
 6160.00    2.46738   2.37204   -1.000
 6161.00    2.36988   2.28814   -1.000
 6162.00    2.31447   2.23372   -1.000
 6163.00    2.33467   2.23197   -1.000
 6164.00    2.40431   2.27613   -1.000
 6165.00    2.46411   2.33710   -1.000
 6166.00    2.49283   2.38420   -1.000
 6167.00    2.47962   2.39970   -1.000
 6168.00    2.43402   2.38571   23.510
 6169.00    2.40838   2.36410   23.530
 6170.00    2.42461   2.36210   23.765
 6171.00    2.46782   2.38922   -1.000
 6172.00    2.51138   2.43055   -1.000
 6173.00    2.52689   2.46495   -1.000
 6174.00    2.52150   2.48397   23.215
 6175.00    2.53047   2.49169   23.135
 6176.00    2.54440   2.49592   23.170
 6177.00    2.54373   2.50301   23.134
 6178.00    2.54873   2.51462   23.083
 6179.00    2.56033   2.52811   23.028
 6180.00    2.57277   2.54132   22.929
 6181.00    2.57674   2.55396   22.834
 6182.00    2.58085   2.56326   22.760
 6183.00    2.58746   2.56361   22.664
 6184.00    2.58126   2.55153   22.590
 6185.00    2.55733   2.52856   22.605
 6186.00    2.52459   2.50003   22.679
 6187.00    2.50093   2.47165   22.828
 6188.00    2.47728   2.44510   23.062
 6189.00    2.46079   2.41742   23.308
 6190.00    2.44802   2.38959   23.535
 6191.00    2.43503   2.37421   23.721
 6192.00    2.45250   2.38591   -1.000
 6193.00    2.49978   2.42421   -1.000
 6194.00    2.54535   2.47209   -1.000
 6195.00    2.56637   2.51070   23.541
 6196.00    2.58402   2.53021   23.079
 6197.00    2.58200   2.52919   22.874
 6198.00    2.54830   2.51312   22.815
 6199.00    2.52116   2.49566   22.909
 6200.00    2.51322   2.49259   23.147
 6201.00    2.53620   2.50889   23.368
 6202.00    2.56225   2.53538   23.409
 6203.00    2.56315   2.55946   23.231
 6204.00    2.56603   2.57527   22.947
 6205.00    2.57313   2.58432   22.808
 6206.00    2.57531   2.58969   22.801
 6207.00    2.58235   2.59194   22.777
 6208.00    2.58248   2.58895   22.761
 6209.00    2.57547   2.57798   22.823
 6210.00    2.56644   2.55693   22.856
 6211.00    2.54501   2.52413   22.917
 6212.00    2.50910   2.48028   23.099
 6213.00    2.46844   2.43282   23.294
 6214.00    2.43149   2.39541   23.505
 6215.00    2.42491   2.37931   23.825
 6216.00    2.44840   2.38392   -1.000
 6217.00    2.46974   2.39655   -1.000
 6218.00    2.47424   2.40317   -1.000
 6219.00    2.46598   2.40097   -1.000
 6220.00    2.46545   2.39924   -1.000
 6221.00    2.46978   2.40654   -1.000
 6222.00    2.49339   2.42105   -1.000
 6223.00    2.52421   2.43542   -1.000
 6224.00    2.52603   2.44580   -1.000
 6225.00    2.49189   2.45273   25.197
 6226.00    2.46942   2.45463   23.977
 6227.00    2.49918   2.44480   23.565
 6228.00    2.49507   2.41672   -1.000
 6229.00    2.43923   2.37367   -1.000
 6230.00    2.39148   2.33289   23.967
 6231.00    2.39406   2.31631   -1.000
 6232.00    2.43457   2.33502   -1.000
 6233.00    2.47598   2.38191   -1.000
 6234.00    2.51929   2.43668   -1.000
 6235.00    2.55701   2.47682   -1.000
 6236.00    2.56973   2.48893   -1.000
 6237.00    2.55327   2.47442   -1.000
 6238.00    2.52694   2.44528   -1.000
 6239.00    2.48988   2.41520   -1.000
 6240.00    2.46767   2.39213   -1.000
 6241.00    2.45817   2.37591   -1.000
 6242.00    2.43439   2.36237   -1.000
 6243.00    2.42640   2.35059   -1.000
 6244.00    2.43123   2.34529   -1.000
 6245.00    2.42951   2.35254   -1.000
 6246.00    2.44782   2.37497   -1.000
 6247.00    2.48951   2.40901   -1.000
 6248.00    2.52519   2.44334   -1.000
 6249.00    2.53469   2.46292   -1.000
 6250.00    2.51555   2.45784   -1.000
 6251.00    2.47850   2.43000   23.688
 6252.00    2.43205   2.39265   23.833
 6253.00    2.40314   2.36125   24.209
 6254.00    2.40298   2.34187   -1.000
 6255.00    2.40462   2.32886   -1.000
 6256.00    2.39164   2.31515   -1.000
 6257.00    2.36760   2.30364   -1.000
 6258.00    2.36803   2.30592   -1.000
 6259.00    2.40116   2.33026   -1.000
 6260.00    2.44556   2.37346   -1.000
 6261.00    2.50132   2.42304   -1.000
 6262.00    2.53977   2.46458   -1.000
 6263.00    2.54666   2.48827   -1.000
 6264.00    2.53437   2.49366   23.886
 6265.00    2.52566   2.48998   23.673
 6266.00    2.52929   2.48810   23.763
 6267.00    2.53223   2.49064   23.947
 6268.00    2.54145   2.49291   23.934
 6269.00    2.54138   2.49296   23.770
 6270.00    2.52985   2.49504   23.757
 6271.00    2.53021   2.50245   23.879
 6272.00    2.53751   2.51161   23.904
 6273.00    2.54391   2.51446   23.832
 6274.00    2.54449   2.50539   23.764
 6275.00    2.54303   2.48532   -1.000
 6276.00    2.53879   2.45987   -1.000
 6277.00    2.51914   2.43454   -1.000
 6278.00    2.48042   2.41253   -1.000
 6279.00    2.42461   2.39665   24.975
 6280.00    2.35886   2.39165   25.508
 6281.00    2.32315   2.40266   25.769
 6282.00    2.32209   2.42962   25.754
 6283.00    2.33702   2.46491   25.450
 6284.00    2.34377   2.49869   25.010
 6285.00    2.34105   2.52593   24.607
 6286.00    2.35831   2.54752   24.282
 6287.00    2.41082   2.56452   24.052
 6288.00    2.48109   2.57334   23.844
 6289.00    2.51647   2.56894   23.657
 6290.00    2.52269   2.55195   23.568
 6291.00    2.53241   2.53052   23.634
 6292.00    2.52785   2.51393   23.815
 6293.00    2.51693   2.50483   24.006
 6294.00    2.50854   2.49764   24.101
 6295.00    2.50847   2.48467   24.128
 6296.00    2.50463   2.46550   24.164
 6297.00    2.49363   2.44885   24.297
 6298.00    2.51348   2.44213   -1.000
 6299.00    2.55833   2.44198   -1.000
 6300.00    2.59072   2.43985   -1.000
 6301.00    2.66029   2.43499   -1.000
 6302.00    2.80284   2.43600   -1.000
 6303.00    2.89588   2.44952   -1.000
 6304.00    2.84625   2.47371   -1.000
 6305.00    2.72312   2.50259   -1.000
 6306.00    2.64596   2.53191   -1.000
 6307.00    2.63150   2.55776   -1.000
 6308.00    2.61472   2.57385   23.772
 6309.00    2.59682   2.57520   23.565
 6310.00    2.58952   2.56384   23.456
 6311.00    2.56513   2.54720   23.514
 6312.00    2.54914   2.53084   23.658
 6313.00    2.55076   2.51460   23.779
 6314.00    2.52577   2.49611   23.870
 6315.00    2.50143   2.47602   23.924
 6316.00    2.49436   2.45749   24.062
 6317.00    2.48997   2.44444   24.214
 6318.00    2.48851   2.44313   24.230
 6319.00    2.50704   2.45883   24.205
 6320.00    2.53881   2.48767   24.216
 6321.00    2.55288   2.51869   24.179
 6322.00    2.57495   2.54511   23.960
 6323.00    2.60968   2.56737   23.694
 6324.00    2.63651   2.58652   23.551
 6325.00    2.64812   2.60048   23.474
 6326.00    2.64329   2.60793   23.366
 6327.00    2.64277   2.61113   23.268
 6328.00    2.64624   2.61296   23.235
 6329.00    2.65223   2.61463   23.162
 6330.00    2.65920   2.61748   23.123
 6331.00    2.65583   2.62206   23.149
 6332.00    2.65432   2.62292   23.164
 6333.00    2.65012   2.60993   23.121
 6334.00    2.62540   2.57939   23.058
 6335.00    2.58423   2.54224   23.083
 6336.00    2.56272   2.51753   23.148
 6337.00    2.57494   2.51665   -1.000
 6338.00    2.60145   2.53618   -1.000
 6339.00    2.63080   2.56398   -1.000
 6340.00    2.66126   2.58671   -1.000
 6341.00    2.67665   2.59405   -1.000
 6342.00    2.66301   2.58393   -1.000
 6343.00    2.63931   2.56580   -1.000
 6344.00    2.63522   2.55522   -1.000
 6345.00    2.65275   2.56209   -1.000
 6346.00    2.68506   2.58407   -1.000
 6347.00    2.70872   2.61184   -1.000
 6348.00    2.71493   2.63720   -1.000
 6349.00    2.72283   2.65570   -1.000
 6350.00    2.72135   2.66539   -1.000
 6351.00    2.71584   2.66490   22.666
 6352.00    2.70557   2.65290   22.643
 6353.00    2.68689   2.63070   22.631
 6354.00    2.66015   2.60455   22.701
 6355.00    2.63667   2.58152   22.806
 6356.00    2.63344   2.56206   -1.000
 6357.00    2.62307   2.54057   -1.000
 6358.00    2.60056   2.51433   -1.000
 6359.00    2.58506   2.48743   -1.000
 6360.00    2.57850   2.46564   -1.000
 6361.00    2.58385   2.45259   -1.000
 6362.00    2.59890   2.45140   -1.000
 6363.00    2.63272   2.46487   -1.000
 6364.00    2.68842   2.49209   -1.000
 6365.00    2.74391   2.52764   -1.000
 6366.00    2.79907   2.56504   -1.000
 6367.00    2.83089   2.59879   -1.000
 6368.00    2.81100   2.62418   -1.000
 6369.00    2.77215   2.63960   -1.000
 6370.00    2.73957   2.64929   -1.000
 6371.00    2.72320   2.65988   -1.000
 6372.00    2.73912   2.67332   -1.000
 6373.00    2.75350   2.68535   -1.000
 6374.00    2.74519   2.69139   22.579
 6375.00    2.73519   2.69059   22.574
 6376.00    2.72820   2.68347   22.618
 6377.00    2.72196   2.67048   22.650
 6378.00    2.71186   2.65449   -1.000
 6379.00    2.69024   2.64094   22.825
 6380.00    2.67948   2.63426   22.965
 6381.00    2.69605   2.63504   -1.000
 6382.00    2.70536   2.64031   -1.000
 6383.00    2.70407   2.64640   -1.000
 6384.00    2.70740   2.65240   -1.000
 6385.00    2.70047   2.65998   23.134
 6386.00    2.70086   2.66939   23.165
 6387.00    2.71632   2.67788   23.251
 6388.00    2.70524   2.68229   23.260
 6389.00    2.68116   2.67974   23.288
 6390.00    2.66750   2.66595   23.366
 6391.00    2.64063   2.63832   23.507
 6392.00    2.60135   2.60368   23.702
 6393.00    2.56604   2.57943   23.935
 6394.00    2.55004   2.58104   24.264
 6395.00    2.56886   2.60641   24.549
 6396.00    2.59174   2.63497   24.591
 6397.00    2.59036   2.64310   24.339
 6398.00    2.57322   2.62270   24.140
 6399.00    2.53488   2.58957   24.221
 6400.00    2.49881   2.57273   24.499
 6401.00    2.50702   2.58968   24.987
 6402.00    2.54582   2.63141   25.358
 6403.00    2.57574   2.67333   25.278
 6404.00    2.58515   2.69543   24.917
 6405.00    2.57443   2.69213   24.663
 6406.00    2.54342   2.67148   24.659
 6407.00    2.49752   2.64899   24.772
 6408.00    2.46805   2.63655   25.032
 6409.00    2.45883   2.63387   25.420
 6410.00    2.44534   2.63247   25.741
 6411.00    2.42744   2.62794   -1.000
 6412.00    2.40706   2.62476   -1.000
 6413.00    2.39663   2.62893   -1.000
 6414.00    2.39218   2.64046   -1.000
 6415.00    2.38401   2.65406   -1.000
 6416.00    2.37823   2.66232   -1.000
 6417.00    2.36607   2.65823   -1.000
 6418.00    2.34453   2.63934   -1.000
 6419.00    2.31863   2.61237   -1.000
 6420.00    2.27829   2.59260   -1.000
 6421.00    2.24781   2.59468   -1.000
 6422.00    2.25614   2.62027   -1.000
 6423.00    2.26936   2.65649   -1.000
 6424.00    2.26243   2.68861   -1.000
 6425.00    2.25361   2.71059   -1.000
 6426.00    2.25203   2.72203   -1.000
 6427.00    2.24733   2.71987   -1.000
 6428.00    2.21881   2.69921   -1.000
