###################################################################
## OUTPUT of StarlightChains_v04.for    [Cid@UFSC - 01/Apr/2007] ##
###################################################################

## Some input info
NGC5946_a_1.cxt                          [arq_obs]
Base.BC03.N                              [arq_base]
NGC5946_a_1.msk                          [arq_masks]
StCv04.C99.config                        [arq_config]
   45                                    [N_base]
    0                                    [N_YAV_components = # of components with extra extinction!]
    0                                    [i_FitPowerLaw (1/0 = Yes/No)]
-9.99                                    [alpha_PowerLaw]
CCM                                      [red_law_option]
 1.458241                                [q_norm = A(l_norm)/A(V)]

## (Re)Sampling Parameters
 3359.00                                 [l_ini (A)]
 6428.00                                 [l_fin (A)]
    1.00                                 [dl    (A)]     (OBS: dl_cushion =    50.00 A)

## Normalization info
 4020.00                                 [l_norm (A) - for base]
 4010.00                                 [llow_norm (A) - window for f_obs]
 4060.00                                 [lupp_norm (A) - window for f_obs]
2.679293E-15                             [fobs_norm (in input units)]

## S/N
 4730.00                                 [llow_SN (A) - window for S/N]
 4780.00                                 [lupp_SN (A) - window for S/N]
  76.219                                 [S/N in S/N window]
  50.437                                 [S/N in norm. window]
 152.898                                 [S/N_err in S/N window]
 101.177                                 [S/N_err in norm. window]
  1.0000                                 [fscale_chi2]

## etc...
  2147483630                             [idum_orig]
  3068                                   [NOl_eff]
   846                                   [Nl_eff]
  2222    NSIGMA                         [Ntot_cliped & clip_method]
  1501640                                [Nglobal_steps]
   7                                     [N_chains]
   7                                     [NEX0s_base = N_base in EX0s-fits]
 0   0   1      136   2.0   2.373E+02    [Clip-Bug, RC-Crash & Burn-In warning-flags, n_censored_weights, wei_nsig_threshold & wei_limit]
    24     24.685     24.677      0.008  [idt_all, wdt_TotTime, wdt_UsrTime & wdt_SysTime (sec)]

## Synthesis Results - Best model ##

 2.72765E+00                             [chi2/Nl_eff]
     1.93739                             [adev (%)]

    99.93677                             [sum-of-x (%)]
 6.79375E-14                             [Flux_tot (units of input spectrum!)]
 4.32795E-10                             [Mini_tot (???)]
 2.35069E-10                             [Mcor_tot (???)]

 -37.37                                  [v0_min  (km/s)]
 129.42                                  [vd_min  (km/s)]
 2.4076                                  [AV_min  (mag)]
 0.0000                                  [YAV_min (mag)]

# j     x_j(%)      Mini_j(%)     Mcor_j(%)     age_j(yr)     Z_j      (L/M)_j    YAV?  Mstars   component_j        a/Fe...       SSP_chi2r SSP_adev(%)   SSP_AV   SSP_x(%)
  1      0.0000     0.0000E+00    0.0000E+00    1.000000E+06  0.00400  1.114E-02    0   1.0000   age020_m42            0.0000     1.9926E+03    30.9512   4.0000    96.0057
  2     10.9014     4.2041E-02    7.7395E-02    3.160000E+06  0.00400  4.073E-02    0   0.9999   age045_m42            0.0000     1.3259E+02     8.3159   4.0000    99.2523
  3      0.0000     0.0000E+00    0.0000E+00    5.010000E+06  0.00400  2.534E-02    0   0.9488   age055_m42            0.0000     6.3263E+02    18.2910   4.0000    99.4208
  4     20.8689     2.5790E-01    4.2080E-01    1.000000E+07  0.00400  1.271E-02    0   0.8862   age070_m42            0.0000     7.8189E+01     7.8581   3.8776    91.1611
  5      3.6310     1.1249E-01    1.6929E-01    2.512000E+07  0.00400  5.070E-03    0   0.8174   age090_m42            0.0000     6.3041E+01     7.0739   3.7524    92.7276
  6      0.0000     0.0000E+00    0.0000E+00    4.000000E+07  0.00400  3.505E-03    0   0.7851   age104_m42            0.0000     3.0474E+01     4.9484   3.4487    95.6246
  7      0.0000     0.0000E+00    0.0000E+00    1.015200E+08  0.00400  2.268E-03    0   0.7207   age116_m42            0.0000     2.1526E+02    10.7929   3.4966   103.2757
  8      0.0000     0.0000E+00    0.0000E+00    2.861200E+08  0.00400  1.079E-03    0   0.6613   age125_m42            0.0000     2.5260E+02    12.0473   3.0111   104.8544
  9      0.0048     1.4792E-03    1.6877E-03    6.405400E+08  0.00400  5.077E-04    0   0.6197   age132_m42            0.0000     2.7670E+02    12.9831   2.6621   108.3282
 10     22.6151     1.0049E+01    1.1145E+01    9.047900E+08  0.00400  3.535E-04    0   0.6024   age135_m42            0.0000     1.8275E+02    10.7928   2.4191   107.8179
 11      0.0000     0.0000E+00    0.0000E+00    1.434000E+09  0.00400  1.910E-04    0   0.5716   age139_m42            0.0000     1.0551E+02     8.5350   1.8942   107.0205
 12     28.9175     4.6264E+01    4.6533E+01    2.500000E+09  0.00400  9.818E-05    0   0.5463   age150_m42            0.0000     6.1998E+01     6.3082   1.6077   103.0198
 13     12.9981     4.3274E+01    4.1653E+01    5.000000E+09  0.00400  4.718E-05    0   0.5228   age161_m42            0.0000     6.7570E+01     5.8743   1.4324   100.0952
 14      0.0000     0.0000E+00    0.0000E+00    1.100000E+10  0.00400  2.205E-05    0   0.4980   age185_m42            0.0000     1.3011E+02     7.6663   1.1721    98.2355
 15      0.0000     0.0000E+00    0.0000E+00    1.300000E+10  0.00400  1.883E-05    0   0.4927   age193_m42            0.0000     1.3992E+02     7.9706   1.1543    98.1328
 16      0.0000     0.0000E+00    0.0000E+00    1.000000E+06  0.02000  1.989E-02    0   1.0000   age020_m62            0.0000     1.8952E+03    29.9962   4.0000    96.5834
 17      0.0000     0.0000E+00    0.0000E+00    3.160000E+06  0.02000  3.772E-02    0   0.9858   age045_m62            0.0000     1.5126E+03    27.4049   4.0000    98.2552
 18      0.0000     0.0000E+00    0.0000E+00    5.010000E+06  0.02000  3.227E-02    0   0.9342   age055_m62            0.0000     3.9192E+02    14.3546   4.0000   100.4813
 19      0.0000     0.0000E+00    0.0000E+00    1.000000E+07  0.02000  1.011E-02    0   0.8751   age070_m62            0.0000     2.4602E+02    13.0867   3.8794    87.8673
 20      0.0000     0.0000E+00    0.0000E+00    2.512000E+07  0.02000  4.206E-03    0   0.8099   age090_m62            0.0000     1.5843E+02    10.8675   3.8196    88.7597
 21      0.0000     0.0000E+00    0.0000E+00    4.000000E+07  0.02000  3.373E-03    0   0.7799   age104_m62            0.0000     3.5802E+01     4.4921   3.6642    96.7676
 22      0.0000     0.0000E+00    0.0000E+00    1.015200E+08  0.02000  1.878E-03    0   0.7221   age116_m62            0.0000     1.7503E+02     9.4928   3.5144   103.8418
 23      0.0000     0.0000E+00    0.0000E+00    2.861200E+08  0.02000  8.869E-04    0   0.6700   age125_m62            0.0000     4.2853E+02    15.6730   3.0407   109.4038
 24      0.0000     0.0000E+00    0.0000E+00    6.405400E+08  0.02000  3.657E-04    0   0.6322   age132_m62            0.0000     3.1754E+02    13.9495   2.3739   112.4245
 25      0.0000     0.0000E+00    0.0000E+00    9.047900E+08  0.02000  2.312E-04    0   0.6152   age135_m62            0.0000     1.9824E+02    11.3135   1.9942   111.8773
 26      0.0000     0.0000E+00    0.0000E+00    1.434000E+09  0.02000  1.168E-04    0   0.5865   age139_m62            0.0000     9.6730E+01     7.6922   1.5625   106.9535
 27      0.0000     0.0000E+00    0.0000E+00    2.500000E+09  0.02000  5.505E-05    0   0.5610   age150_m62            0.0000     1.3105E+02     8.2171   1.1916   104.4020
 28      0.0000     0.0000E+00    0.0000E+00    5.000000E+09  0.02000  2.596E-05    0   0.5353   age161_m62            0.0000     2.3907E+02    10.6755   0.8650   104.5647
 29      0.0000     0.0000E+00    0.0000E+00    1.100000E+10  0.02000  1.169E-05    0   0.5103   age185_m62            0.0000     3.7549E+02    13.2171   0.5033   106.2726
 30      0.0000     0.0000E+00    0.0000E+00    1.300000E+10  0.02000  9.691E-06    0   0.5047   age193_m62            0.0000     4.0293E+02    13.6759   0.4581   106.5409
 31      0.0000     0.0000E+00    0.0000E+00    1.000000E+06  0.05000  2.651E-02    0   0.9998   age020_m72            0.0000     1.8662E+03    29.5009   4.0000    97.7254
 32      0.0000     0.0000E+00    0.0000E+00    3.160000E+06  0.05000  4.817E-02    0   0.9577   age045_m72            0.0000     1.0913E+03    23.2987   4.0000   100.8422
 33      0.0000     0.0000E+00    0.0000E+00    5.010000E+06  0.05000  3.101E-02    0   0.9147   age055_m72            0.0000     4.6010E+02    16.5131   4.0000    98.8507
 34      0.0000     0.0000E+00    0.0000E+00    1.000000E+07  0.05000  8.954E-03    0   0.8524   age070_m72            0.0000     8.3265E+02    20.5568   4.0000   100.6959
 35      0.0000     0.0000E+00    0.0000E+00    2.512000E+07  0.05000  4.207E-03    0   0.7902   age090_m72            0.0000     1.9305E+02    10.2028   4.0000    99.9166
 36      0.0000     0.0000E+00    0.0000E+00    4.000000E+07  0.05000  3.198E-03    0   0.7618   age104_m72            0.0000     9.8516E+01     6.6697   3.8728   100.1394
 37      0.0000     0.0000E+00    0.0000E+00    1.015200E+08  0.05000  1.716E-03    0   0.7092   age116_m72            0.0000     2.2310E+02    10.7614   3.6113   103.7963
 38      0.0000     0.0000E+00    0.0000E+00    2.861200E+08  0.05000  7.047E-04    0   0.6618   age125_m72            0.0000     4.2016E+02    15.6882   2.8462   109.8791
 39      0.0000     0.0000E+00    0.0000E+00    6.405400E+08  0.05000  2.633E-04    0   0.6253   age132_m72            0.0000     2.5827E+02    12.8137   2.0043   112.0544
 40      0.0000     0.0000E+00    0.0000E+00    9.047900E+08  0.05000  1.484E-04    0   0.6088   age135_m72            0.0000     1.5793E+02    10.0970   1.5137   107.4985
 41      0.0000     0.0000E+00    0.0000E+00    1.434000E+09  0.05000  7.827E-05    0   0.5847   age139_m72            0.0000     1.8477E+02     9.8321   1.1173   104.6224
 42      0.0000     0.0000E+00    0.0000E+00    2.500000E+09  0.05000  3.759E-05    0   0.5583   age150_m72            0.0000     2.5876E+02    11.1111   0.7919   104.2163
 43      0.0000     0.0000E+00    0.0000E+00    5.000000E+09  0.05000  1.548E-05    0   0.5320   age161_m72            0.0000     3.8260E+02    13.1189   0.3851   104.1257
 44      0.0000     0.0000E+00    0.0000E+00    1.100000E+10  0.05000  6.532E-06    0   0.5070   age185_m72            0.0000     5.5006E+02    15.6435   0.0110   104.4105
 45      0.0000     0.0000E+00    0.0000E+00    1.300000E+10  0.05000  5.316E-06    0   0.5018   age193_m72            0.0000     6.2264E+02    16.6860  -0.1049   104.6331


## Synthesis Results - Average & Chains ##

# j      x_j: min, <> & last-chain-values for 1 ...  7 chains
  1      0.0000      0.0189      0.0000      0.0000      0.0000      0.0000      0.0000      0.0000      0.0000
  2     10.9014     11.3546     11.4938     11.0863     11.6021     11.3535     11.6533     11.4185     11.1748
  3      0.0000      0.0577      0.0000      0.1232      0.2851      0.0000      0.0869      0.0000      0.0000
  4     20.8689     18.0652     17.9613     18.5383     18.0957     18.6480     18.4427     18.2018     18.2406
  5      3.6310      4.6308      4.7886      4.7357      4.6097      4.6820      4.3878      4.6881      4.7475
  6      0.0000      0.0498      0.0000      0.0000      0.0499      0.0000      0.0000      0.0042      0.0000
  7      0.0000      0.1002      0.0246      0.0000      0.1097      0.0000      0.0891      0.0731      0.0000
  8      0.0000      0.0473      0.0493      0.0000      0.0000      0.0229      0.0000      0.0000      0.0000
  9      0.0048      0.2922      0.2615      0.2068      0.1562      0.4751      0.5098      0.0000      0.8311
 10     22.6151     21.6753     22.3826     22.2697     21.8831     21.9352     21.5861     22.6161     21.3436
 11      0.0000      0.2640      0.3092      0.0000      0.4094      0.1552      0.0000      0.2699      0.7182
 12     28.9175     27.4618     27.0740     27.6395     27.4840     27.6172     28.2113     26.9614     27.3235
 13     12.9981     13.8710     13.7369     13.9925     13.9510     13.7074     13.7414     13.9599     13.7129
 14      0.0000      0.0212      0.0000      0.0000      0.0000      0.0000      0.0000      0.0000      0.0000
 15      0.0000      0.0132      0.0000      0.0000      0.0000      0.0000      0.0000      0.0209      0.0000
 16      0.0000      0.0210      0.0000      0.0000      0.0000      0.0000      0.0000      0.0000      0.0723
 17      0.0000      0.0161      0.0000      0.0000      0.0000      0.0085      0.0000      0.0000      0.0000
 18      0.0000      0.5073      0.7962      0.5282      0.5785      0.4675      0.4641      0.5410      0.7406
 19      0.0000      0.0502      0.0000      0.0000      0.0283      0.0000      0.0000      0.2255      0.0000
 20      0.0000      0.0199      0.0000      0.0000      0.0194      0.0000      0.0000      0.0000      0.0000
 21      0.0000      0.0309      0.0000      0.0000      0.0000      0.0000      0.0000      0.0000      0.0000
 22      0.0000      0.0642      0.0000      0.0871      0.0991      0.0000      0.0961      0.0230      0.0000
 23      0.0000      0.0456      0.0000      0.0000      0.0000      0.0032      0.0000      0.0000      0.0000
 24      0.0000      0.0430      0.0000      0.0000      0.0198      0.0000      0.0000      0.0000      0.0000
 25      0.0000      0.0671      0.0000      0.0000      0.1624      0.0000      0.0000      0.0000      0.0000
 26      0.0000      0.0895      0.0000      0.0000      0.0448      0.0000      0.0080      0.0000      0.0000
 27      0.0000      0.3491      0.7008      0.4322      0.0469      0.4284      0.4315      0.5684      0.4290
 28      0.0000      0.0801      0.0000      0.1932      0.0797      0.1018      0.0000      0.0942      0.0000
 29      0.0000      0.0538      0.0656      0.0000      0.0703      0.0434      0.0000      0.0325      0.0847
 30      0.0000      0.0219      0.1326      0.0000      0.0000      0.0000      0.0000      0.0679      0.0753
 31      0.0000      0.0145      0.0629      0.0250      0.0000      0.0000      0.0000      0.0000      0.0000
 32      0.0000      0.1069      0.0946      0.0000      0.0000      0.0527      0.0700      0.0679      0.0435
 33      0.0000      0.0498      0.0000      0.0000      0.0000      0.0413      0.0000      0.1104      0.1631
 34      0.0000      0.0247      0.0000      0.0000      0.0000      0.0000      0.0000      0.0000      0.0000
 35      0.0000      0.0213      0.0000      0.0000      0.0000      0.0000      0.0000      0.0000      0.0000
 36      0.0000      0.0317      0.0000      0.0203      0.0084      0.0293      0.0000      0.0000      0.0000
 37      0.0000      0.0503      0.0000      0.0000      0.0201      0.0000      0.0248      0.0000      0.0000
 38      0.0000      0.0291      0.0000      0.0395      0.0161      0.0055      0.0000      0.0000      0.0000
 39      0.0000      0.0513      0.0000      0.0000      0.0000      0.0000      0.0000      0.0000      0.0000
 40      0.0000      0.0664      0.0000      0.0000      0.0000      0.0054      0.0000      0.0417      0.0151
 41      0.0000      0.1035      0.0510      0.0886      0.1007      0.0000      0.0000      0.0000      0.2760
 42      0.0000      0.0377      0.0000      0.0000      0.0477      0.1677      0.1221      0.0000      0.0000
 43      0.0000      0.0128      0.0464      0.0000      0.0000      0.0000      0.0000      0.0000      0.0077
 44      0.0000      0.0192      0.0000      0.0000      0.0000      0.0119      0.0000      0.0000      0.0000
 45      0.0000      0.0090      0.0000      0.0000      0.0000      0.0000      0.0381      0.0000      0.0000

# j      m_j: min, <> & last-chain-values for 1 ...  7 chains
  1  0.0000E+00  4.6921E-04  0.0000E+00  0.0000E+00  0.0000E+00  0.0000E+00  0.0000E+00  0.0000E+00  0.0000E+00
  2  7.7395E-02  7.7036E-02  7.7624E-02  7.5912E-02  8.0007E-02  7.7821E-02  7.9718E-02  7.7900E-02  7.6152E-02
  3  0.0000E+00  5.9689E-04  0.0000E+00  1.2862E-03  2.9984E-03  0.0000E+00  9.0700E-04  0.0000E+00  0.0000E+00
  4  4.2080E-01  3.4810E-01  3.4452E-01  3.6053E-01  3.5442E-01  3.6303E-01  3.5833E-01  3.5268E-01  3.5304E-01
  5  1.6929E-01  2.0633E-01  2.1238E-01  2.1296E-01  2.0876E-01  2.1076E-01  1.9712E-01  2.1004E-01  2.1247E-01
  6  0.0000E+00  3.0820E-03  0.0000E+00  0.0000E+00  3.1395E-03  0.0000E+00  0.0000E+00  2.6029E-04  0.0000E+00
  7  0.0000E+00  8.7958E-03  2.1548E-03  0.0000E+00  9.7908E-03  0.0000E+00  7.8908E-03  6.4539E-03  0.0000E+00
  8  0.0000E+00  8.0071E-03  8.3152E-03  0.0000E+00  0.0000E+00  3.9184E-03  0.0000E+00  0.0000E+00  0.0000E+00
  9  1.6877E-03  9.8574E-02  8.7814E-02  7.0390E-02  5.3569E-02  1.6193E-01  1.7340E-01  0.0000E+00  2.8161E-01
 10  1.1145E+01  1.0208E+01  1.0493E+01  1.0585E+01  1.0475E+01  1.0437E+01  1.0250E+01  1.0710E+01  1.0096E+01
 11  0.0000E+00  2.1833E-01  2.5455E-01  0.0000E+00  3.4413E-01  1.2964E-01  0.0000E+00  2.2450E-01  5.9660E-01
 12  4.6533E+01  4.2230E+01  4.1443E+01  4.2897E+01  4.2958E+01  4.2905E+01  4.3742E+01  4.1690E+01  4.2203E+01
 13  4.1653E+01  4.2478E+01  4.1875E+01  4.3247E+01  4.3424E+01  4.2409E+01  4.2430E+01  4.2988E+01  4.2180E+01
 14  0.0000E+00  1.3231E-01  0.0000E+00  0.0000E+00  0.0000E+00  0.0000E+00  0.0000E+00  0.0000E+00  0.0000E+00
 15  0.0000E+00  9.5601E-02  0.0000E+00  0.0000E+00  0.0000E+00  0.0000E+00  0.0000E+00  1.5175E-01  0.0000E+00
 16  0.0000E+00  2.9151E-04  0.0000E+00  0.0000E+00  0.0000E+00  0.0000E+00  0.0000E+00  0.0000E+00  1.0092E-03
 17  0.0000E+00  1.1642E-04  0.0000E+00  0.0000E+00  0.0000E+00  6.1801E-05  0.0000E+00  0.0000E+00  0.0000E+00
 18  0.0000E+00  4.0589E-03  6.3411E-03  4.2652E-03  4.7046E-03  3.7790E-03  3.7439E-03  4.3520E-03  5.9514E-03
 19  0.0000E+00  1.1998E-03  0.0000E+00  0.0000E+00  6.8714E-04  0.0000E+00  0.0000E+00  5.4252E-03  0.0000E+00
 20  0.0000E+00  1.0594E-03  0.0000E+00  0.0000E+00  1.0507E-03  0.0000E+00  0.0000E+00  0.0000E+00  0.0000E+00
 21  0.0000E+00  1.9773E-03  0.0000E+00  0.0000E+00  0.0000E+00  0.0000E+00  0.0000E+00  0.0000E+00  0.0000E+00
 22  0.0000E+00  6.8269E-03  0.0000E+00  9.3400E-03  1.0699E-02  0.0000E+00  1.0302E-02  2.4614E-03  0.0000E+00
 23  0.0000E+00  9.5268E-03  0.0000E+00  0.0000E+00  0.0000E+00  6.6948E-04  0.0000E+00  0.0000E+00  0.0000E+00
 24  0.0000E+00  2.0528E-02  0.0000E+00  0.0000E+00  9.6212E-03  0.0000E+00  0.0000E+00  0.0000E+00  0.0000E+00
 25  0.0000E+00  4.9345E-02  0.0000E+00  0.0000E+00  1.2135E-01  0.0000E+00  0.0000E+00  0.0000E+00  0.0000E+00
 26  0.0000E+00  1.2416E-01  0.0000E+00  0.0000E+00  6.3230E-02  0.0000E+00  1.1200E-02  0.0000E+00  0.0000E+00
 27  0.0000E+00  9.8320E-01  1.9648E+00  1.2285E+00  1.3433E-01  1.2189E+00  1.2253E+00  1.6096E+00  1.2134E+00
 28  0.0000E+00  4.5665E-01  0.0000E+00  1.1114E+00  4.6167E-01  5.8591E-01  0.0000E+00  5.3996E-01  0.0000E+00
 29  0.0000E+00  6.4905E-01  7.8729E-01  0.0000E+00  8.6142E-01  5.2934E-01  0.0000E+00  3.9397E-01  1.0261E+00
 30  0.0000E+00  3.1450E-01  1.8991E+00  0.0000E+00  0.0000E+00  0.0000E+00  0.0000E+00  9.8331E-01  1.0889E+00
 31  0.0000E+00  1.5090E-04  6.5311E-04  2.6249E-04  0.0000E+00  0.0000E+00  0.0000E+00  0.0000E+00  0.0000E+00
 32  0.0000E+00  5.8710E-04  5.1725E-04  0.0000E+00  0.0000E+00  2.9250E-04  3.8762E-04  3.7500E-04  2.4020E-04
 33  0.0000E+00  4.0563E-04  0.0000E+00  0.0000E+00  0.0000E+00  3.4032E-04  0.0000E+00  9.0499E-04  1.3357E-03
 34  0.0000E+00  6.4912E-04  0.0000E+00  0.0000E+00  0.0000E+00  0.0000E+00  0.0000E+00  0.0000E+00  0.0000E+00
 35  0.0000E+00  1.1061E-03  0.0000E+00  0.0000E+00  0.0000E+00  0.0000E+00  0.0000E+00  0.0000E+00  0.0000E+00
 36  0.0000E+00  2.0893E-03  0.0000E+00  1.3481E-03  5.6107E-04  1.9514E-03  0.0000E+00  0.0000E+00  0.0000E+00
 37  0.0000E+00  5.7416E-03  0.0000E+00  0.0000E+00  2.3307E-03  0.0000E+00  2.8540E-03  0.0000E+00  0.0000E+00
 38  0.0000E+00  7.5445E-03  0.0000E+00  1.0345E-02  4.2559E-03  1.4534E-03  0.0000E+00  0.0000E+00  0.0000E+00
 39  0.0000E+00  3.3683E-02  0.0000E+00  0.0000E+00  0.0000E+00  0.0000E+00  0.0000E+00  0.0000E+00  0.0000E+00
 40  0.0000E+00  7.5249E-02  0.0000E+00  0.0000E+00  0.0000E+00  6.1594E-03  0.0000E+00  4.7508E-02  1.7232E-02
 41  0.0000E+00  2.1372E-01  1.0480E-01  1.8459E-01  2.1135E-01  0.0000E+00  0.0000E+00  0.0000E+00  5.7236E-01
 42  0.0000E+00  1.5485E-01  0.0000E+00  0.0000E+00  1.9889E-01  6.9535E-01  5.0545E-01  0.0000E+00  0.0000E+00
 43  0.0000E+00  1.2174E-01  4.3833E-01  0.0000E+00  0.0000E+00  0.0000E+00  0.0000E+00  0.0000E+00  7.3803E-02
 44  0.0000E+00  4.1119E-01  0.0000E+00  0.0000E+00  0.0000E+00  2.5798E-01  0.0000E+00  0.0000E+00  0.0000E+00
 45  0.0000E+00  2.3531E-01  0.0000E+00  0.0000E+00  0.0000E+00  0.0000E+00  1.0011E+00  0.0000E+00  0.0000E+00

# AV, chi2 & Mass for <> & i_chain = 1 ...  7 solutions
AV       2.4076      2.3943      2.3965      2.3933      2.4030      2.3971      2.3957      2.3993      2.3956
chi2 2.7277E+00  2.7552E+00  2.7452E+00  2.7471E+00  2.7476E+00  2.7383E+00  2.7437E+00  2.7432E+00  2.7454E+00
Mass 2.3507E-10  2.4162E-10  2.4345E-10  2.3909E-10  2.4050E-10  2.4005E-10  2.4007E-10  2.4191E-10  2.4096E-10
 -37.55                                  [v0_min (km/s) before EX0s...]
 130.25                                  [vd_min (km/s) before EX0s...]


## Synthetic spectrum (Best Model) ##l_obs f_obs f_syn wei
 3070    [Nl_obs]
 3359.00    0.28728   0.43862   -1.000
 3360.00    0.26005   0.43257   -1.000
 3361.00    0.24948   0.43452   -1.000
 3362.00    0.24920   0.44314   -1.000
 3363.00    0.24001   0.45329   -1.000
 3364.00    0.26099   0.45917   -1.000
 3365.00    0.28604   0.45773   -1.000
 3366.00    0.28813   0.45025   -1.000
 3367.00    0.26113   0.44106   -1.000
 3368.00    0.28413   0.43412   -1.000
 3369.00    0.31262   0.43071   -1.000
 3370.00    0.29003   0.42938   -1.000
 3371.00    0.27319   0.42931   -1.000
 3372.00    0.30322   0.43228   -1.000
 3373.00    0.33068   0.44016   -1.000
 3374.00    0.34053   0.45219   -1.000
 3375.00    0.36256   0.46297   -1.000
 3376.00    0.36307   0.46685   -1.000
 3377.00    0.34369   0.46294   -1.000
 3378.00    0.33646   0.45500   -1.000
 3379.00    0.35705   0.44934   -1.000
 3380.00    0.34236   0.44956   -1.000
 3381.00    0.33602   0.45558   -1.000
 3382.00    0.34441   0.46414   -1.000
 3383.00    0.32921   0.47221   -1.000
 3384.00    0.31895   0.47859   -1.000
 3385.00    0.32922   0.48278   -1.000
 3386.00    0.34216   0.48463   -1.000
 3387.00    0.35088   0.48468   -1.000
 3388.00    0.37710   0.48371   -1.000
 3389.00    0.38801   0.48213   -1.000
 3390.00    0.39373   0.47962   35.486
 3391.00    0.38609   0.47632   -1.000
 3392.00    0.35882   0.47401   -1.000
 3393.00    0.34472   0.47511   -1.000
 3394.00    0.36593   0.48045   -1.000
 3395.00    0.40244   0.48841   30.924
 3396.00    0.39518   0.49594   30.007
 3397.00    0.39361   0.50055   -1.000
 3398.00    0.42993   0.50102   28.208
 3399.00    0.43477   0.49787   28.117
 3400.00    0.44750   0.49242   28.801
 3401.00    0.46822   0.48573   29.659
 3402.00    0.45537   0.47927   30.048
 3403.00    0.41932   0.47426   30.589
 3404.00    0.43348   0.47072   31.122
 3405.00    0.43526   0.46786   31.467
 3406.00    0.41126   0.46551   31.766
 3407.00    0.43799   0.46442   32.133
 3408.00    0.47858   0.46563   32.137
 3409.00    0.45616   0.46876   31.581
 3410.00    0.41370   0.47186   30.930
 3411.00    0.41471   0.47349   31.387
 3412.00    0.42753   0.47351   32.427
 3413.00    0.41209   0.47344   32.714
 3414.00    0.40834   0.47490   32.297
 3415.00    0.42124   0.47894   31.215
 3416.00    0.44220   0.48547   29.804
 3417.00    0.44505   0.49346   28.346
 3418.00    0.43748   0.50105   27.502
 3419.00    0.44007   0.50612   27.368
 3420.00    0.44546   0.50732   27.337
 3421.00    0.46247   0.50525   27.791
 3422.00    0.47725   0.50169   28.533
 3423.00    0.45320   0.49874   28.509
 3424.00    0.42582   0.49771   27.706
 3425.00    0.43365   0.49931   27.238
 3426.00    0.47416   0.50359   45.023
 3427.00    0.48355   0.50994   -1.000
 3428.00    0.47852   0.51585   -1.000
 3429.00    0.47885   0.51859   -1.000
 3430.00    0.48941   0.51710   -1.000
 3431.00    0.50280   0.51266   54.456
 3432.00    0.48577   0.50828   27.191
 3433.00    0.46085   0.50603   45.090
 3434.00    0.46621   0.50611   -1.000
 3435.00    0.46914   0.50642   53.878
 3436.00    0.46889   0.50438   27.637
 3437.00    0.47881   0.49816   29.105
 3438.00    0.45607   0.48759   31.110
 3439.00    0.43941   0.47429   33.055
 3440.00    0.45926   0.46199   33.800
 3441.00    0.43634   0.45445   33.756
 3442.00    0.43417   0.45342   33.055
 3443.00    0.47858   0.45758   31.499
 3444.00    0.47507   0.46482   29.761
 3445.00    0.44309   0.47417   28.397
 3446.00    0.46556   0.48518   46.619
 3447.00    0.48777   0.49644  237.300
 3448.00    0.46053   0.50472   -1.000
 3449.00    0.46623   0.50668   -1.000
 3450.00    0.51152   0.50216  237.300
 3451.00    0.50218   0.49387  237.300
 3452.00    0.47070   0.48643   -1.000
 3453.00    0.47355   0.48302  237.300
 3454.00    0.47112   0.48355  237.300
 3455.00    0.47585   0.48541  237.300
 3456.00    0.49267   0.48530  237.300
 3457.00    0.51225   0.48214   53.075
 3458.00    0.50691   0.47709   27.328
 3459.00    0.50606   0.47243   27.444
 3460.00    0.49797   0.47058   46.247
 3461.00    0.45850   0.47306  237.300
 3462.00    0.46222   0.47900   -1.000
 3463.00    0.47451   0.48550  237.300
 3464.00    0.46845   0.49065   -1.000
 3465.00    0.48608   0.49407  237.300
 3466.00    0.49869   0.49685  237.300
 3467.00    0.50106   0.49974  233.860
 3468.00    0.51623   0.50255   -1.000
 3469.00    0.53125   0.50447   -1.000
 3470.00    0.52825   0.50416   -1.000
 3471.00    0.53547   0.50070   -1.000
 3472.00    0.53618   0.49406   -1.000
 3473.00    0.51351   0.48525   52.831
 3474.00    0.50143   0.47688   27.857
 3475.00    0.50839   0.47196   28.126
 3476.00    0.49930   0.47211   47.327
 3477.00    0.48018   0.47645  237.300
 3478.00    0.50873   0.48264   -1.000
 3479.00    0.53494   0.48803   -1.000
 3480.00    0.53326   0.49087   -1.000
 3481.00    0.53978   0.49077   -1.000
 3482.00    0.52787   0.48922   -1.000
 3483.00    0.52176   0.48912   -1.000
 3484.00    0.53865   0.49266   -1.000
 3485.00    0.54512   0.49936   -1.000
 3486.00    0.54998   0.50540   -1.000
 3487.00    0.54128   0.50702   -1.000
 3488.00    0.53715   0.50323   -1.000
 3489.00    0.54486   0.49682   -1.000
 3490.00    0.51494   0.49186   -1.000
 3491.00    0.47540   0.48997  237.300
 3492.00    0.48594   0.48970  237.300
 3493.00    0.50921   0.48859   -1.000
 3494.00    0.52891   0.48623   -1.000
 3495.00    0.52657   0.48461   -1.000
 3496.00    0.50631   0.48628   -1.000
 3497.00    0.53197   0.49177   -1.000
 3498.00    0.54198   0.49825   -1.000
 3499.00    0.52821   0.50303   -1.000
 3500.00    0.52112   0.50579   -1.000
 3501.00    0.49856   0.50743  211.150
 3502.00    0.51534   0.50848  213.214
 3503.00    0.53406   0.50786   -1.000
 3504.00    0.52970   0.50507   -1.000
 3505.00    0.52562   0.50147   -1.000
 3506.00    0.50825   0.49886  219.483
 3507.00    0.48494   0.49788  219.510
 3508.00    0.50563   0.49734  225.006
 3509.00    0.54258   0.49567   -1.000
 3510.00    0.54172   0.49233   -1.000
 3511.00    0.51277   0.48824   -1.000
 3512.00    0.48706   0.48495  237.300
 3513.00    0.48901   0.48493  237.300
 3514.00    0.50299   0.48964   -1.000
 3515.00    0.50552   0.49802  225.146
 3516.00    0.49102   0.50724  216.513
 3517.00    0.52010   0.51339  218.059
 3518.00    0.55905   0.51414   -1.000
 3519.00    0.54435   0.50956   -1.000
 3520.00    0.51640   0.50176   -1.000
 3521.00    0.51306   0.49327   -1.000
 3522.00    0.51149   0.48546   50.675
 3523.00    0.51092   0.47937   27.616
 3524.00    0.50865   0.47613   28.039
 3525.00    0.49288   0.47716   49.167
 3526.00    0.49911   0.48318   -1.000
 3527.00    0.50641   0.49273   -1.000
 3528.00    0.51833   0.50262   -1.000
 3529.00    0.51516   0.50990  227.798
 3530.00    0.51568   0.51372  231.052
 3531.00    0.52967   0.51542   -1.000
 3532.00    0.50304   0.51706  227.271
 3533.00    0.48387   0.51955   -1.000
 3534.00    0.51485   0.52259  218.829
 3535.00    0.52263   0.52542  217.749
 3536.00    0.48145   0.52789   -1.000
 3537.00    0.47402   0.53040   -1.000
 3538.00    0.51856   0.53283  214.137
 3539.00    0.56328   0.53463   -1.000
 3540.00    0.55914   0.53570   -1.000
 3541.00    0.55625   0.53704   -1.000
 3542.00    0.55935   0.53911   -1.000
 3543.00    0.53072   0.54152  215.989
 3544.00    0.52122   0.54317   -1.000
 3545.00    0.52998   0.54346  222.234
 3546.00    0.51838   0.54303   -1.000
 3547.00    0.50611   0.54268   -1.000
 3548.00    0.50980   0.54292   -1.000
 3549.00    0.53776   0.54338  225.088
 3550.00    0.56452   0.54316   -1.000
 3551.00    0.55416   0.54151   -1.000
 3552.00    0.53552   0.53857  237.300
 3553.00    0.53078   0.53541  237.300
 3554.00    0.52873   0.53320  237.300
 3555.00    0.53875   0.53221  237.115
 3556.00    0.53525   0.53172  237.300
 3557.00    0.51094   0.53119   -1.000
 3558.00    0.51298   0.53104   -1.000
 3559.00    0.52375   0.53237  237.300
 3560.00    0.52207   0.53540  236.671
 3561.00    0.49657   0.53774   -1.000
 3562.00    0.49153   0.53588   -1.000
 3563.00    0.50568   0.52751   49.502
 3564.00    0.50886   0.51503   27.979
 3565.00    0.50275   0.50333   28.381
 3566.00    0.48691   0.49537   28.131
 3567.00    0.48478   0.49063   28.535
 3568.00    0.48586   0.48635   29.293
 3569.00    0.48679   0.48168   29.077
 3570.00    0.49558   0.47830   27.953
 3571.00    0.50453   0.47794   49.751
 3572.00    0.50692   0.48038   -1.000
 3573.00    0.51417   0.48384   -1.000
 3574.00    0.51910   0.48678   -1.000
 3575.00    0.51581   0.48868   -1.000
 3576.00    0.51647   0.48895   -1.000
 3577.00    0.51427   0.48669   50.818
 3578.00    0.50516   0.48122   29.453
 3579.00    0.50332   0.47352   31.444
 3580.00    0.50281   0.46612   32.388
 3581.00    0.48267   0.46108   32.550
 3582.00    0.48471   0.45861   33.034
 3583.00    0.49486   0.45690   34.006
 3584.00    0.48119   0.45450   34.803
 3585.00    0.46716   0.45234   34.101
 3586.00    0.47325   0.45265   32.313
 3587.00    0.47664   0.45731   30.674
 3588.00    0.45452   0.46636   28.508
 3589.00    0.45965   0.47798   49.998
 3590.00    0.49125   0.48933  237.300
 3591.00    0.52721   0.49829   -1.000
 3592.00    0.53997   0.50460   -1.000
 3593.00    0.50980   0.50965  233.818
 3594.00    0.51252   0.51540  224.230
 3595.00    0.52268   0.52245  215.582
 3596.00    0.52392   0.53001  209.648
 3597.00    0.52671   0.53657  205.234
 3598.00    0.51098   0.54034   -1.000
 3599.00    0.51980   0.54001   -1.000
 3600.00    0.53645   0.53515  222.393
 3601.00    0.53107   0.52688  233.726
 3602.00    0.52096   0.51776  237.300
 3603.00    0.51335   0.51052  237.300
 3604.00    0.51340   0.50658  237.300
 3605.00    0.51893   0.50502   -1.000
 3606.00    0.52026   0.50388   -1.000
 3607.00    0.50994   0.50218  237.300
 3608.00    0.50082   0.50065  237.300
 3609.00    0.50583   0.50110  237.300
 3610.00    0.50943   0.50387  237.300
 3611.00    0.50934   0.50800  236.507
 3612.00    0.51584   0.51249  231.615
 3613.00    0.52464   0.51663  225.124
 3614.00    0.53925   0.51939   -1.000
 3615.00    0.53136   0.51913   -1.000
 3616.00    0.53635   0.51456   -1.000
 3617.00    0.54902   0.50809   47.314
 3618.00    0.52691   0.50420   50.666
 3619.00    0.51382   0.50626  237.300
 3620.00    0.52503   0.51402   -1.000
 3621.00    0.53270   0.52447  215.425
 3622.00    0.52603   0.53469  211.654
 3623.00    0.53816   0.54394  206.211
 3624.00    0.56274   0.55328  197.956
 3625.00    0.57401   0.56264  192.529
 3626.00    0.58418   0.56952   -1.000
 3627.00    0.58172   0.57012  201.082
 3628.00    0.58883   0.56197   -1.000
 3629.00    0.56957   0.54735   -1.000
 3630.00    0.51754   0.53195  237.300
 3631.00    0.50946   0.52192  237.300
 3632.00    0.52418   0.51953  237.300
 3633.00    0.52945   0.52282  234.407
 3634.00    0.52889   0.52811  227.161
 3635.00    0.53695   0.53313  217.387
 3636.00    0.57133   0.53855   -1.000
 3637.00    0.57136   0.54500   -1.000
 3638.00    0.54696   0.55170  196.133
 3639.00    0.56065   0.55598  198.727
 3640.00    0.57540   0.55557   -1.000
 3641.00    0.55815   0.55046  213.898
 3642.00    0.53264   0.54260  222.722
 3643.00    0.53254   0.53463  227.738
 3644.00    0.53990   0.52832   -1.000
 3645.00    0.52837   0.52390  235.315
 3646.00    0.52363   0.52128  237.300
 3647.00    0.52985   0.52069  233.894
 3648.00    0.52638   0.52287  225.745
 3649.00    0.52857   0.52817  215.561
 3650.00    0.55019   0.53619   -1.000
 3651.00    0.57165   0.54534   -1.000
 3652.00    0.57668   0.55400   -1.000
 3653.00    0.56476   0.56125  193.925
 3654.00    0.55181   0.56708  192.409
 3655.00    0.55265   0.57225   -1.000
 3656.00    0.55774   0.57686   -1.000
 3657.00    0.57597   0.58028  186.262
 3658.00    0.59542   0.58167  186.375
 3659.00    0.58762   0.58063  187.503
 3660.00    0.57229   0.57752  189.571
 3661.00    0.58367   0.57325  192.278
 3662.00    0.58766   0.56901   -1.000
 3663.00    0.56808   0.56592  193.912
 3664.00    0.55945   0.56431  192.887
 3665.00    0.58298   0.56337   -1.000
 3666.00    0.58793   0.56218   -1.000
 3667.00    0.57995   0.56043   -1.000
 3668.00    0.57430   0.55953   -1.000
 3669.00    0.54994   0.56103  198.539
 3670.00    0.55817   0.56487  192.952
 3671.00    0.56855   0.56939  190.886
 3672.00    0.55983   0.57205  190.592
 3673.00    0.57952   0.57154  190.822
 3674.00    0.59109   0.56776   -1.000
 3675.00    0.57333   0.56154  200.410
 3676.00    0.56740   0.55437   -1.000
 3677.00    0.56666   0.54774   -1.000
 3678.00    0.55229   0.54325  214.326
 3679.00    0.55543   0.54168   -1.000
 3680.00    0.55590   0.54283   -1.000
 3681.00    0.53525   0.54533  201.249
 3682.00    0.53460   0.54696  203.188
 3683.00    0.55351   0.54589  210.109
 3684.00    0.56625   0.54152   -1.000
 3685.00    0.56603   0.53621   -1.000
 3686.00    0.55482   0.53382   -1.000
 3687.00    0.55010   0.53744   -1.000
 3688.00    0.57189   0.54648   -1.000
 3689.00    0.59251   0.55749   -1.000
 3690.00    0.58796   0.56664   -1.000
 3691.00    0.58327   0.57240  190.569
 3692.00    0.58311   0.57539  194.404
 3693.00    0.58187   0.57626  195.043
 3694.00    0.57505   0.57554  193.649
 3695.00    0.56736   0.57449  191.545
 3696.00    0.57098   0.57604  186.909
 3697.00    0.59864   0.58247   -1.000
 3698.00    0.63497   0.59257   -1.000
 3699.00    0.64866   0.60053   -1.000
 3700.00    0.63100   0.59945   -1.000
 3701.00    0.60107   0.58577   -1.000
 3702.00    0.57456   0.56282  218.074
 3703.00    0.58338   0.53891   -1.000
 3704.00    0.56048   0.52279   -1.000
 3705.00    0.54335   0.51852   -1.000
 3706.00    0.56206   0.52364   -1.000
 3707.00    0.56990   0.53230   -1.000
 3708.00    0.56613   0.53895   -1.000
 3709.00    0.56204   0.54201   -1.000
 3710.00    0.55679   0.54440  194.389
 3711.00    0.56344   0.55114  184.316
 3712.00    0.57414   0.56503  177.977
 3713.00    0.59976   0.58439   -1.000
 3714.00    0.63358   0.60364   -1.000
 3715.00    0.62515   0.61615  184.950
 3716.00    0.61612   0.61649  198.535
 3717.00    0.61406   0.60230   -1.000
 3718.00    0.59738   0.57516   -1.000
 3719.00    0.57090   0.54244   45.190
 3720.00    0.53203   0.51529   55.654
 3721.00    0.50856   0.50402  237.300
 3722.00    0.50656   0.51257  213.609
 3723.00    0.53340   0.53656  199.350
 3724.00    0.58212   0.56613   -1.000
 3725.00    0.60673   0.59178   -1.000
 3726.00    0.61794   0.60952  205.082
 3727.00    0.61836   0.61938  203.752
 3728.00    0.62316   0.62144  203.500
 3729.00    0.63424   0.61335   -1.000
 3730.00    0.60814   0.59223   -1.000
 3731.00    0.57952   0.55908   43.708
 3732.00    0.56942   0.52062   28.842
 3733.00    0.52900   0.48770   30.976
 3734.00    0.48893   0.47073   30.528
 3735.00    0.48671   0.47538   28.176
 3736.00    0.51131   0.50035   54.888
 3737.00    0.54491   0.53848  224.470
 3738.00    0.59729   0.57962   -1.000
 3739.00    0.63541   0.61411   -1.000
 3740.00    0.64552   0.63558   -1.000
 3741.00    0.65673   0.64222   -1.000
 3742.00    0.65210   0.63587   -1.000
 3743.00    0.63903   0.62016   -1.000
 3744.00    0.60259   0.59808  237.300
 3745.00    0.58213   0.57113   44.239
 3746.00    0.58853   0.54052   28.445
 3747.00    0.55248   0.50960   29.404
 3748.00    0.51563   0.48570   60.669
 3749.00    0.48990   0.47767   -1.000
 3750.00    0.48487   0.49063  218.744
 3751.00    0.51572   0.52224  199.996
 3752.00    0.56916   0.56367  187.682
 3753.00    0.62359   0.60360   -1.000
 3754.00    0.65516   0.63261   -1.000
 3755.00    0.68594   0.64578   -1.000
 3756.00    0.67023   0.64422   -1.000
 3757.00    0.63813   0.63434  237.300
 3758.00    0.64691   0.62444   -1.000
 3759.00    0.63828   0.62046   -1.000
 3760.00    0.64193   0.62323   -1.000
 3761.00    0.67208   0.62971   -1.000
 3762.00    0.68348   0.63529   -1.000
 3763.00    0.66813   0.63603   -1.000
 3764.00    0.65709   0.62957   -1.000
 3765.00    0.65621   0.61531   -1.000
 3766.00    0.64078   0.59413   -1.000
 3767.00    0.62118   0.56859   -1.000
 3768.00    0.59020   0.54339   -1.000
 3769.00    0.56741   0.52546   -1.000
 3770.00    0.55915   0.52152   -1.000
 3771.00    0.56836   0.53423   -1.000
 3772.00    0.59706   0.55983   -1.000
 3773.00    0.63258   0.59094   -1.000
 3774.00    0.63740   0.62124   -1.000
 3775.00    0.63385   0.64821  186.618
 3776.00    0.66978   0.67222  184.831
 3777.00    0.70852   0.69403   -1.000
 3778.00    0.72386   0.71360  175.026
 3779.00    0.74148   0.73007  172.716
 3780.00    0.76709   0.74249   -1.000
 3781.00    0.77479   0.75014   -1.000
 3782.00    0.77895   0.75231   -1.000
 3783.00    0.78300   0.74846   -1.000
 3784.00    0.74597   0.73858  193.041
 3785.00    0.70833   0.72435  204.751
 3786.00    0.71531   0.70887  211.061
 3787.00    0.71624   0.69532   -1.000
 3788.00    0.70555   0.68505   -1.000
 3789.00    0.70018   0.67700   -1.000
 3790.00    0.70087   0.66817   -1.000
 3791.00    0.69450   0.65509   -1.000
 3792.00    0.68071   0.63520   -1.000
 3793.00    0.66834   0.60778   -1.000
 3794.00    0.63328   0.57432   -1.000
 3795.00    0.60287   0.53903   -1.000
 3796.00    0.55771   0.50909   -1.000
 3797.00    0.52147   0.49353   -1.000
 3798.00    0.51478   0.49937   -1.000
 3799.00    0.52686   0.52681  211.399
 3800.00    0.56210   0.56868  199.231
 3801.00    0.61334   0.61390  193.227
 3802.00    0.65452   0.65310  190.938
 3803.00    0.69094   0.68142  192.347
 3804.00    0.70171   0.69897  198.030
 3805.00    0.70696   0.70936  203.395
 3806.00    0.71081   0.71788  201.541
 3807.00    0.71896   0.72854  194.549
 3808.00    0.72309   0.74156  190.285
 3809.00    0.73378   0.75321   -1.000
 3810.00    0.75738   0.75795  199.676
 3811.00    0.76197   0.75234  211.577
 3812.00    0.76175   0.73786   -1.000
 3813.00    0.74024   0.72055   -1.000
 3814.00    0.71184   0.70747  237.300
 3815.00    0.70671   0.70187  230.059
 3816.00    0.70152   0.70128  229.054
 3817.00    0.71297   0.70024   -1.000
 3818.00    0.73938   0.69523   -1.000
 3819.00    0.73244   0.68751   -1.000
 3820.00    0.70867   0.68072   -1.000
 3821.00    0.70504   0.67614   -1.000
 3822.00    0.71832   0.67111   -1.000
 3823.00    0.67858   0.66226   43.615
 3824.00    0.64199   0.64928   28.734
 3825.00    0.64607   0.63512   28.807
 3826.00    0.65818   0.62257   28.414
 3827.00    0.64588   0.61178   27.947
 3828.00    0.63994   0.60016   27.991
 3829.00    0.65727   0.58427   28.924
 3830.00    0.64851   0.56165   30.874
 3831.00    0.61759   0.53231   32.419
 3832.00    0.58695   0.49952   32.364
 3833.00    0.53313   0.46955   31.279
 3834.00    0.49969   0.44968   30.373
 3835.00    0.49307   0.44485   30.535
 3836.00    0.49957   0.45574   31.258
 3837.00    0.52551   0.47931   31.183
 3838.00    0.56013   0.51144   29.821
 3839.00    0.58461   0.54857   64.436
 3840.00    0.61730   0.58780   -1.000
 3841.00    0.65908   0.62615   -1.000
 3842.00    0.69461   0.66053   -1.000
 3843.00    0.71023   0.68881   -1.000
 3844.00    0.72301   0.71065   -1.000
 3845.00    0.73709   0.72690   -1.000
 3846.00    0.75500   0.73851   -1.000
 3847.00    0.77381   0.74588   -1.000
 3848.00    0.75962   0.75022  236.988
 3849.00    0.75118   0.75358  234.718
 3850.00    0.74877   0.75789  228.647
 3851.00    0.75331   0.76282  227.413
 3852.00    0.76019   0.76597  231.772
 3853.00    0.77842   0.76504   -1.000
 3854.00    0.78566   0.75974   -1.000
 3855.00    0.75809   0.75170  237.300
 3856.00    0.75777   0.74319   40.536
 3857.00    0.77350   0.73637   27.910
 3858.00    0.74472   0.73333   28.149
 3859.00    0.70950   0.73575   62.586
 3860.00    0.72291   0.74336   -1.000
 3861.00    0.76182   0.75362  217.987
 3862.00    0.78742   0.76264   -1.000
 3863.00    0.78594   0.76828   -1.000
 3864.00    0.78817   0.77064   -1.000
 3865.00    0.80177   0.77140   -1.000
 3866.00    0.82212   0.77154   -1.000
 3867.00    0.82580   0.77029   -1.000
 3868.00    0.78308   0.76580   -1.000
 3869.00    0.76829   0.75698   40.850
 3870.00    0.75262   0.74539   62.381
 3871.00    0.71964   0.73534   -1.000
 3872.00    0.70436   0.73099   -1.000
 3873.00    0.71564   0.73311  212.024
 3874.00    0.75276   0.73743   -1.000
 3875.00    0.76899   0.73817   -1.000
 3876.00    0.76280   0.73247   -1.000
 3877.00    0.74480   0.72254   -1.000
 3878.00    0.72273   0.71251   -1.000
 3879.00    0.69922   0.70439  237.300
 3880.00    0.69001   0.69681  237.300
 3881.00    0.68089   0.68680  236.621
 3882.00    0.66766   0.67177  220.048
 3883.00    0.67359   0.64990   -1.000
 3884.00    0.68306   0.62014   -1.000
 3885.00    0.66080   0.58401   -1.000
 3886.00    0.62530   0.54708   -1.000
 3887.00    0.59550   0.51842   -1.000
 3888.00    0.55001   0.50719   -1.000
 3889.00    0.53952   0.51751   -1.000
 3890.00    0.59072   0.54628   -1.000
 3891.00    0.65036   0.58432   -1.000
 3892.00    0.68388   0.62200   -1.000
 3893.00    0.70519   0.65368   -1.000
 3894.00    0.71565   0.67889   -1.000
 3895.00    0.73861   0.69929   -1.000
 3896.00    0.74804   0.71598   -1.000
 3897.00    0.74077   0.72921  181.172
 3898.00    0.74485   0.73963  180.331
 3899.00    0.77666   0.74862   -1.000
 3900.00    0.77694   0.75683   -1.000
 3901.00    0.77327   0.76341  184.557
 3902.00    0.78778   0.76690   -1.000
 3903.00    0.80725   0.76761   -1.000
 3904.00    0.78927   0.76831   -1.000
 3905.00    0.78905   0.77299   -1.000
 3906.00    0.79740   0.78407  175.931
 3907.00    0.80120   0.80036  169.155
 3908.00    0.82784   0.81776  166.857
 3909.00    0.86251   0.83194   -1.000
 3910.00    0.86666   0.84028   -1.000
 3911.00    0.85930   0.84280   -1.000
 3912.00    0.86738   0.84100   -1.000
 3913.00    0.86001   0.83704   -1.000
 3914.00    0.85065   0.83272   -1.000
 3915.00    0.83711   0.82873  176.990
 3916.00    0.84371   0.82452   -1.000
 3917.00    0.83595   0.81923   -1.000
 3918.00    0.81592   0.81276  197.234
 3919.00    0.80853   0.80637  203.125
 3920.00    0.80042   0.80180  203.222
 3921.00    0.80264   0.79966  200.028
 3922.00    0.80060   0.79860  199.828
 3923.00    0.81314   0.79551   -1.000
 3924.00    0.82992   0.78709   -1.000
 3925.00    0.83102   0.77112   -1.000
 3926.00    0.79691   0.74704   43.384
 3927.00    0.73739   0.71555   33.229
 3928.00    0.67379   0.67746   38.912
 3929.00    0.61062   0.63376   45.858
 3930.00    0.52526   0.58665   -1.000
 3931.00    0.44365   0.54186   -1.000
 3932.00    0.39697   0.50900   -1.000
 3933.00    0.38874   0.49786   -1.000
 3934.00    0.42755   0.51279   -1.000
 3935.00    0.50054   0.54990   37.285
 3936.00    0.57273   0.59920   31.122
 3937.00    0.61393   0.64998   70.460
 3938.00    0.65528   0.69495   -1.000
 3939.00    0.71448   0.73009  235.345
 3940.00    0.76075   0.75455  231.031
 3941.00    0.76702   0.76923  230.307
 3942.00    0.77921   0.77708  222.325
 3943.00    0.79701   0.78219   -1.000
 3944.00    0.79867   0.78770  190.536
 3945.00    0.80589   0.79461  185.606
 3946.00    0.82350   0.80189   -1.000
 3947.00    0.83660   0.80812   -1.000
 3948.00    0.83795   0.81258   -1.000
 3949.00    0.85190   0.81525   -1.000
 3950.00    0.85899   0.81660   -1.000
 3951.00    0.84752   0.81726   -1.000
 3952.00    0.84052   0.81757   -1.000
 3953.00    0.85229   0.81684   -1.000
 3954.00    0.87119   0.81382   -1.000
 3955.00    0.86781   0.80830   -1.000
 3956.00    0.82847   0.80101   -1.000
 3957.00    0.81904   0.79204   -1.000
 3958.00    0.83019   0.77952   -1.000
 3959.00    0.81459   0.76066   -1.000
 3960.00    0.78784   0.73478   -1.000
 3961.00    0.76043   0.70345   -1.000
 3962.00    0.70920   0.66809   40.174
 3963.00    0.65740   0.62816   31.372
 3964.00    0.59485   0.58096   38.034
 3965.00    0.49730   0.52635   46.700
 3966.00    0.41387   0.46942   53.493
 3967.00    0.36784   0.42062   52.510
 3968.00    0.34437   0.39192   44.771
 3969.00    0.34176   0.39092   36.794
 3970.00    0.37426   0.41787   30.621
 3971.00    0.45827   0.46582   71.257
 3972.00    0.53754   0.52475   -1.000
 3973.00    0.60552   0.58508   -1.000
 3974.00    0.67817   0.64091   -1.000
 3975.00    0.73383   0.68951   -1.000
 3976.00    0.76758   0.73088   -1.000
 3977.00    0.80037   0.76543   -1.000
 3978.00    0.83110   0.79310   -1.000
 3979.00    0.85320   0.81356   -1.000
 3980.00    0.85340   0.82708   -1.000
 3981.00    0.84818   0.83592  156.567
 3982.00    0.84989   0.84313  153.902
 3983.00    0.84991   0.85104  150.790
 3984.00    0.88183   0.86025   -1.000
 3985.00    0.92165   0.87018   -1.000
 3986.00    0.91537   0.88030   -1.000
 3987.00    0.90482   0.89027  143.620
 3988.00    0.91812   0.89984  143.160
 3989.00    0.93966   0.90881   -1.000
 3990.00    0.94074   0.91681   -1.000
 3991.00    0.93593   0.92323  137.270
 3992.00    0.96418   0.92684   -1.000
 3993.00    0.95979   0.92662   -1.000
 3994.00    0.94392   0.92284   -1.000
 3995.00    0.92244   0.91769  148.066
 3996.00    0.89596   0.91452  146.053
 3997.00    0.89872   0.91566  140.256
 3998.00    0.91914   0.92143  134.970
 3999.00    0.93969   0.92951  132.117
 4000.00    0.96745   0.93626   -1.000
 4001.00    0.98721   0.93840   -1.000
 4002.00    0.97376   0.93470   -1.000
 4003.00    0.96301   0.92670   -1.000
 4004.00    0.94926   0.91904   -1.000
 4005.00    0.91698   0.91680  141.297
 4006.00    0.91322   0.92214  134.889
 4007.00    0.95573   0.93357   -1.000
 4008.00    0.97116   0.94639   -1.000
 4009.00    0.98266   0.95682   -1.000
 4010.00    1.02011   0.96354   -1.000
 4011.00    0.99775   0.96736   -1.000
 4012.00    0.96104   0.96999  130.737
 4013.00    0.97477   0.97245  129.106
 4014.00    1.00090   0.97526   -1.000
 4015.00    0.99574   0.97844  130.854
 4016.00    0.98718   0.98205  130.878
 4017.00    0.99655   0.98605  129.215
 4018.00    1.00736   0.98981  128.843
 4019.00    0.99563   0.99221  130.310
 4020.00    1.01103   0.99206  131.425
 4021.00    1.01268   0.98897   -1.000
 4022.00    0.99207   0.98382  133.241
 4023.00    0.98441   0.97904  131.149
 4024.00    1.00842   0.97716   -1.000
 4025.00    1.00230   0.97921  123.668
 4026.00    0.99830   0.98300  123.772
 4027.00    1.01280   0.98427   -1.000
 4028.00    1.01452   0.98016   -1.000
 4029.00    0.98523   0.97089  142.430
 4030.00    0.95569   0.96063  145.331
 4031.00    0.94875   0.95396  144.446
 4032.00    0.95059   0.95411  140.471
 4033.00    0.96533   0.96178  134.109
 4034.00    0.94417   0.97548   -1.000
 4035.00    0.97734   0.99239  122.471
 4036.00    1.00461   1.00849  120.948
 4037.00    1.03146   1.02004  122.709
 4038.00    1.05378   1.02501   -1.000
 4039.00    1.05202   1.02379   -1.000
 4040.00    1.03565   1.01743  128.243
 4041.00    1.02013   1.00680  132.855
 4042.00    1.00000   0.99141  144.050
 4043.00    1.00658   0.97384   -1.000
 4044.00    0.98332   0.95975   -1.000
 4045.00    0.94462   0.95532  141.717
 4046.00    0.94485   0.96353  131.658
 4047.00    0.96323   0.98030  126.788
 4048.00    0.99184   0.99851  124.768
 4049.00    1.01797   1.01146  125.015
 4050.00    1.03342   1.01633  127.776
 4051.00    1.04369   1.01401   -1.000
 4052.00    1.04185   1.00774   -1.000
 4053.00    1.00773   1.00095  134.926
 4054.00    0.99593   0.99562  135.873
 4055.00    1.00522   0.99297  137.165
 4056.00    0.98048   0.99297  136.369
 4057.00    0.98445   0.99535  132.246
 4058.00    1.00085   0.99867  129.005
 4059.00    1.02204   0.99919   -1.000
 4060.00    1.04328   0.99413   -1.000
 4061.00    1.00466   0.98258   -1.000
 4062.00    0.98383   0.96810  148.378
 4063.00    0.97251   0.95601  142.208
 4064.00    0.96100   0.95020  137.758
 4065.00    0.96534   0.95147  134.154
 4066.00    0.99180   0.95733   -1.000
 4067.00    1.02894   0.96385   -1.000
 4068.00    1.04020   0.96693   -1.000
 4069.00    1.00774   0.96528   -1.000
 4070.00    0.99323   0.96019   -1.000
 4071.00    0.97521   0.95504  133.629
 4072.00    0.97294   0.95153  131.761
 4073.00    0.99811   0.94794   -1.000
 4074.00    0.99387   0.94182   -1.000
 4075.00    0.98763   0.93272   -1.000
 4076.00    0.96493   0.92493   -1.000
 4077.00    0.93121   0.92372  141.577
 4078.00    0.93296   0.93156  131.759
 4079.00    0.95807   0.94536  126.454
 4080.00    0.99636   0.95862   -1.000
 4081.00    1.01072   0.96603   -1.000
 4082.00    1.00643   0.96637   -1.000
 4083.00    0.98252   0.96349  132.631
 4084.00    0.96072   0.96203  128.723
 4085.00    0.96841   0.96500  123.885
 4086.00    0.99027   0.97111  119.688
 4087.00    1.00907   0.97677   -1.000
 4088.00    1.02772   0.97845   -1.000
 4089.00    1.02044   0.97486   -1.000
 4090.00    1.01709   0.96702   -1.000
 4091.00    1.00348   0.95593   -1.000
 4092.00    0.96658   0.94188   -1.000
 4093.00    0.95482   0.92363   -1.000
 4094.00    0.95671   0.90028   -1.000
 4095.00    0.92488   0.87156   -1.000
 4096.00    0.88810   0.83708   -1.000
 4097.00    0.86486   0.79662   -1.000
 4098.00    0.86213   0.75100   -1.000
 4099.00    0.83797   0.70541   -1.000
 4100.00    0.75663   0.67012   -1.000
 4101.00    0.68417   0.65621   -1.000
 4102.00    0.68483   0.66978  147.262
 4103.00    0.72730   0.70674   -1.000
 4104.00    0.80056   0.75570   -1.000
 4105.00    0.87547   0.80405   -1.000
 4106.00    0.88068   0.84347   -1.000
 4107.00    0.88690   0.87226  135.142
 4108.00    0.92479   0.89289   -1.000
 4109.00    0.94913   0.90913   -1.000
 4110.00    0.95165   0.92412   -1.000
 4111.00    0.95501   0.93947  131.226
 4112.00    0.96064   0.95538  129.155
 4113.00    0.99956   0.97047   -1.000
 4114.00    1.01619   0.98287   -1.000
 4115.00    0.99283   0.99066  130.143
 4116.00    0.99534   0.99324  134.194
 4117.00    0.99416   0.99198  136.514
 4118.00    0.98423   0.98949  135.562
 4119.00    1.01341   0.98843   -1.000
 4120.00    1.01208   0.98988  133.829
 4121.00    1.00385   0.99392  132.777
 4122.00    1.00926   0.99951  130.614
 4123.00    1.03756   1.00517   -1.000
 4124.00    1.04559   1.00897   -1.000
 4125.00    1.05781   1.00962   -1.000
 4126.00    1.05828   1.00708   -1.000
 4127.00    1.02828   1.00269   -1.000
 4128.00    1.02627   0.99791   -1.000
 4129.00    1.02480   0.99312   -1.000
 4130.00    1.01424   0.98888   -1.000
 4131.00    0.98894   0.98641  146.981
 4132.00    0.99391   0.98850  143.287
 4133.00    1.00625   0.99695  136.539
 4134.00    1.00301   1.01163  131.502
 4135.00    1.02437   1.02946  128.900
 4136.00    1.03510   1.04662  126.887
 4137.00    1.04568   1.05958  126.041
 4138.00    1.06753   1.06552  127.922
 4139.00    1.07945   1.06282  133.742
 4140.00    1.08433   1.05214   -1.000
 4141.00    1.05549   1.03671  152.921
 4142.00    1.03518   1.02281  150.344
 4143.00    1.00403   1.01641  141.926
 4144.00    0.99684   1.01898   -1.000
 4145.00    1.02221   1.02808  133.644
 4146.00    1.05565   1.03821  135.322
 4147.00    1.06623   1.04547  138.891
 4148.00    1.04934   1.04922  141.135
 4149.00    1.03550   1.05047  140.712
 4150.00    1.03895   1.05022  139.827
 4151.00    1.03533   1.04835  140.663
 4152.00    1.02867   1.04499  142.787
 4153.00    1.10895   1.04149   -1.000
 4154.00    1.34942   1.04008   -1.000
 4155.00    1.22939   1.04244   -1.000
 4156.00    0.80352   1.04880   -1.000
 4157.00    0.88739   1.05756   -1.000
 4158.00    1.08587   1.06655  134.857
 4159.00    1.09579   1.07433  131.395
 4160.00    1.07486   1.08052  129.340
 4161.00    1.07091   1.08543  129.650
 4162.00    1.07780   1.08931  131.518
 4163.00    1.07206   1.09156  133.545
 4164.00    1.06280   1.09127   -1.000
 4165.00    1.06521   1.08813   -1.000
 4166.00    1.06432   1.08287  138.294
 4167.00    1.05482   1.07600  136.135
 4168.00    1.05741   1.06665  136.717
 4169.00    1.06697   1.05407  143.436
 4170.00    1.06576   1.03839   -1.000
 4171.00    1.05064   1.02337   -1.000
 4172.00    1.00969   1.01393  150.225
 4173.00    1.00396   1.01271  144.735
 4174.00    1.01960   1.01846  143.513
 4175.00    1.03513   1.02698  144.208
 4176.00    1.02522   1.03510  143.907
 4177.00    1.03791   1.04194  141.966
 4178.00    1.05020   1.04799  140.400
 4179.00    1.06562   1.05357  140.212
 4180.00    1.07494   1.05814  139.054
 4181.00    1.06690   1.06152  136.499
 4182.00    1.06277   1.06418  133.999
 4183.00    1.06242   1.06585  133.661
 4184.00    1.07112   1.06619  137.312
 4185.00    1.05899   1.06463  141.458
 4186.00    1.06778   1.06208  141.295
 4187.00    1.05406   1.06076  138.421
 4188.00    1.04421   1.06209  137.089
 4189.00    1.06622   1.06650  135.483
 4190.00    1.05774   1.07284  132.750
 4191.00    1.07264   1.07864  130.748
 4192.00    1.08275   1.08132  133.433
 4193.00    1.08870   1.07881  139.909
 4194.00    1.08200   1.07000  145.156
 4195.00    1.05481   1.05643  148.151
 4196.00    1.05200   1.04110  148.912
 4197.00    1.04535   1.02755  147.642
 4198.00    1.01392   1.01866  145.391
 4199.00    1.01940   1.01544  144.604
 4200.00    1.04316   1.01762   -1.000
 4201.00    1.05649   1.02438   -1.000
 4202.00    1.04981   1.03467  140.508
 4203.00    1.05084   1.04724  138.111
 4204.00    1.03051   1.06119   -1.000
 4205.00    1.04800   1.07481   -1.000
 4206.00    1.06047   1.08630   -1.000
 4207.00    1.07751   1.09462  131.309
 4208.00    1.07627   1.09981   -1.000
 4209.00    1.10242   1.10293  130.387
 4210.00    1.07574   1.10458   -1.000
 4211.00    1.06697   1.10406   -1.000
 4212.00    1.06201   1.09994   -1.000
 4213.00    1.05788   1.09240   -1.000
 4214.00    1.06546   1.08412  141.479
 4215.00    1.06525   1.07954  133.115
 4216.00    1.05841   1.08205   -1.000
 4217.00    1.05519   1.09053   -1.000
 4218.00    1.08495   1.10115  121.095
 4219.00    1.10872   1.10828  121.755
 4220.00    1.10707   1.10708  126.056
 4221.00    1.08155   1.09505  134.270
 4222.00    1.08084   1.07284  146.877
 4223.00    1.08866   1.04398   -1.000
 4224.00    1.05303   1.01600   -1.000
 4225.00    0.99520   0.99790  174.320
 4226.00    0.95754   0.99703   -1.000
 4227.00    0.95699   1.01289   -1.000
 4228.00    1.01680   1.03868  127.784
 4229.00    1.06257   1.06387  125.797
 4230.00    1.07643   1.07936  127.985
 4231.00    1.08064   1.08325  131.315
 4232.00    1.08653   1.07898  133.013
 4233.00    1.08275   1.07203  135.799
 4234.00    1.07386   1.06685  138.424
 4235.00    1.06760   1.06544  138.020
 4236.00    1.07007   1.06816  135.127
 4237.00    1.06033   1.07417  132.968
 4238.00    1.05892   1.08258   -1.000
 4239.00    1.07712   1.09185  128.626
 4240.00    1.09680   1.10063  127.869
 4241.00    1.08341   1.10809   -1.000
 4242.00    1.07923   1.11317   -1.000
 4243.00    1.09091   1.11481  123.957
 4244.00    1.07889   1.11174   -1.000
 4245.00    1.09971   1.10406  134.127
 4246.00    1.06938   1.09409   -1.000
 4247.00    1.05870   1.08492   -1.000
 4248.00    1.03782   1.07991   -1.000
 4249.00    1.03177   1.07988   -1.000
 4250.00    1.04272   1.08369   -1.000
 4251.00    1.07352   1.08817  132.229
 4252.00    1.08497   1.09113  135.419
 4253.00    1.07220   1.09299  134.616
 4254.00    1.06957   1.09402   -1.000
 4255.00    1.06266   1.09446   -1.000
 4256.00    1.08338   1.09314  132.017
 4257.00    1.09904   1.08870  139.042
 4258.00    1.09570   1.08290  143.434
 4259.00    1.07248   1.07976  139.494
 4260.00    1.05067   1.08409   -1.000
 4261.00    1.04940   1.09637   -1.000
 4262.00    1.07661   1.11343   -1.000
 4263.00    1.10498   1.12948  120.567
 4264.00    1.12508   1.13941  122.194
 4265.00    1.12868   1.14116  125.955
 4266.00    1.12719   1.13448  129.869
 4267.00    1.10453   1.12034  134.704
 4268.00    1.08146   1.10095  143.018
 4269.00    1.07867   1.07910  152.038
 4270.00    1.07058   1.05929  154.911
 4271.00    1.02609   1.04622   -1.000
 4272.00    1.00586   1.04253   -1.000
 4273.00    1.00712   1.04910   -1.000
 4274.00    1.02456   1.06444   -1.000
 4275.00    1.04728   1.08393   -1.000
 4276.00    1.08200   1.10247  125.675
 4277.00    1.10599   1.11549  130.453
 4278.00    1.11837   1.12110  135.281
 4279.00    1.09458   1.12028   -1.000
 4280.00    1.06560   1.11650   -1.000
 4281.00    1.06790   1.11233   -1.000
 4282.00    1.07799   1.10807   -1.000
 4283.00    1.09383   1.10318  138.284
 4284.00    1.09397   1.09554  141.893
 4285.00    1.08267   1.08471  144.146
 4286.00    1.05009   1.07096   -1.000
 4287.00    1.03497   1.05570   -1.000
 4288.00    1.03416   1.04290  157.926
 4289.00    1.01904   1.03640  151.100
 4290.00    1.00400   1.03745   -1.000
 4291.00    1.01241   1.04434   -1.000
 4292.00    1.04199   1.05193  138.737
 4293.00    1.06453   1.05529  140.921
 4294.00    1.05192   1.05139  144.024
 4295.00    1.03820   1.03993  150.737
 4296.00    1.03048   1.02195  163.071
 4297.00    1.00506   1.00019  175.661
 4298.00    0.96816   0.97842  179.490
 4299.00    0.92506   0.96090   -1.000
 4300.00    0.90826   0.95118   -1.000
 4301.00    0.92795   0.94998   -1.000
 4302.00    0.95426   0.95539  167.309
 4303.00    0.93970   0.96284   -1.000
 4304.00    0.95385   0.96773  172.753
 4305.00    0.97061   0.96793  181.690
 4306.00    0.97501   0.96430  187.052
 4307.00    0.93910   0.96115   -1.000
 4308.00    0.90505   0.96310   -1.000
 4309.00    0.90391   0.97186   -1.000
 4310.00    0.91915   0.98665   -1.000
 4311.00    0.95847   1.00599   -1.000
 4312.00    0.98016   1.02886   -1.000
 4313.00    0.98938   1.05668   -1.000
 4314.00    1.02227   1.08864   -1.000
 4315.00    1.07817   1.12118   -1.000
 4316.00    1.12048   1.14888   -1.000
 4317.00    1.14063   1.16596  115.105
 4318.00    1.16166   1.17030  117.631
 4319.00    1.15609   1.16226  121.459
 4320.00    1.14332   1.14410  127.220
 4321.00    1.12817   1.11898  136.238
 4322.00    1.08611   1.09089  148.284
 4323.00    1.05116   1.06601  155.347
 4324.00    1.01161   1.05103   -1.000
 4325.00    0.99666   1.05071   -1.000
 4326.00    1.03973   1.06311  122.145
 4327.00    1.08396   1.08205  119.004
 4328.00    1.11699   1.09980  119.209
 4329.00    1.12062   1.11048  118.719
 4330.00    1.10400   1.11366  116.792
 4331.00    1.11983   1.11002  115.480
 4332.00    1.10578   1.09965  115.120
 4333.00    1.07707   1.07997  116.829
 4334.00    1.07499   1.04696   -1.000
 4335.00    1.05203   0.99871   -1.000
 4336.00    1.01735   0.93877   -1.000
 4337.00    0.96478   0.87577   -1.000
 4338.00    0.88198   0.82299   -1.000
 4339.00    0.79364   0.79390  155.142
 4340.00    0.74679   0.79568   -1.000
 4341.00    0.78689   0.82615   -1.000
 4342.00    0.87578   0.87605  126.287
 4343.00    0.94867   0.93324  122.815
 4344.00    1.00034   0.98721  120.586
 4345.00    1.02838   1.03266  119.238
 4346.00    1.07740   1.06746  117.355
 4347.00    1.09887   1.09030  117.411
 4348.00    1.09716   1.10047  123.223
 4349.00    1.12259   1.10041  132.301
 4350.00    1.09086   1.09610  135.147
 4351.00    1.05544   1.09463   -1.000
 4352.00    1.04171   1.10144   -1.000
 4353.00    1.06851   1.11680   -1.000
 4354.00    1.09281   1.13648   -1.000
 4355.00    1.11842   1.15511   -1.000
 4356.00    1.15243   1.16911  119.871
 4357.00    1.17201   1.17880  121.501
 4358.00    1.16787   1.18660  119.563
 4359.00    1.16690   1.19499   -1.000
 4360.00    1.17823   1.20475   -1.000
 4361.00    1.18440   1.21553   -1.000
 4362.00    1.16474   1.22540   -1.000
 4363.00    1.17629   1.23143   -1.000
 4364.00    1.19614   1.23184   -1.000
 4365.00    1.18737   1.22644   -1.000
 4366.00    1.18565   1.21647   -1.000
 4367.00    1.16543   1.20455   -1.000
 4368.00    1.15037   1.19345   -1.000
 4369.00    1.16494   1.18403  119.568
 4370.00    1.17706   1.17520  120.636
 4371.00    1.17104   1.16549  125.207
 4372.00    1.16565   1.15531  130.258
 4373.00    1.14943   1.14746  130.868
 4374.00    1.11774   1.14587   -1.000
 4375.00    1.13309   1.15217  119.672
 4376.00    1.16237   1.16445  117.152
 4377.00    1.19260   1.17714  117.601
 4378.00    1.17412   1.18285  119.592
 4379.00    1.19385   1.17608  124.915
 4380.00    1.17948   1.15598   -1.000
 4381.00    1.16408   1.12691   -1.000
 4382.00    1.13560   1.09850   -1.000
 4383.00    1.10268   1.08093  143.847
 4384.00    1.06520   1.07895  130.169
 4385.00    1.10209   1.09157  125.157
 4386.00    1.14000   1.11151   -1.000
 4387.00    1.14910   1.13075  126.168
 4388.00    1.15135   1.14529  126.673
 4389.00    1.16672   1.15529  124.469
 4390.00    1.18629   1.16265  121.668
 4391.00    1.19600   1.16782   -1.000
 4392.00    1.19820   1.17132   -1.000
 4393.00    1.19528   1.17460  124.595
 4394.00    1.19338   1.17877  119.299
 4395.00    1.18278   1.18421  115.611
 4396.00    1.18575   1.18949  116.796
 4397.00    1.20524   1.19228  120.941
 4398.00    1.19685   1.19123  124.646
 4399.00    1.18645   1.18738  123.631
 4400.00    1.18598   1.18291  121.418
 4401.00    1.19498   1.17833  125.110
 4402.00    1.20513   1.17364   -1.000
 4403.00    1.20414   1.16907   -1.000
 4404.00    1.17924   1.16583  129.880
 4405.00    1.16207   1.16644  127.744
 4406.00    1.17229   1.17245  126.563
 4407.00    1.17553   1.18381  122.009
 4408.00    1.15622   1.19906   -1.000
 4409.00    1.15602   1.21492   -1.000
 4410.00    1.20379   1.22759  111.203
 4411.00    1.23120   1.23289  113.875
 4412.00    1.27040   1.22797   -1.000
 4413.00    1.23020   1.21523  124.826
 4414.00    1.18560   1.20134  124.516
 4415.00    1.17175   1.19361  120.397
 4416.00    1.15470   1.19661   -1.000
 4417.00    1.16156   1.21002   -1.000
 4418.00    1.17625   1.22787   -1.000
 4419.00    1.18486   1.24300   -1.000
 4420.00    1.18791   1.25188   -1.000
 4421.00    1.17754   1.25392   -1.000
 4422.00    1.17104   1.25197   -1.000
 4423.00    1.17328   1.24933   -1.000
 4424.00    1.18629   1.24763   -1.000
 4425.00    1.18698   1.24744   -1.000
 4426.00    1.15997   1.24840   -1.000
 4427.00    1.15647   1.25015   -1.000
 4428.00    1.17929   1.25255   -1.000
 4429.00    1.17732   1.25423   -1.000
 4430.00    1.17260   1.25379   -1.000
 4431.00    1.18620   1.25036   -1.000
 4432.00    1.20845   1.24447   -1.000
 4433.00    1.20027   1.23922   -1.000
 4434.00    1.16669   1.23861   -1.000
 4435.00    1.14391   1.24505   -1.000
 4436.00    1.19140   1.25777   -1.000
 4437.00    1.24445   1.27178   -1.000
 4438.00    1.25719   1.28022  111.965
 4439.00    1.25701   1.27879  117.275
 4440.00    1.24458   1.26903   -1.000
 4441.00    1.21542   1.25712   -1.000
 4442.00    1.18179   1.25034   -1.000
 4443.00    1.17399   1.25331   -1.000
 4444.00    1.18749   1.26492   -1.000
 4445.00    1.23710   1.28053   -1.000
 4446.00    1.24401   1.29433   -1.000
 4447.00    1.23771   1.30276   -1.000
 4448.00    1.25975   1.30537   -1.000
 4449.00    1.25749   1.30354   -1.000
 4450.00    1.24747   1.29795   -1.000
 4451.00    1.25765   1.28829   -1.000
 4452.00    1.26100   1.27524  123.101
 4453.00    1.25377   1.26102  125.868
 4454.00    1.24286   1.24877  124.012
 4455.00    1.21677   1.24176   -1.000
 4456.00    1.21251   1.24099   -1.000
 4457.00    1.23381   1.24512  122.329
 4458.00    1.25123   1.25126  123.581
 4459.00    1.24802   1.25735  124.701
 4460.00    1.24028   1.26332  122.442
 4461.00    1.24665   1.26979  117.718
 4462.00    1.26026   1.27672  114.820
 4463.00    1.27123   1.28300  114.515
 4464.00    1.27626   1.28703  114.593
 4465.00    1.26308   1.28728  115.834
 4466.00    1.27482   1.28409  118.038
 4467.00    1.26921   1.28008  118.848
 4468.00    1.22612   1.27891   -1.000
 4469.00    1.23863   1.28342   -1.000
 4470.00    1.25864   1.29464   -1.000
 4471.00    1.28301   1.31091   -1.000
 4472.00    1.29527   1.32860   -1.000
 4473.00    1.31286   1.34423   -1.000
 4474.00    1.32673   1.35534   -1.000
 4475.00    1.33367   1.36032  104.378
 4476.00    1.32310   1.35823   -1.000
 4477.00    1.33330   1.34879  109.006
 4478.00    1.30438   1.33339   -1.000
 4479.00    1.30855   1.31615  117.291
 4480.00    1.29456   1.30330  116.210
 4481.00    1.27765   1.30018  111.434
 4482.00    1.26566   1.30901   -1.000
 4483.00    1.26772   1.32631   -1.000
 4484.00    1.31363   1.34437   -1.000
 4485.00    1.33438   1.35630  107.142
 4486.00    1.33867   1.35876  111.209
 4487.00    1.33390   1.35357  113.871
 4488.00    1.32743   1.34569  112.813
 4489.00    1.31248   1.34034   -1.000
 4490.00    1.30486   1.33980   -1.000
 4491.00    1.31833   1.34328  109.498
 4492.00    1.32260   1.34788   -1.000
 4493.00    1.30921   1.35179   -1.000
 4494.00    1.30806   1.35483   -1.000
 4495.00    1.30908   1.35769   -1.000
 4496.00    1.28800   1.36148   -1.000
 4497.00    1.28133   1.36543   -1.000
 4498.00    1.29940   1.36845   -1.000
 4499.00    1.30254   1.37107   -1.000
 4500.00    1.29139   1.37541   -1.000
 4501.00    1.29550   1.38311   -1.000
 4502.00    1.33716   1.39431   -1.000
 4503.00    1.36613   1.40703   -1.000
 4504.00    1.36564   1.41724   -1.000
 4505.00    1.38794   1.42264   -1.000
 4506.00    1.38045   1.42323   -1.000
 4507.00    1.35060   1.42153   -1.000
 4508.00    1.35652   1.41956   -1.000
 4509.00    1.37624   1.41810   -1.000
 4510.00    1.38215   1.41638   -1.000
 4511.00    1.37113   1.41276   -1.000
 4512.00    1.35838   1.40664   -1.000
 4513.00    1.38058   1.39908  106.905
 4514.00    1.36297   1.39209   -1.000
 4515.00    1.33519   1.38677   -1.000
 4516.00    1.35717   1.38333   -1.000
 4517.00    1.35042   1.38172   -1.000
 4518.00    1.33387   1.38091   -1.000
 4519.00    1.32211   1.37989   -1.000
 4520.00    1.34928   1.37819   -1.000
 4521.00    1.35872   1.37512  109.724
 4522.00    1.33529   1.37024   -1.000
 4523.00    1.33345   1.36310   -1.000
 4524.00    1.30895   1.35367   -1.000
 4525.00    1.30238   1.34250   -1.000
 4526.00    1.29716   1.33063   -1.000
 4527.00    1.30090   1.31995  119.932
 4528.00    1.29626   1.31259  117.849
 4529.00    1.30420   1.30912  115.690
 4530.00    1.31022   1.30852  115.072
 4531.00    1.29417   1.30854  118.192
 4532.00    1.31589   1.30865  122.221
 4533.00    1.32069   1.31061  120.808
 4534.00    1.29384   1.31777  114.040
 4535.00    1.28298   1.33233   -1.000
 4536.00    1.30724   1.35242   -1.000
 4537.00    1.34400   1.37304   -1.000
 4538.00    1.36722   1.38857  107.722
 4539.00    1.35412   1.39674   -1.000
 4540.00    1.33651   1.39829   -1.000
 4541.00    1.39381   1.39638  106.506
 4542.00    1.11277   1.39359   -1.000
 4543.00    0.10515   1.39083   -1.000
 4544.00   -0.04566   1.38730    0.000
 4545.00    0.25842   1.38146   -1.000
 4546.00    0.96596   1.37293   -1.000
 4547.00    0.33375   1.36334   -1.000
 4548.00    1.16950   1.35518   -1.000
 4549.00    1.28450   1.35059   -1.000
 4550.00    1.29841   1.35010   -1.000
 4551.00    1.33702   1.35266  113.356
 4552.00    1.34186   1.35622  114.427
 4553.00    1.29570   1.35948   -1.000
 4554.00    1.30393   1.36373   -1.000
 4555.00    1.31576   1.37168   -1.000
 4556.00    1.33529   1.38443   -1.000
 4557.00    1.36228   1.40066   -1.000
 4558.00    1.37812   1.41704   -1.000
 4559.00    1.38570   1.42942   -1.000
 4560.00    1.37894   1.43551   -1.000
 4561.00    1.38658   1.43498   -1.000
 4562.00    1.38565   1.42969   -1.000
 4563.00    1.36284   1.42309   -1.000
 4564.00    1.36085   1.41903   -1.000
 4565.00    1.38622   1.41980   -1.000
 4566.00    1.39701   1.42479   -1.000
 4567.00    1.40123   1.43047   -1.000
 4568.00    1.39987   1.43334   -1.000
 4569.00    1.39941   1.43164   -1.000
 4570.00    1.37287   1.42740   -1.000
 4571.00    1.33297   1.42420   -1.000
 4572.00    1.35131   1.42469   -1.000
 4573.00    1.36619   1.42923   -1.000
 4574.00    1.38474   1.43577   -1.000
 4575.00    1.41077   1.44063   -1.000
 4576.00    1.40270   1.44049   -1.000
 4577.00    1.38800   1.43479   -1.000
 4578.00    1.38270   1.42444   -1.000
 4579.00    1.37164   1.41151   -1.000
 4580.00    1.34418   1.39840   -1.000
 4581.00    1.35787   1.38818   -1.000
 4582.00    1.36239   1.38281  109.009
 4583.00    1.34176   1.38317   -1.000
 4584.00    1.36046   1.38842   -1.000
 4585.00    1.36263   1.39721   -1.000
 4586.00    1.36000   1.40733   -1.000
 4587.00    1.40989   1.41670  102.941
 4588.00    1.42561   1.42344  104.437
 4589.00    1.41058   1.42675  106.390
 4590.00    1.39306   1.42720   -1.000
 4591.00    1.37984   1.42639   -1.000
 4592.00    1.37370   1.42626   -1.000
 4593.00    1.36346   1.42828   -1.000
 4594.00    1.37968   1.43269   -1.000
 4595.00    1.39432   1.43848   -1.000
 4596.00    1.38823   1.44368   -1.000
 4597.00    1.38272   1.44698   -1.000
 4598.00    1.39837   1.44773   -1.000
 4599.00    1.40258   1.44635   -1.000
 4600.00    1.41703   1.44394   -1.000
 4601.00    1.39360   1.44212   -1.000
 4602.00    1.38510   1.44204   -1.000
 4603.00    1.38633   1.44455   -1.000
 4604.00    1.40765   1.44966   -1.000
 4605.00    1.39889   1.45689   -1.000
 4606.00    1.41314   1.46546   -1.000
 4607.00    1.40059   1.47428   -1.000
 4608.00    1.43965   1.48162   -1.000
 4609.00    1.43479   1.48628   -1.000
 4610.00    1.45255   1.48775   -1.000
 4611.00    1.43690   1.48665   -1.000
 4612.00    1.42485   1.48394   -1.000
 4613.00    1.41208   1.48103   -1.000
 4614.00    1.42508   1.47811   -1.000
 4615.00    1.43330   1.47511   -1.000
 4616.00    1.44014   1.47209   -1.000
 4617.00    1.42527   1.46996   -1.000
 4618.00    1.41629   1.47023   -1.000
 4619.00    1.43622   1.47382   -1.000
 4620.00    1.44128   1.48039   -1.000
 4621.00    1.43690   1.48823   -1.000
 4622.00    1.45134   1.49529   -1.000
 4623.00    1.43682   1.49972   -1.000
 4624.00    1.42130   1.50078   -1.000
 4625.00    1.41765   1.49917   -1.000
 4626.00    1.41204   1.49623   -1.000
 4627.00    1.41869   1.49317   -1.000
 4628.00    1.40694   1.49140   -1.000
 4629.00    1.39518   1.49144   -1.000
 4630.00    1.42594   1.49268   -1.000
 4631.00    1.44748   1.49395   -1.000
 4632.00    1.44884   1.49413   -1.000
 4633.00    1.43892   1.49271   -1.000
 4634.00    1.44117   1.48994   -1.000
 4635.00    1.44864   1.48748   -1.000
 4636.00    1.45353   1.48690   -1.000
 4637.00    1.45835   1.48897   -1.000
 4638.00    1.41188   1.49341   -1.000
 4639.00    1.41440   1.49989   -1.000
 4640.00    1.45135   1.50685   -1.000
 4641.00    1.45487   1.51216   -1.000
 4642.00    1.44748   1.51358   -1.000
 4643.00    1.45626   1.50983   -1.000
 4644.00    1.46148   1.50114   -1.000
 4645.00    1.46649   1.49029  108.655
 4646.00    1.44347   1.48125   -1.000
 4647.00    1.43360   1.47704   -1.000
 4648.00    1.43708   1.47871   -1.000
 4649.00    1.42652   1.48514   -1.000
 4650.00    1.46261   1.49313   -1.000
 4651.00    1.47313   1.49913  103.638
 4652.00    1.45929   1.50143   -1.000
 4653.00    1.47109   1.50068   -1.000
 4654.00    1.43778   1.49978   -1.000
 4655.00    1.42599   1.50173   -1.000
 4656.00    1.42571   1.50882   -1.000
 4657.00    1.43025   1.52038   -1.000
 4658.00    1.47293   1.53364   -1.000
 4659.00    1.48680   1.54432   -1.000
 4660.00    1.50266   1.54908   -1.000
 4661.00    1.47049   1.54607   -1.000
 4662.00    1.45002   1.53638   -1.000
 4663.00    1.45831   1.52163   -1.000
 4664.00    1.46323   1.50401   -1.000
 4665.00    1.45946   1.48605   -1.000
 4666.00    1.45103   1.47123  113.351
 4667.00    1.42207   1.46249   -1.000
 4668.00    1.39916   1.46244   -1.000
 4669.00    1.40514   1.47093   -1.000
 4670.00    1.43089   1.48544   -1.000
 4671.00    1.46588   1.50168   -1.000
 4672.00    1.48605   1.51654   -1.000
 4673.00    1.47402   1.52801   -1.000
 4674.00    1.48694   1.53523   -1.000
 4675.00    1.48381   1.53778   -1.000
 4676.00    1.48324   1.53561   -1.000
 4677.00    1.48865   1.52938   -1.000
 4678.00    1.48356   1.52050   -1.000
 4679.00    1.45309   1.51161   -1.000
 4680.00    1.42867   1.50538   -1.000
 4681.00    1.41691   1.50318   -1.000
 4682.00    1.45248   1.50459   -1.000
 4683.00    1.49397   1.50818  101.364
 4684.00    1.49147   1.51276  101.392
 4685.00    1.49217   1.51732  101.994
 4686.00    1.49953   1.52130  101.978
 4687.00    1.49187   1.52467   -1.000
 4688.00    1.49574   1.52745   -1.000
 4689.00    1.49200   1.52982   -1.000
 4690.00    1.48708   1.53213   -1.000
 4691.00    1.48111   1.53478   -1.000
 4692.00    1.48316   1.53777   -1.000
 4693.00    1.47942   1.54093   -1.000
 4694.00    1.51033   1.54327   -1.000
 4695.00    1.51608   1.54301  100.115
 4696.00    1.52509   1.53927  103.154
 4697.00    1.53843   1.53206  104.282
 4698.00    1.51404   1.52230  103.362
 4699.00    1.49250   1.51127  104.205
 4700.00    1.47713   1.50113  106.102
 4701.00    1.47674   1.49370  106.600
 4702.00    1.48761   1.49013  104.469
 4703.00    1.46172   1.48998   -1.000
 4704.00    1.45000   1.49203   -1.000
 4705.00    1.47301   1.49474  106.646
 4706.00    1.48020   1.49697  107.628
 4707.00    1.48414   1.49874  106.995
 4708.00    1.47254   1.50144   -1.000
 4709.00    1.46536   1.50659   -1.000
 4710.00    1.49558   1.51393   99.968
 4711.00    1.50229   1.52173  101.016
 4712.00    1.49448   1.52829   -1.000
 4713.00    1.49999   1.53367   -1.000
 4714.00    1.48045   1.53882   -1.000
 4715.00    1.46233   1.54495   -1.000
 4716.00    1.48861   1.55269   -1.000
 4717.00    1.51152   1.56111   -1.000
 4718.00    1.50690   1.56869   -1.000
 4719.00    1.53413   1.57410   -1.000
 4720.00    1.53237   1.57748   -1.000
 4721.00    1.50763   1.57946   -1.000
 4722.00    1.49364   1.58044   -1.000
 4723.00    1.48381   1.57994   -1.000
 4724.00    1.51707   1.57678   -1.000
 4725.00    1.52583   1.57023   -1.000
 4726.00    1.50561   1.56062   -1.000
 4727.00    1.48888   1.54962   -1.000
 4728.00    1.45852   1.53954   -1.000
 4729.00    1.47791   1.53294   -1.000
 4730.00    1.48438   1.53103   -1.000
 4731.00    1.49493   1.53323   -1.000
 4732.00    1.50517   1.53761   -1.000
 4733.00    1.48696   1.54247   -1.000
 4734.00    1.50866   1.54645   -1.000
 4735.00    1.51120   1.54915   -1.000
 4736.00    1.49966   1.55124   -1.000
 4737.00    1.50768   1.55377   -1.000
 4738.00    1.48283   1.55730   -1.000
 4739.00    1.50425   1.56189   -1.000
 4740.00    1.51632   1.56711   -1.000
 4741.00    1.51556   1.57241   -1.000
 4742.00    1.53534   1.57749   -1.000
 4743.00    1.52320   1.58246   -1.000
 4744.00    1.51492   1.58744   -1.000
 4745.00    1.51863   1.59257   -1.000
 4746.00    1.52916   1.59784   -1.000
 4747.00    1.55174   1.60336   -1.000
 4748.00    1.53456   1.60870   -1.000
 4749.00    1.49998   1.61283   -1.000
 4750.00    1.53465   1.61431   -1.000
 4751.00    1.52944   1.61261   -1.000
 4752.00    1.52188   1.60820   -1.000
 4753.00    1.52000   1.60255   -1.000
 4754.00    1.51861   1.59784   -1.000
 4755.00    1.49328   1.59581   -1.000
 4756.00    1.51172   1.59710   -1.000
 4757.00    1.51072   1.60045   -1.000
 4758.00    1.48904   1.60329   -1.000
 4759.00    1.48370   1.60284   -1.000
 4760.00    1.49857   1.59754   -1.000
 4761.00    1.50253   1.58790   -1.000
 4762.00    1.46761   1.57613   -1.000
 4763.00    1.46043   1.56582   -1.000
 4764.00    1.47987   1.56024   -1.000
 4765.00    1.48594   1.56151   -1.000
 4766.00    1.48812   1.56901   -1.000
 4767.00    1.51263   1.58052   -1.000
 4768.00    1.53027   1.59298   -1.000
 4769.00    1.52335   1.60405   -1.000
 4770.00    1.51871   1.61241   -1.000
 4771.00    1.51307   1.61851   -1.000
 4772.00    1.52467   1.62370   -1.000
 4773.00    1.51155   1.62946   -1.000
 4774.00    1.51935   1.63576   -1.000
 4775.00    1.54292   1.64131   -1.000
 4776.00    1.53217   1.64440   -1.000
 4777.00    1.52407   1.64422   -1.000
 4778.00    1.52144   1.64149   -1.000
 4779.00    1.53174   1.63738   -1.000
 4780.00    1.54346   1.63308   -1.000
 4781.00    1.53222   1.62909   -1.000
 4782.00    1.53987   1.62530   -1.000
 4783.00    1.55900   1.62133   -1.000
 4784.00    1.53635   1.61731   -1.000
 4785.00    1.52494   1.61410   -1.000
 4786.00    1.53991   1.61250   -1.000
 4787.00    1.51047   1.61328   -1.000
 4788.00    1.50763   1.61699   -1.000
 4789.00    1.50540   1.62384   -1.000
 4790.00    1.53351   1.63348   -1.000
 4791.00    1.56096   1.64514   -1.000
 4792.00    1.55690   1.65759   -1.000
 4793.00    1.55004   1.66899   -1.000
 4794.00    1.57417   1.67732   -1.000
 4795.00    1.57620   1.68108   -1.000
 4796.00    1.55900   1.68016   -1.000
 4797.00    1.55937   1.67606   -1.000
 4798.00    1.53752   1.67136   -1.000
 4799.00    1.54045   1.66845   -1.000
 4800.00    1.53636   1.66814   -1.000
 4801.00    1.56453   1.66963   -1.000
 4802.00    1.58664   1.67109   -1.000
 4803.00    1.56551   1.67103   -1.000
 4804.00    1.55223   1.66918   -1.000
 4805.00    1.53450   1.66671   -1.000
 4806.00    1.52821   1.66517   -1.000
 4807.00    1.55490   1.66553   -1.000
 4808.00    1.58241   1.66764   -1.000
 4809.00    1.54805   1.67078   -1.000
 4810.00    1.52788   1.67449   -1.000
 4811.00    1.55695   1.67874   -1.000
 4812.00    1.57118   1.68371   -1.000
 4813.00    1.57494   1.68962   -1.000
 4814.00    1.56742   1.69627   -1.000
 4815.00    1.56716   1.70278   -1.000
 4816.00    1.58523   1.70816   -1.000
 4817.00    1.57728   1.71152   -1.000
 4818.00    1.57102   1.71194   -1.000
 4819.00    1.57951   1.70859   -1.000
 4820.00    1.57841   1.70107   -1.000
 4821.00    1.56541   1.69021   -1.000
 4822.00    1.54509   1.67827   -1.000
 4823.00    1.54381   1.66828   -1.000
 4824.00    1.52998   1.66291   -1.000
 4825.00    1.53324   1.66291   -1.000
 4826.00    1.56701   1.66684   -1.000
 4827.00    1.56280   1.67154   -1.000
 4828.00    1.55697   1.67393   -1.000
 4829.00    1.57450   1.67321   -1.000
 4830.00    1.59091   1.67032   -1.000
 4831.00    1.55290   1.66707   -1.000
 4832.00    1.55456   1.66477   -1.000
 4833.00    1.56870   1.66402   -1.000
 4834.00    1.58676   1.66466   -1.000
 4835.00    1.55329   1.66544   -1.000
 4836.00    1.56488   1.66477   -1.000
 4837.00    1.57477   1.66170   -1.000
 4838.00    1.54345   1.65638   -1.000
 4839.00    1.57612   1.65009   -1.000
 4840.00    1.55708   1.64439   -1.000
 4841.00    1.54247   1.64072   -1.000
 4842.00    1.54331   1.63973   -1.000
 4843.00    1.56562   1.64077   -1.000
 4844.00    1.57141   1.64210   -1.000
 4845.00    1.54156   1.64200   -1.000
 4846.00    1.55468   1.63967   -1.000
 4847.00    1.53686   1.63525   -1.000
 4848.00    1.53621   1.62923   -1.000
 4849.00    1.53798   1.62217   -1.000
 4850.00    1.53699   1.61370   -1.000
 4851.00    1.52114   1.60174   -1.000
 4852.00    1.52749   1.58387   -1.000
 4853.00    1.52490   1.55885   -1.000
 4854.00    1.49236   1.52701   -1.000
 4855.00    1.43327   1.48854   -1.000
 4856.00    1.41661   1.44259   -1.000
 4857.00    1.43477   1.38847   -1.000
 4858.00    1.39015   1.32791   -1.000
 4859.00    1.27892   1.26806  138.102
 4860.00    1.13602   1.22043   -1.000
 4861.00    1.05293   1.19766   -1.000
 4862.00    1.09445   1.20750   -1.000
 4863.00    1.20840   1.24791   -1.000
 4864.00    1.31186   1.30815  104.860
 4865.00    1.38439   1.37329  103.986
 4866.00    1.43818   1.43120  103.629
 4867.00    1.46320   1.47523  104.697
 4868.00    1.46988   1.50383   -1.000
 4869.00    1.46762   1.51964   -1.000
 4870.00    1.46122   1.52765   -1.000
 4871.00    1.44290   1.53379   -1.000
 4872.00    1.42568   1.54261   -1.000
 4873.00    1.46893   1.55596   -1.000
 4874.00    1.51159   1.57308   -1.000
 4875.00    1.51258   1.59138   -1.000
 4876.00    1.50003   1.60874   -1.000
 4877.00    1.50197   1.62456   -1.000
 4878.00    1.50952   1.63892   -1.000
 4879.00    1.51847   1.65146   -1.000
 4880.00    1.51871   1.66067   -1.000
 4881.00    1.53291   1.66514   -1.000
 4882.00    1.52357   1.66483   -1.000
 4883.00    1.54669   1.66107   -1.000
 4884.00    1.53298   1.65592   -1.000
 4885.00    1.51705   1.65060   -1.000
 4886.00    1.51726   1.64515   -1.000
 4887.00    1.54420   1.63955   -1.000
 4888.00    1.54317   1.63446   -1.000
 4889.00    1.55641   1.63207   -1.000
 4890.00    1.52256   1.63564   -1.000
 4891.00    1.49691   1.64767   -1.000
 4892.00    1.52459   1.66894   -1.000
 4893.00    1.57293   1.69666   -1.000
 4894.00    1.61137   1.72526   -1.000
 4895.00    1.62479   1.74864   -1.000
 4896.00    1.60962   1.76288   -1.000
 4897.00    1.61478   1.76786   -1.000
 4898.00    1.62587   1.76605   -1.000
 4899.00    1.61593   1.76041   -1.000
 4900.00    1.59749   1.75363   -1.000
 4901.00    1.60364   1.74816   -1.000
 4902.00    1.60333   1.74561   -1.000
 4903.00    1.60239   1.74637   -1.000
 4904.00    1.61953   1.74969   -1.000
 4905.00    1.64886   1.75337   -1.000
 4906.00    1.65290   1.75474   -1.000
 4907.00    1.64397   1.75137   -1.000
 4908.00    1.65295   1.74302   -1.000
 4909.00    1.62942   1.73256   -1.000
 4910.00    1.58954   1.72449   -1.000
 4911.00    1.58235   1.72248   -1.000
 4912.00    1.61875   1.72725   -1.000
 4913.00    1.64122   1.73562   -1.000
 4914.00    1.64121   1.74183   -1.000
 4915.00    1.65217   1.73989   -1.000
 4916.00    1.65681   1.72658   -1.000
 4917.00    1.63361   1.70301   -1.000
 4918.00    1.59642   1.67424   -1.000
 4919.00    1.56518   1.64769   -1.000
 4920.00    1.52575   1.62996   -1.000
 4921.00    1.53452   1.62470   -1.000
 4922.00    1.57974   1.63174   -1.000
 4923.00    1.61110   1.64814   -1.000
 4924.00    1.59372   1.67041   -1.000
 4925.00    1.61984   1.69552   -1.000
 4926.00    1.63359   1.72118   -1.000
 4927.00    1.64910   1.74474   -1.000
 4928.00    1.67259   1.76273   -1.000
 4929.00    1.66331   1.77225   -1.000
 4930.00    1.67049   1.77233   -1.000
 4931.00    1.66504   1.76421   -1.000
 4932.00    1.65343   1.75126   -1.000
 4933.00    1.61368   1.73716   -1.000
 4934.00    1.59545   1.72476   -1.000
 4935.00    1.60281   1.71569   -1.000
 4936.00    1.64663   1.71002   -1.000
 4937.00    1.64492   1.70778   -1.000
 4938.00    1.61389   1.70983   -1.000
 4939.00    1.59314   1.71757   -1.000
 4940.00    1.62153   1.73171   -1.000
 4941.00    1.66157   1.75012   -1.000
 4942.00    1.66638   1.76853   -1.000
 4943.00    1.68162   1.78311   -1.000
 4944.00    1.69626   1.79244   -1.000
 4945.00    1.67293   1.79784   -1.000
 4946.00    1.66976   1.80174   -1.000
 4947.00    1.67979   1.80580   -1.000
 4948.00    1.67741   1.81016   -1.000
 4949.00    1.69370   1.81372   -1.000
 4950.00    1.68950   1.81495   -1.000
 4951.00    1.70388   1.81249   -1.000
 4952.00    1.70099   1.80522   -1.000
 4953.00    1.69451   1.79235   -1.000
 4954.00    1.69815   1.77436   -1.000
 4955.00    1.67987   1.75359   -1.000
 4956.00    1.64150   1.73506   -1.000
 4957.00    1.60023   1.72455   -1.000
 4958.00    1.59689   1.72618   -1.000
 4959.00    1.61729   1.73996   -1.000
 4960.00    1.65494   1.76074   -1.000
 4961.00    1.69243   1.78064   -1.000
 4962.00    1.69330   1.79340   -1.000
 4963.00    1.69743   1.79691   -1.000
 4964.00    1.69564   1.79312   -1.000
 4965.00    1.67900   1.78557   -1.000
 4966.00    1.66436   1.77777   -1.000
 4967.00    1.65552   1.77245   -1.000
 4968.00    1.67840   1.77127   -1.000
 4969.00    1.68841   1.77456   -1.000
 4970.00    1.67112   1.78160   -1.000
 4971.00    1.67148   1.79093   -1.000
 4972.00    1.67302   1.80070   -1.000
 4973.00    1.67725   1.80887   -1.000
 4974.00    1.69533   1.81367   -1.000
 4975.00    1.69819   1.81398   -1.000
 4976.00    1.69002   1.80926   -1.000
 4977.00    1.68406   1.79928   -1.000
 4978.00    1.69900   1.78405   -1.000
 4979.00    1.68022   1.76394   -1.000
 4980.00    1.66781   1.74051   -1.000
 4981.00    1.65663   1.71711   -1.000
 4982.00    1.61399   1.69855   -1.000
 4983.00    1.61957   1.68959   -1.000
 4984.00    1.63167   1.69289   -1.000
 4985.00    1.63410   1.70713   -1.000
 4986.00    1.65302   1.72727   -1.000
 4987.00    1.67250   1.74673   -1.000
 4988.00    1.67831   1.76048   -1.000
 4989.00    1.68873   1.76712   -1.000
 4990.00    1.68167   1.76848   -1.000
 4991.00    1.68657   1.76795   -1.000
 4992.00    1.68414   1.76861   -1.000
 4993.00    1.67571   1.77164   -1.000
 4994.00    1.67492   1.77608   -1.000
 4995.00    1.68880   1.77953   -1.000
 4996.00    1.70425   1.77953   -1.000
 4997.00    1.69757   1.77465   -1.000
 4998.00    1.69000   1.76517   -1.000
 4999.00    1.68568   1.75307   -1.000
 5000.00    1.66727   1.74102   -1.000
 5001.00    1.66217   1.73109   -1.000
 5002.00    1.68365   1.72393   -1.000
 5003.00    1.68691   1.71889   -1.000
 5004.00    1.68105   1.71535   -1.000
 5005.00    1.66612   1.71376   -1.000
 5006.00    1.65192   1.71537   -1.000
 5007.00    1.67476   1.72068   -1.000
 5008.00    1.69886   1.72783   -1.000
 5009.00    1.71387   1.73288  107.631
 5010.00    1.71361   1.73177  111.540
 5011.00    1.69250   1.72334   -1.000
 5012.00    1.67118   1.71016   -1.000
 5013.00    1.64358   1.69664   -1.000
 5014.00    1.63106   1.68676   -1.000
 5015.00    1.64298   1.68216   -1.000
 5016.00    1.67363   1.68256  107.781
 5017.00    1.67660   1.68671  106.556
 5018.00    1.69045   1.69379  105.848
 5019.00    1.69082   1.70339  106.331
 5020.00    1.67822   1.71508   -1.000
 5021.00    1.69338   1.72796   -1.000
 5022.00    1.70125   1.74057   -1.000
 5023.00    1.69798   1.75174   -1.000
 5024.00    1.70899   1.76098   -1.000
 5025.00    1.71354   1.76812   -1.000
 5026.00    1.70272   1.77365   -1.000
 5027.00    1.70541   1.77848   -1.000
 5028.00    1.71903   1.78389   -1.000
 5029.00    1.73155   1.79113   -1.000
 5030.00    1.74661   1.79972   -1.000
 5031.00    1.73541   1.80747   -1.000
 5032.00    1.74358   1.81155   -1.000
 5033.00    1.74975   1.80975   -1.000
 5034.00    1.72630   1.80134   -1.000
 5035.00    1.72448   1.78700   -1.000
 5036.00    1.71541   1.76837   -1.000
 5037.00    1.71268   1.74757   -1.000
 5038.00    1.70573   1.72731  117.796
 5039.00    1.68109   1.71110   -1.000
 5040.00    1.62332   1.70345   -1.000
 5041.00    1.60513   1.70816   -1.000
 5042.00    1.65044   1.72631   -1.000
 5043.00    1.64401   1.75451   -1.000
 5044.00    0.59947   1.78499   -1.000
 5045.00   -0.06576   1.80927    0.000
 5046.00    0.02205   1.82163   -1.000
 5047.00    0.46536   1.82110   -1.000
 5048.00    1.37601   1.81155   -1.000
 5049.00    1.77721   1.79906  105.398
 5050.00    1.68983   1.78986   -1.000
 5051.00    1.70309   1.78823   -1.000
 5052.00    1.73318   1.79533   -1.000
 5053.00    1.76276   1.80901   -1.000
 5054.00    1.78553   1.82568   -1.000
 5055.00    1.77816   1.84195   -1.000
 5056.00    1.78488   1.85568   -1.000
 5057.00    1.80242   1.86611   -1.000
 5058.00    1.78283   1.87357   -1.000
 5059.00    1.78056   1.87764   -1.000
 5060.00    1.78967   1.87756   -1.000
 5061.00    1.78516   1.87248   -1.000
 5062.00    1.79330   1.86253   -1.000
 5063.00    1.77159   1.84916   -1.000
 5064.00    1.73906   1.83511   -1.000
 5065.00    1.72060   1.82328   -1.000
 5066.00    1.74491   1.81566   -1.000
 5067.00    1.77161   1.81269   -1.000
 5068.00    1.79153   1.81275  102.099
 5069.00    1.79190   1.81391  102.979
 5070.00    1.77690   1.81456   -1.000
 5071.00    1.77931   1.81446   -1.000
 5072.00    1.77761   1.81421   -1.000
 5073.00    1.77973   1.81418   -1.000
 5074.00    1.78269   1.81381   -1.000
 5075.00    1.77529   1.81176   -1.000
 5076.00    1.77191   1.80635   -1.000
 5077.00    1.78611   1.79677  111.367
 5078.00    1.75265   1.78451   -1.000
 5079.00    1.71858   1.77300   -1.000
 5080.00    1.70773   1.76627   -1.000
 5081.00    1.72114   1.76677   -1.000
 5082.00    1.75860   1.77492  103.781
 5083.00    1.75873   1.78888   -1.000
 5084.00    1.77176   1.80561   -1.000
 5085.00    1.79226   1.82259   -1.000
 5086.00    1.80371   1.83798   -1.000
 5087.00    1.81899   1.85115   -1.000
 5088.00    1.83164   1.86197   -1.000
 5089.00    1.83704   1.87080   -1.000
 5090.00    1.82531   1.87816   -1.000
 5091.00    1.88629   1.88380   97.216
 5092.00    1.88234   1.88655   98.341
 5093.00    1.81592   1.88466   -1.000
 5094.00    1.82293   1.87684   -1.000
 5095.00    1.82050   1.86331   -1.000
 5096.00    1.81609   1.84647   -1.000
 5097.00    1.81025   1.83054  106.847
 5098.00    1.78448   1.81996   -1.000
 5099.00    1.76769   1.81750   -1.000
 5100.00    1.76224   1.82274   -1.000
 5101.00    1.79433   1.83244   -1.000
 5102.00    1.83382   1.84181  102.862
 5103.00    1.82966   1.84694  104.155
 5104.00    1.80448   1.84598   -1.000
 5105.00    1.79548   1.83964   -1.000
 5106.00    1.78882   1.83097   -1.000
 5107.00    1.77257   1.82351   -1.000
 5108.00    1.77405   1.82037   -1.000
 5109.00    1.78168   1.82323   -1.000
 5110.00    1.79948   1.83214   -1.000
 5111.00    1.82546   1.84556  100.685
 5112.00    1.84424   1.86112   99.848
 5113.00    1.83110   1.87656   -1.000
 5114.00    1.82580   1.89020   -1.000
 5115.00    1.84117   1.90084   -1.000
 5116.00    1.83942   1.90787   -1.000
 5117.00    1.85144   1.91055   -1.000
 5118.00    1.87100   1.90832   -1.000
 5119.00    1.85884   1.90086   -1.000
 5120.00    1.83537   1.88865   -1.000
 5121.00    1.82333   1.87316   -1.000
 5122.00    1.82150   1.85641   -1.000
 5123.00    1.82109   1.84079  107.761
 5124.00    1.80310   1.82817   -1.000
 5125.00    1.80998   1.81965  106.719
 5126.00    1.81285   1.81533  106.865
 5127.00    1.82018   1.81490  106.539
 5128.00    1.78858   1.81767   -1.000
 5129.00    1.79044   1.82308   -1.000
 5130.00    1.80382   1.83049  102.542
 5131.00    1.82645   1.83913  101.569
 5132.00    1.84087   1.84770  100.783
 5133.00    1.84008   1.85462  100.894
 5134.00    1.85752   1.85831  102.913
 5135.00    1.85637   1.85777  105.307
 5136.00    1.82199   1.85302   -1.000
 5137.00    1.80882   1.84521   -1.000
 5138.00    1.80883   1.83640   -1.000
 5139.00    1.80163   1.82883   -1.000
 5140.00    1.79558   1.82417   -1.000
 5141.00    1.78677   1.82281   -1.000
 5142.00    1.78707   1.82418   -1.000
 5143.00    1.80842   1.82707  105.654
 5144.00    1.84283   1.83018  106.578
 5145.00    1.85413   1.83275  106.531
 5146.00    1.86301   1.83450  105.277
 5147.00    1.85699   1.83541  105.045
 5148.00    1.84413   1.83544  106.542
 5149.00    1.83496   1.83447  108.302
 5150.00    1.83841   1.83281  108.736
 5151.00    1.82070   1.83138  107.856
 5152.00    1.82113   1.83183  105.604
 5153.00    1.82426   1.83643  102.887
 5154.00    1.84643   1.84667  100.395
 5155.00    1.87481   1.86202   98.748
 5156.00    1.91249   1.88003   -1.000
 5157.00    1.90474   1.89713   98.271
 5158.00    1.89953   1.90983   98.658
 5159.00    1.89489   1.91540   99.334
 5160.00    1.90287   1.91223  100.558
 5161.00    1.89000   1.89905  102.541
 5162.00    1.90844   1.87466   -1.000
 5163.00    1.89753   1.83850   -1.000
 5164.00    1.86673   1.79207   -1.000
 5165.00    1.81157   1.74028   -1.000
 5166.00    1.73511   1.69110   -1.000
 5167.00    1.68252   1.65233   -1.000
 5168.00    1.66641   1.62843   -1.000
 5169.00    1.72293   1.61911   -1.000
 5170.00    1.76257   1.62103   -1.000
 5171.00    1.75241   1.63243   -1.000
 5172.00    1.69423   1.65386   -1.000
 5173.00    1.70168   1.68688  108.465
 5174.00    1.78635   1.73075   -1.000
 5175.00    1.86544   1.77913   -1.000
 5176.00    1.90950   1.82246   -1.000
 5177.00    1.92511   1.85086   -1.000
 5178.00    1.93744   1.85797   -1.000
 5179.00    1.93231   1.84308   -1.000
 5180.00    1.91626   1.81024   -1.000
 5181.00    1.88774   1.76842   -1.000
 5182.00    1.81119   1.72984   -1.000
 5183.00    1.71069   1.70660  116.306
 5184.00    1.69600   1.70600  107.664
 5185.00    1.78264   1.72697   -1.000
 5186.00    1.86245   1.76115   -1.000
 5187.00    1.91531   1.79687   -1.000
 5188.00    1.90739   1.82453   -1.000
 5189.00    1.87964   1.84004   -1.000
 5190.00    1.88216   1.84448   -1.000
 5191.00    1.85834   1.84249  110.180
 5192.00    1.83303   1.83900  108.286
 5193.00    1.81612   1.83771  106.704
 5194.00    1.82210   1.84084  105.028
 5195.00    1.86658   1.84911  102.946
 5196.00    1.89786   1.86170   -1.000
 5197.00    1.90892   1.87682   -1.000
 5198.00    1.89905   1.89165  100.867
 5199.00    1.91645   1.90279  101.930
 5200.00    1.93455   1.90681  103.929
 5201.00    1.92257   1.90131  106.511
 5202.00    1.91852   1.88619   -1.000
 5203.00    1.91159   1.86415   -1.000
 5204.00    1.88059   1.83992   -1.000
 5205.00    1.82479   1.81882  113.620
 5206.00    1.82868   1.80537  113.830
 5207.00    1.85196   1.80236   -1.000
 5208.00    1.85873   1.81060   -1.000
 5209.00    1.85394   1.82885  103.346
 5210.00    1.87983   1.85384   99.703
 5211.00    1.92511   1.88067   -1.000
 5212.00    1.94733   1.90401   -1.000
 5213.00    1.95339   1.91991   -1.000
 5214.00    1.95301   1.92771  102.820
 5215.00    1.92945   1.93035  101.571
 5216.00    1.90339   1.93286   -1.000
 5217.00    1.90456   1.93930   -1.000
 5218.00    1.94921   1.95047   97.484
 5219.00    1.97824   1.96340   97.452
 5220.00    1.98957   1.97256   99.158
 5221.00    2.00942   1.97250   -1.000
 5222.00    2.01730   1.96007   -1.000
 5223.00    2.00284   1.93608   -1.000
 5224.00    1.97399   1.90558   -1.000
 5225.00    1.90951   1.87668  109.801
 5226.00    1.83964   1.85770  103.851
 5227.00    1.84780   1.85343  100.203
 5228.00    1.89591   1.86290   98.883
 5229.00    1.93543   1.88012   -1.000
 5230.00    1.96844   1.89721   -1.000
 5231.00    1.96332   1.90898   -1.000
 5232.00    1.94396   1.91507  101.897
 5233.00    1.94198   1.91931   99.429
 5234.00    1.94142   1.92662   97.324
 5235.00    1.95026   1.93953   96.514
 5236.00    1.99330   1.95715   -1.000
 5237.00    2.00369   1.97612   96.785
 5238.00    1.99917   1.99282   96.498
 5239.00    2.00397   2.00503   96.063
 5240.00    2.01450   2.01258   96.175
 5241.00    2.00830   2.01648   95.965
 5242.00    2.00171   2.01765   96.268
 5243.00    2.00370   2.01618   98.562
 5244.00    1.99123   2.01140  101.545
 5245.00    2.00592   2.00285  103.395
 5246.00    1.98403   1.99121  103.528
 5247.00    1.96401   1.97839  103.828
 5248.00    1.96459   1.96693  104.263
 5249.00    1.95794   1.95900  103.486
 5250.00    1.94553   1.95560  102.091
 5251.00    1.93920   1.95646  101.336
 5252.00    1.96129   1.96071  101.239
 5253.00    1.98517   1.96763  100.088
 5254.00    1.99353   1.97695   97.574
 5255.00    2.00044   1.98800   95.322
 5256.00    2.01298   1.99891   94.969
 5257.00    2.03700   2.00617   96.337
 5258.00    2.05186   2.00556   -1.000
 5259.00    2.04588   1.99368   -1.000
 5260.00    2.02350   1.96973   -1.000
 5261.00    1.98652   1.93639   -1.000
 5262.00    1.95288   1.89912   -1.000
 5263.00    1.91759   1.86427   -1.000
 5264.00    1.89103   1.83673   -1.000
 5265.00    1.88093   1.81842   -1.000
 5266.00    1.89166   1.80829   -1.000
 5267.00    1.90697   1.80404   -1.000
 5268.00    1.89286   1.80444   -1.000
 5269.00    1.85962   1.81009   -1.000
 5270.00    1.85233   1.82222   -1.000
 5271.00    1.89141   1.84093   -1.000
 5272.00    1.92974   1.86434   -1.000
 5273.00    1.95874   1.88961   -1.000
 5274.00    1.98159   1.91472   -1.000
 5275.00    1.99267   1.93865   -1.000
 5276.00    2.00510   1.96081   -1.000
 5277.00    2.02126   1.97968   -1.000
 5278.00    2.07028   1.99251   -1.000
 5279.00    2.08214   1.99722   -1.000
 5280.00    2.05862   1.99426   -1.000
 5281.00    2.03784   1.98746   -1.000
 5282.00    1.95481   1.98263   -1.000
 5283.00    1.87393   1.98496   -1.000
 5284.00    2.00392   1.99677   94.016
 5285.00    2.04096   2.01637   93.723
 5286.00    2.07687   2.03944   -1.000
 5287.00    2.10400   2.06114   -1.000
 5288.00    2.08131   2.07805   93.487
 5289.00    2.09005   2.08870   93.491
 5290.00    2.09294   2.09322   94.165
 5291.00    2.07723   2.09219   95.162
 5292.00    2.07270   2.08591   96.767
 5293.00    2.06394   2.07431   99.739
 5294.00    2.06298   2.05773  103.368
 5295.00    2.04756   2.03798  105.227
 5296.00    2.01724   2.01855  103.874
 5297.00    1.99611   2.00353  101.306
 5298.00    1.98995   1.99623   99.772
 5299.00    2.01412   1.99777   99.053
 5300.00    2.05879   2.00690   -1.000
 5301.00    2.04668   2.02105   94.927
 5302.00    2.04291   2.03719   93.606
 5303.00    2.06137   2.05261   93.732
 5304.00    2.08338   2.06556   94.688
 5305.00    2.09848   2.07523   95.139
 5306.00    2.09418   2.08222   94.339
 5307.00    2.08635   2.08780   93.428
 5308.00    2.09372   2.09301   93.027
 5309.00    2.11475   2.09800   93.267
 5310.00    2.11558   2.10151   93.786
 5311.00    2.12174   2.10160   94.253
 5312.00    2.13406   2.09694   -1.000
 5313.00    2.12557   2.08769   -1.000
 5314.00    2.11673   2.07606   -1.000
 5315.00    2.08652   2.06544   96.378
 5316.00    2.06043   2.05902   95.700
 5317.00    2.05383   2.05807   95.506
 5318.00    2.06900   2.06105   95.984
 5319.00    2.09442   2.06417   96.793
 5320.00    2.10096   2.06332   -1.000
 5321.00    2.10067   2.05569   -1.000
 5322.00    2.10952   2.04076   -1.000
 5323.00    2.09109   2.01985   -1.000
 5324.00    2.07640   1.99532   -1.000
 5325.00    2.05702   1.97016   -1.000
 5326.00    2.05208   1.94802   -1.000
 5327.00    2.01341   1.93351   -1.000
 5328.00    1.95395   1.93078  101.022
 5329.00    1.96868   1.94148   98.512
 5330.00    2.04265   1.96326   -1.000
 5331.00    2.09030   1.99055   -1.000
 5332.00    2.08930   2.01714   -1.000
 5333.00    2.08492   2.03812   -1.000
 5334.00    2.10073   2.05127   -1.000
 5335.00    2.12404   2.05637   -1.000
 5336.00    2.13463   2.05452   -1.000
 5337.00    2.11982   2.04768   -1.000
 5338.00    2.12066   2.03847   -1.000
 5339.00    2.08422   2.03025   -1.000
 5340.00    2.06871   2.02626   -1.000
 5341.00    2.07139   2.02798   -1.000
 5342.00    2.07781   2.03436   -1.000
 5343.00    2.10524   2.04228   -1.000
 5344.00    2.12543   2.04851   -1.000
 5345.00    2.11606   2.05133   -1.000
 5346.00    2.10438   2.05148   -1.000
 5347.00    2.10063   2.05129   -1.000
 5348.00    2.09455   2.05343   -1.000
 5349.00    2.09918   2.05958   -1.000
 5350.00    2.11418   2.06980   -1.000
 5351.00    2.14464   2.08292   -1.000
 5352.00    2.15382   2.09730   -1.000
 5353.00    2.14006   2.11150   91.969
 5354.00    2.13725   2.12448   91.521
 5355.00    2.14583   2.13535   91.664
 5356.00    2.16889   2.14314   91.859
 5357.00    2.16869   2.14680   92.412
 5358.00    2.16975   2.14543   93.672
 5359.00    2.16354   2.13862   95.220
 5360.00    2.13859   2.12690   96.402
 5361.00    2.12400   2.11180   97.003
 5362.00    2.12232   2.09561   97.568
 5363.00    2.10968   2.08059   97.909
 5364.00    2.10178   2.06806   97.635
 5365.00    2.08685   2.05786   97.931
 5366.00    2.10707   2.04853   -1.000
 5367.00    2.11475   2.03842   -1.000
 5368.00    2.11279   2.02723   -1.000
 5369.00    2.08819   2.01697   -1.000
 5370.00    2.06478   2.01163   -1.000
 5371.00    2.04732   2.01515   95.101
 5372.00    2.08143   2.02915   -1.000
 5373.00    2.13718   2.05147   -1.000
 5374.00    2.14947   2.07693   -1.000
 5375.00    2.16244   2.09965   -1.000
 5376.00    2.19254   2.11528   -1.000
 5377.00    2.19714   2.12238   -1.000
 5378.00    2.18214   2.12199   -1.000
 5379.00    2.15913   2.11681   -1.000
 5380.00    2.14410   2.10998   96.380
 5381.00    2.14288   2.10436   -1.000
 5382.00    2.12696   2.10204   95.523
 5383.00    2.13496   2.10389   94.702
 5384.00    2.15246   2.10922   -1.000
 5385.00    2.16358   2.11588   -1.000
 5386.00    2.17789   2.12102   -1.000
 5387.00    2.18761   2.12227   -1.000
 5388.00    2.18926   2.11858   -1.000
 5389.00    2.18423   2.11045   -1.000
 5390.00    2.17647   2.09942   -1.000
 5391.00    2.17773   2.08718   -1.000
 5392.00    2.16110   2.07491   -1.000
 5393.00    2.13026   2.06313   -1.000
 5394.00    2.12588   2.05222   -1.000
 5395.00    2.12635   2.04312   -1.000
 5396.00    2.10256   2.03749   -1.000
 5397.00    2.09248   2.03692   -1.000
 5398.00    2.11867   2.04150   -1.000
 5399.00    2.14102   2.04890   -1.000
 5400.00    2.15255   2.05495   -1.000
 5401.00    2.16042   2.05555   -1.000
 5402.00    2.16824   2.04886   -1.000
 5403.00    2.14496   2.03645   -1.000
 5404.00    2.09170   2.02249   -1.000
 5405.00    2.07727   2.01169   -1.000
 5406.00    2.09666   2.00696   -1.000
 5407.00    2.12170   2.00852   -1.000
 5408.00    2.13991   2.01480   -1.000
 5409.00    2.13737   2.02412   -1.000
 5410.00    2.13009   2.03547   -1.000
 5411.00    2.13430   2.04842   -1.000
 5412.00    2.16693   2.06251   -1.000
 5413.00    2.18219   2.07692   -1.000
 5414.00    2.17580   2.09093   -1.000
 5415.00    2.15620   2.10392   -1.000
 5416.00    2.16400   2.11521   -1.000
 5417.00    2.18331   2.12400   -1.000
 5418.00    2.18506   2.12941   -1.000
 5419.00    2.17665   2.13103   -1.000
 5420.00    2.19093   2.12911   -1.000
 5421.00    2.20483   2.12471   -1.000
 5422.00    2.19381   2.11949   -1.000
 5423.00    2.17926   2.11522   -1.000
 5424.00    2.16222   2.11282   -1.000
 5425.00    2.16920   2.11173   -1.000
 5426.00    2.17452   2.11002   -1.000
 5427.00    2.18270   2.10580   -1.000
 5428.00    2.18265   2.09861   -1.000
 5429.00    2.14644   2.08984   -1.000
 5430.00    2.12649   2.08179   -1.000
 5431.00    2.14179   2.07624   -1.000
 5432.00    2.16931   2.07413   -1.000
 5433.00    2.16914   2.07618   -1.000
 5434.00    2.13182   2.08337   -1.000
 5435.00    2.11796   2.09651   96.412
 5436.00    2.14497   2.11511   94.654
 5437.00    2.18759   2.13681   -1.000
 5438.00    2.22242   2.15790   -1.000
 5439.00    2.23554   2.17452   -1.000
 5440.00    2.23556   2.18372   -1.000
 5441.00    2.23477   2.18387   -1.000
 5442.00    2.22866   2.17484   -1.000
 5443.00    2.20768   2.15825   -1.000
 5444.00    2.19557   2.13780   -1.000
 5445.00    2.15831   2.11891   -1.000
 5446.00    2.11050   2.10707   98.536
 5447.00    2.12333   2.10559   96.410
 5448.00    2.15178   2.11387   -1.000
 5449.00    2.21063   2.12748   -1.000
 5450.00    2.24501   2.14016   -1.000
 5451.00    2.24387   2.14662   -1.000
 5452.00    2.21954   2.14491   -1.000
 5453.00    2.20452   2.13712   -1.000
 5454.00    2.18983   2.12828   -1.000
 5455.00    2.14481   2.12380   97.928
 5456.00    2.14527   2.12665   96.010
 5457.00    2.19385   2.13580   -1.000
 5458.00    2.23996   2.14700   -1.000
 5459.00    2.25815   2.15530   -1.000
 5460.00    2.25376   2.15787   -1.000
 5461.00    2.24716   2.15532   -1.000
 5462.00    2.21955   2.15087   -1.000
 5463.00    2.20341   2.14833   -1.000
 5464.00    2.21768   2.14999   -1.000
 5465.00    2.22836   2.15585   -1.000
 5466.00    2.23148   2.16403   -1.000
 5467.00    2.23909   2.17197   -1.000
 5468.00    2.24701   2.17746   -1.000
 5469.00    2.26466   2.17908   -1.000
 5470.00    2.28515   2.17616   -1.000
 5471.00    2.27954   2.16864   -1.000
 5472.00    2.26875   2.15703   -1.000
 5473.00    2.26100   2.14254   -1.000
 5474.00    2.23853   2.12740   -1.000
 5475.00    2.21381   2.11468   -1.000
 5476.00    2.17930   2.10742   -1.000
 5477.00    2.17503   2.10732   -1.000
 5478.00    2.20514   2.11389   -1.000
 5479.00    2.21325   2.12480   -1.000
 5480.00    2.21311   2.13726   -1.000
 5481.00    2.22199   2.14935   -1.000
 5482.00    2.21239   2.16029   -1.000
 5483.00    2.20294   2.16975   -1.000
 5484.00    2.20986   2.17719   -1.000
 5485.00    2.21545   2.18202   -1.000
 5486.00    2.22102   2.18418   -1.000
 5487.00    2.22666   2.18462   -1.000
 5488.00    2.24412   2.18479   -1.000
 5489.00    2.26250   2.18587   -1.000
 5490.00    2.27288   2.18810   -1.000
 5491.00    2.25398   2.19081   -1.000
 5492.00    2.24854   2.19296   -1.000
 5493.00    2.25938   2.19364   -1.000
 5494.00    2.27503   2.19243   -1.000
 5495.00    2.27036   2.18949   -1.000
 5496.00    2.26037   2.18541   -1.000
 5497.00    2.25407   2.18085   -1.000
 5498.00    2.25277   2.17625   -1.000
 5499.00    2.25394   2.17171   -1.000
 5500.00    2.27378   2.16718   -1.000
 5501.00    2.25894   2.16280   -1.000
 5502.00    2.22689   2.15876   -1.000
 5503.00    2.21936   2.15526   -1.000
 5504.00    2.25371   2.15239   -1.000
 5505.00    2.23623   2.15042   -1.000
 5506.00    2.21284   2.14983   -1.000
 5507.00    2.22428   2.15092   -1.000
 5508.00    2.24927   2.15317   -1.000
 5509.00    2.26018   2.15535   -1.000
 5510.00    2.27208   2.15630   -1.000
 5511.00    2.25940   2.15602   -1.000
 5512.00    2.25027   2.15595   -1.000
 5513.00    2.24418   2.15830   -1.000
 5514.00    2.24377   2.16475   -1.000
 5515.00    2.27492   2.17547   -1.000
 5516.00    2.30842   2.18909   -1.000
 5517.00    2.30886   2.20335   -1.000
 5518.00    2.29682   2.21590   -1.000
 5519.00    2.30791   2.22498   -1.000
 5520.00    2.32031   2.22960   -1.000
 5521.00    2.31400   2.22928   -1.000
 5522.00    2.29860   2.22387   -1.000
 5523.00    2.29029   2.21345   -1.000
 5524.00    2.29686   2.19887   -1.000
 5525.00    2.27680   2.18220   -1.000
 5526.00    2.23447   2.16690   -1.000
 5527.00    2.21567   2.15684   -1.000
 5528.00    2.21415   2.15467   -1.000
 5529.00    2.22687   2.16031   -1.000
 5530.00    2.24760   2.17089   -1.000
 5531.00    2.26570   2.18224   -1.000
 5532.00    2.27236   2.19105   -1.000
 5533.00    2.27429   2.19643   -1.000
 5534.00    2.28145   2.19971   -1.000
 5535.00    2.26657   2.20308   -1.000
 5536.00    2.26176   2.20803   -1.000
 5537.00    2.29088   2.21468   -1.000
 5538.00    2.31179   2.22195   -1.000
 5539.00    2.30579   2.22827   -1.000
 5540.00    2.31684   2.23240   -1.000
 5541.00    2.31893   2.23389   -1.000
 5542.00    2.31149   2.23335   -1.000
 5543.00    2.30259   2.23219   -1.000
 5544.00    2.29885   2.23213   -1.000
 5545.00    2.29145   2.23435   -1.000
 5546.00    2.29105   2.23907   -1.000
 5547.00    2.30462   2.24552   -1.000
 5548.00    2.33824   2.25225   -1.000
 5549.00    2.35021   2.25774   -1.000
 5550.00    2.33903   2.26088   -1.000
 5551.00    2.33604   2.26140   -1.000
 5552.00    2.34240   2.25994   -1.000
 5553.00    2.34233   2.25773   -1.000
 5554.00    2.33166   2.25605   -1.000
 5555.00    2.32524   2.25561   -1.000
 5556.00    2.33056   2.25631   -1.000
 5557.00    2.34218   2.25731   -1.000
 5558.00    2.34418   2.25752   -1.000
 5559.00    2.34508   2.25603   -1.000
 5560.00    2.34625   2.25247   -1.000
 5561.00    2.34386   2.24718   -1.000
 5562.00    2.32551   2.24095   -1.000
 5563.00    2.30979   2.23474   -1.000
 5564.00    2.31679   2.22924   -1.000
 5565.00    2.32230   2.22467   -1.000
 5566.00    2.31862   2.22087   -1.000
 5567.00    2.32169   2.21751   -1.000
 5568.00    2.31989   2.21438   -1.000
 5569.00    2.29620   2.21151   -1.000
 5570.00    2.27308   2.20926   -1.000
 5571.00    2.23992   2.20819   98.832
 5572.00    2.10384   2.20891   -1.000
 5573.00    1.93155   2.21180   -1.000
 5574.00    2.10875   2.21681   -1.000
 5575.00    2.64720   2.22347   -1.000
 5576.00    2.91537   2.23099   -1.000
 5577.00    2.69596   2.23847   -1.000
 5578.00    2.41784   2.24500   -1.000
 5579.00    2.37178   2.24974   -1.000
 5580.00    2.38107   2.25194   -1.000
 5581.00    2.35360   2.25085   -1.000
 5582.00    2.33065   2.24564   -1.000
 5583.00    2.32858   2.23547   -1.000
 5584.00    2.35844   2.22017   -1.000
 5585.00    2.34186   2.20101   -1.000
 5586.00    2.29630   2.18113   -1.000
 5587.00    2.27105   2.16471   -1.000
 5588.00    2.26440   2.15540   -1.000
 5589.00    2.28205   2.15466   -1.000
 5590.00    2.29147   2.16125   -1.000
 5591.00    2.30173   2.17218   -1.000
 5592.00    2.32550   2.18420   -1.000
 5593.00    2.31980   2.19497   -1.000
 5594.00    2.30521   2.20333   -1.000
 5595.00    2.32724   2.20875   -1.000
 5596.00    2.34578   2.21093   -1.000
 5597.00    2.33665   2.20992   -1.000
 5598.00    2.32296   2.20649   -1.000
 5599.00    2.30591   2.20240   -1.000
 5600.00    2.31665   2.20022   -1.000
 5601.00    2.31563   2.20264   -1.000
 5602.00    2.29678   2.21163   -1.000
 5603.00    2.29635   2.22742   -1.000
 5604.00    2.32923   2.24828   -1.000
 5605.00    2.36593   2.27087   -1.000
 5606.00    2.37013   2.29160   -1.000
 5607.00    2.37203   2.30777   -1.000
 5608.00    2.38673   2.31793   -1.000
 5609.00    2.39631   2.32156   -1.000
 5610.00    2.39487   2.31846   -1.000
 5611.00    2.38839   2.30864   -1.000
 5612.00    2.38517   2.29295   -1.000
 5613.00    2.37576   2.27393   -1.000
 5614.00    2.34357   2.25579   -1.000
 5615.00    2.30629   2.24311   -1.000
 5616.00    2.31048   2.23892   -1.000
 5617.00    2.34548   2.24320   -1.000
 5618.00    2.35933   2.25304   -1.000
 5619.00    2.37072   2.26414   -1.000
 5620.00    2.39161   2.27273   -1.000
 5621.00    2.39665   2.27683   -1.000
 5622.00    2.39369   2.27675   -1.000
 5623.00    2.37855   2.27464   -1.000
 5624.00    2.36583   2.27343   -1.000
 5625.00    2.37110   2.27559   -1.000
 5626.00    2.38917   2.28204   -1.000
 5627.00    2.40684   2.29178   -1.000
 5628.00    2.40008   2.30251   -1.000
 5629.00    2.39814   2.31158   -1.000
 5630.00    2.41949   2.31704   -1.000
 5631.00    2.43156   2.31815   -1.000
 5632.00    2.40443   2.31538   -1.000
 5633.00    2.38903   2.31001   -1.000
 5634.00    2.39668   2.30353   -1.000
 5635.00    2.42365   2.29719   -1.000
 5636.00    2.41713   2.29180   -1.000
 5637.00    2.39636   2.28773   -1.000
 5638.00    2.38269   2.28509   -1.000
 5639.00    2.37964   2.28386   -1.000
 5640.00    2.39669   2.28404   -1.000
 5641.00    2.40418   2.28562   -1.000
 5642.00    2.38977   2.28850   -1.000
 5643.00    2.39461   2.29238   -1.000
 5644.00    2.41238   2.29671   -1.000
 5645.00    2.41962   2.30083   -1.000
 5646.00    2.41869   2.30419   -1.000
 5647.00    2.42807   2.30644   -1.000
 5648.00    2.42782   2.30753   -1.000
 5649.00    2.41967   2.30756   -1.000
 5650.00    2.42912   2.30647   -1.000
 5651.00    2.44113   2.30384   -1.000
 5652.00    2.44175   2.29893   -1.000
 5653.00    2.43791   2.29099   -1.000
 5654.00    2.43913   2.27982   -1.000
 5655.00    2.42240   2.26627   -1.000
 5656.00    2.39637   2.25238   -1.000
 5657.00    2.36919   2.24088   -1.000
 5658.00    2.33730   2.23424   -1.000
 5659.00    2.34185   2.23366   -1.000
 5660.00    2.38580   2.23876   -1.000
 5661.00    2.40878   2.24790   -1.000
 5662.00    2.40816   2.25906   -1.000
 5663.00    2.40157   2.27039   -1.000
 5664.00    2.40150   2.28049   -1.000
 5665.00    2.41676   2.28855   -1.000
 5666.00    2.41541   2.29448   -1.000
 5667.00    2.40672   2.29900   -1.000
 5668.00    2.39087   2.30327   -1.000
 5669.00    2.38028   2.30832   -1.000
 5670.00    2.40436   2.31447   -1.000
 5671.00    2.42430   2.32129   -1.000
 5672.00    2.43743   2.32785   -1.000
 5673.00    2.45185   2.33325   -1.000
 5674.00    2.45012   2.33697   -1.000
 5675.00    2.44921   2.33876   -1.000
 5676.00    2.45903   2.33850   -1.000
 5677.00    2.45824   2.33594   -1.000
 5678.00    2.46423   2.33079   -1.000
 5679.00    2.45825   2.32304   -1.000
 5680.00    2.45584   2.31335   -1.000
 5681.00    2.45231   2.30304   -1.000
 5682.00    2.43625   2.29379   -1.000
 5683.00    2.40512   2.28695   -1.000
 5684.00    2.38435   2.28303   -1.000
 5685.00    2.39905   2.28176   -1.000
 5686.00    2.40656   2.28268   -1.000
 5687.00    2.40379   2.28562   -1.000
 5688.00    2.41325   2.29077   -1.000
 5689.00    2.42759   2.29831   -1.000
 5690.00    2.44552   2.30781   -1.000
 5691.00    2.45500   2.31815   -1.000
 5692.00    2.46060   2.32784   -1.000
 5693.00    2.46491   2.33552   -1.000
 5694.00    2.46344   2.34026   -1.000
 5695.00    2.46030   2.34164   -1.000
 5696.00    2.45352   2.33965   -1.000
 5697.00    2.43351   2.33479   -1.000
 5698.00    2.42432   2.32801   -1.000
 5699.00    2.41533   2.32061   -1.000
 5700.00    2.39323   2.31388   -1.000
 5701.00    2.37297   2.30858   -1.000
 5702.00    2.36594   2.30452   -1.000
 5703.00    2.38760   2.30059   -1.000
 5704.00    2.40472   2.29529   -1.000
 5705.00    2.41653   2.28759   -1.000
 5706.00    2.43325   2.27761   -1.000
 5707.00    2.42484   2.26691   -1.000
 5708.00    2.39015   2.25814   -1.000
 5709.00    2.36541   2.25413   -1.000
 5710.00    2.35668   2.25684   -1.000
 5711.00    2.37531   2.26658   -1.000
 5712.00    2.42079   2.28182   -1.000
 5713.00    2.44287   2.29983   -1.000
 5714.00    2.44956   2.31779   -1.000
 5715.00    2.45027   2.33372   -1.000
 5716.00    2.44516   2.34692   -1.000
 5717.00    2.45328   2.35771   -1.000
 5718.00    2.45792   2.36678   -1.000
 5719.00    2.46646   2.37462   -1.000
 5720.00    2.47979   2.38126   -1.000
 5721.00    2.48541   2.38632   -1.000
 5722.00    2.47317   2.38932   -1.000
 5723.00    2.46706   2.38996   -1.000
 5724.00    2.48201   2.38837   -1.000
 5725.00    2.48423   2.38520   -1.000
 5726.00    2.46641   2.38148   -1.000
 5727.00    2.47629   2.37823   -1.000
 5728.00    2.48561   2.37619   -1.000
 5729.00    2.49362   2.37562   -1.000
 5730.00    2.48533   2.37649   -1.000
 5731.00    2.47185   2.37869   -1.000
 5732.00    2.46814   2.38207   -1.000
 5733.00    2.49021   2.38633   -1.000
 5734.00    2.50871   2.39089   -1.000
 5735.00    2.49645   2.39502   -1.000
 5736.00    2.49108   2.39814   -1.000
 5737.00    2.49969   2.40001   -1.000
 5738.00    2.50856   2.40072   -1.000
 5739.00    2.50270   2.40062   -1.000
 5740.00    2.50103   2.40014   -1.000
 5741.00    2.48837   2.39966   -1.000
 5742.00    2.48080   2.39940   -1.000
 5743.00    2.47912   2.39937   -1.000
 5744.00    2.47320   2.39936   -1.000
 5745.00    2.47807   2.39908   -1.000
 5746.00    2.48190   2.39827   -1.000
 5747.00    2.47860   2.39676   -1.000
 5748.00    2.48936   2.39427   -1.000
 5749.00    2.49855   2.39050   -1.000
 5750.00    2.50462   2.38546   -1.000
 5751.00    2.51390   2.37994   -1.000
 5752.00    2.50818   2.37554   -1.000
 5753.00    2.49031   2.37414   -1.000
 5754.00    2.47968   2.37679   -1.000
 5755.00    2.48097   2.38296   -1.000
 5756.00    2.49974   2.39062   -1.000
 5757.00    2.51946   2.39709   -1.000
 5758.00    2.51949   2.40035   -1.000
 5759.00    2.51403   2.39998   -1.000
 5760.00    2.51929   2.39726   -1.000
 5761.00    2.51898   2.39462   -1.000
 5762.00    2.50223   2.39445   -1.000
 5763.00    2.48996   2.39799   -1.000
 5764.00    2.49885   2.40482   -1.000
 5765.00    2.51943   2.41316   -1.000
 5766.00    2.53045   2.42080   -1.000
 5767.00    2.53025   2.42600   -1.000
 5768.00    2.52005   2.42802   -1.000
 5769.00    2.50741   2.42701   -1.000
 5770.00    2.49245   2.42376   -1.000
 5771.00    2.47662   2.41930   -1.000
 5772.00    2.46819   2.41464   -1.000
 5773.00    2.45933   2.41045   -1.000
 5774.00    2.45089   2.40685   -1.000
 5775.00    2.40456   2.40321   95.986
 5776.00    2.32968   2.39847   -1.000
 5777.00    2.29293   2.39169   -1.000
 5778.00    2.32195   2.38277   -1.000
 5779.00    2.36675   2.37273  101.052
 5780.00    2.41237   2.36342   -1.000
 5781.00    2.45741   2.35678   -1.000
 5782.00    2.49003   2.35404   -1.000
 5783.00    2.50100   2.35548   -1.000
 5784.00    2.48917   2.36050   -1.000
 5785.00    2.47898   2.36793   -1.000
 5786.00    2.48910   2.37637   -1.000
 5787.00    2.51452   2.38449   -1.000
 5788.00    2.53294   2.39135   -1.000
 5789.00    2.52923   2.39672   -1.000
 5790.00    2.49008   2.40115   -1.000
 5791.00    2.46432   2.40551   -1.000
 5792.00    2.46947   2.41035   -1.000
 5793.00    2.46139   2.41560   -1.000
 5794.00    2.46503   2.42064   -1.000
 5795.00    2.49869   2.42485   -1.000
 5796.00    2.51915   2.42809   -1.000
 5797.00    2.51501   2.43076   -1.000
 5798.00    2.53441   2.43341   -1.000
 5799.00    2.55788   2.43625   -1.000
 5800.00    2.56114   2.43890   -1.000
 5801.00    2.55904   2.44072   -1.000
 5802.00    2.55408   2.44123   -1.000
 5803.00    2.55434   2.44056   -1.000
 5804.00    2.55872   2.43941   -1.000
 5805.00    2.54838   2.43872   -1.000
 5806.00    2.54852   2.43918   -1.000
 5807.00    2.54318   2.44093   -1.000
 5808.00    2.54003   2.44360   -1.000
 5809.00    2.55205   2.44646   -1.000
 5810.00    2.54924   2.44877   -1.000
 5811.00    2.55435   2.44996   -1.000
 5812.00    2.57076   2.44990   -1.000
 5813.00    2.56599   2.44899   -1.000
 5814.00    2.55823   2.44813   -1.000
 5815.00    2.56696   2.44833   -1.000
 5816.00    2.57700   2.45033   -1.000
 5817.00    2.58266   2.45417   -1.000
 5818.00    2.58880   2.45923   -1.000
 5819.00    2.60207   2.46455   -1.000
 5820.00    2.60643   2.46930   -1.000
 5821.00    2.59545   2.47304   -1.000
 5822.00    2.60571   2.47578   -1.000
 5823.00    2.62815   2.47775   -1.000
 5824.00    2.62454   2.47925   -1.000
 5825.00    2.61357   2.48049   -1.000
 5826.00    2.61395   2.48157   -1.000
 5827.00    2.61440   2.48246   -1.000
 5828.00    2.60909   2.48307   -1.000
 5829.00    2.61335   2.48328   -1.000
 5830.00    2.62220   2.48305   -1.000
 5831.00    2.62097   2.48245   -1.000
 5832.00    2.62766   2.48171   -1.000
 5833.00    2.62778   2.48119   -1.000
 5834.00    2.61915   2.48125   -1.000
 5835.00    2.60464   2.48211   -1.000
 5836.00    2.59041   2.48371   -1.000
 5837.00    2.58794   2.48573   -1.000
 5838.00    2.59471   2.48772   -1.000
 5839.00    2.58853   2.48926   -1.000
 5840.00    2.58461   2.48997   -1.000
 5841.00    2.59233   2.48959   -1.000
 5842.00    2.59342   2.48796   -1.000
 5843.00    2.59443   2.48515   -1.000
 5844.00    2.59406   2.48150   -1.000
 5845.00    2.58316   2.47748   -1.000
 5846.00    2.58417   2.47353   -1.000
 5847.00    2.58598   2.46969   -1.000
 5848.00    2.58641   2.46555   -1.000
 5849.00    2.58626   2.46043   -1.000
 5850.00    2.60056   2.45371   -1.000
 5851.00    2.60201   2.44520   -1.000
 5852.00    2.57433   2.43521   -1.000
 5853.00    2.56941   2.42438   -1.000
 5854.00    2.58169   2.41361   -1.000
 5855.00    2.56306   2.40405   -1.000
 5856.00    2.54633   2.39716   -1.000
 5857.00    2.56796   2.39440   -1.000
 5858.00    2.58256   2.39660   -1.000
 5859.00    2.57323   2.40344   -1.000
 5860.00    2.57628   2.41340   -1.000
 5861.00    2.58762   2.42431   -1.000
 5862.00    2.58474   2.43414   -1.000
 5863.00    2.59596   2.44163   -1.000
 5864.00    2.61777   2.44660   -1.000
 5865.00    2.62333   2.44981   -1.000
 5866.00    2.61004   2.45255   -1.000
 5867.00    2.60431   2.45596   -1.000
 5868.00    2.60228   2.46038   -1.000
 5869.00    2.59680   2.46520   -1.000
 5870.00    2.60971   2.46918   -1.000
 5871.00    2.62145   2.47116   -1.000
 5872.00    2.62903   2.47068   -1.000
 5873.00    2.63130   2.46810   -1.000
 5874.00    2.62419   2.46432   -1.000
 5875.00    2.61986   2.46026   -1.000
 5876.00    2.61503   2.45643   -1.000
 5877.00    2.60659   2.45281   -1.000
 5878.00    2.59351   2.44896   -1.000
 5879.00    2.59069   2.44426   -1.000
 5880.00    2.59175   2.43808   -1.000
 5881.00    2.58461   2.42970   -1.000
 5882.00    2.55820   2.41809   -1.000
 5883.00    2.46695   2.40148   -1.000
 5884.00    2.28418   2.37749   -1.000
 5885.00    1.99561   2.34407   -1.000
 5886.00    1.75521   2.30125   -1.000
 5887.00    1.78372   2.25270   -1.000
 5888.00    2.00417   2.20547   -1.000
 5889.00    2.15076   2.16748  112.104
 5890.00    2.09634   2.14365   -1.000
 5891.00    1.91944   2.13387   -1.000
 5892.00    1.77781   2.13379   -1.000
 5893.00    1.84732   2.13870   -1.000
 5894.00    2.09663   2.14676   -1.000
 5895.00    2.29537   2.15981   -1.000
 5896.00    2.36961   2.18098   -1.000
 5897.00    2.41946   2.21169   -1.000
 5898.00    2.49462   2.25011   -1.000
 5899.00    2.55577   2.29173   -1.000
 5900.00    2.58454   2.33154   -1.000
 5901.00    2.59728   2.36584   -1.000
 5902.00    2.61625   2.39290   -1.000
 5903.00    2.62223   2.41286   -1.000
 5904.00    2.61546   2.42693   -1.000
 5905.00    2.60967   2.43675   -1.000
 5906.00    2.60813   2.44368   -1.000
 5907.00    2.59931   2.44855   -1.000
 5908.00    2.58032   2.45155   -1.000
 5909.00    2.59030   2.45246   -1.000
 5910.00    2.61125   2.45100   -1.000
 5911.00    2.61265   2.44729   -1.000
 5912.00    2.60423   2.44211   -1.000
 5913.00    2.59761   2.43689   -1.000
 5914.00    2.58760   2.43325   -1.000
 5915.00    2.56066   2.43242   -1.000
 5916.00    2.54496   2.43475   -1.000
 5917.00    2.55543   2.43960   -1.000
 5918.00    2.56637   2.44572   -1.000
 5919.00    2.56683   2.45184   -1.000
 5920.00    2.57299   2.45712   -1.000
 5921.00    2.57834   2.46133   -1.000
 5922.00    2.58241   2.46464   -1.000
 5923.00    2.60643   2.46719   -1.000
 5924.00    2.61358   2.46880   -1.000
 5925.00    2.61218   2.46907   -1.000
 5926.00    2.63783   2.46776   -1.000
 5927.00    2.63850   2.46512   -1.000
 5928.00    2.61954   2.46208   -1.000
 5929.00    2.60855   2.45981   -1.000
 5930.00    2.59311   2.45921   -1.000
 5931.00    2.59984   2.46048   -1.000
 5932.00    2.62338   2.46326   -1.000
 5933.00    2.62929   2.46696   -1.000
 5934.00    2.61931   2.47102   -1.000
 5935.00    2.61836   2.47494   -1.000
 5936.00    2.63335   2.47815   -1.000
 5937.00    2.62965   2.48011   -1.000
 5938.00    2.61496   2.48052   -1.000
 5939.00    2.61068   2.47958   -1.000
 5940.00    2.61809   2.47796   -1.000
 5941.00    2.61286   2.47646   -1.000
 5942.00    2.59118   2.47554   -1.000
 5943.00    2.58735   2.47513   -1.000
 5944.00    2.58855   2.47475   -1.000
 5945.00    2.59692   2.47395   -1.000
 5946.00    2.61338   2.47261   -1.000
 5947.00    2.62214   2.47104   -1.000
 5948.00    2.60615   2.46974   -1.000
 5949.00    2.60062   2.46903   -1.000
 5950.00    2.63195   2.46890   -1.000
 5951.00    2.64534   2.46905   -1.000
 5952.00    2.63040   2.46921   -1.000
 5953.00    2.62733   2.46928   -1.000
 5954.00    2.61907   2.46952   -1.000
 5955.00    2.60686   2.47046   -1.000
 5956.00    2.61220   2.47272   -1.000
 5957.00    2.61146   2.47669   -1.000
 5958.00    2.61458   2.48224   -1.000
 5959.00    2.65432   2.48862   -1.000
 5960.00    2.66445   2.49472   -1.000
 5961.00    2.65306   2.49948   -1.000
 5962.00    2.66648   2.50230   -1.000
 5963.00    2.66747   2.50326   -1.000
 5964.00    2.65317   2.50305   -1.000
 5965.00    2.63020   2.50266   -1.000
 5966.00    2.61161   2.50297   -1.000
 5967.00    2.60823   2.50445   -1.000
 5968.00    2.62442   2.50697   -1.000
 5969.00    2.64135   2.50981   -1.000
 5970.00    2.63143   2.51191   -1.000
 5971.00    2.63644   2.51227   -1.000
 5972.00    2.64690   2.51031   -1.000
 5973.00    2.64116   2.50624   -1.000
 5974.00    2.63496   2.50103   -1.000
 5975.00    2.63361   2.49615   -1.000
 5976.00    2.63978   2.49293   -1.000
 5977.00    2.64263   2.49197   -1.000
 5978.00    2.65639   2.49281   -1.000
 5979.00    2.65711   2.49416   -1.000
 5980.00    2.65036   2.49456   -1.000
 5981.00    2.66640   2.49319   -1.000
 5982.00    2.67211   2.49035   -1.000
 5983.00    2.65689   2.48727   -1.000
 5984.00    2.64629   2.48545   -1.000
 5985.00    2.65435   2.48589   -1.000
 5986.00    2.66106   2.48863   -1.000
 5987.00    2.63528   2.49299   -1.000
 5988.00    2.61973   2.49802   -1.000
 5989.00    2.63951   2.50302   -1.000
 5990.00    2.65479   2.50771   -1.000
 5991.00    2.66159   2.51197   -1.000
 5992.00    2.65317   2.51560   -1.000
 5993.00    2.64571   2.51821   -1.000
 5994.00    2.66254   2.51943   -1.000
 5995.00    2.66755   2.51921   -1.000
 5996.00    2.65543   2.51789   -1.000
 5997.00    2.65395   2.51603   -1.000
 5998.00    2.66809   2.51408   -1.000
 5999.00    2.66820   2.51219   -1.000
 6000.00    2.65096   2.51024   -1.000
 6001.00    2.63617   2.50802   -1.000
 6002.00    2.64104   2.50537   -1.000
 6003.00    2.63825   2.50219   -1.000
 6004.00    2.63825   2.49854   -1.000
 6005.00    2.63915   2.49481   -1.000
 6006.00    2.60806   2.49174   -1.000
 6007.00    2.57539   2.49024   -1.000
 6008.00    2.57123   2.49083   -1.000
 6009.00    2.59695   2.49330   -1.000
 6010.00    2.62795   2.49671   -1.000
 6011.00    2.64962   2.49992   -1.000
 6012.00    2.67396   2.50208   -1.000
 6013.00    2.67229   2.50293   -1.000
 6014.00    2.67124   2.50262   -1.000
 6015.00    2.66523   2.50141   -1.000
 6016.00    2.65661   2.49944   -1.000
 6017.00    2.65661   2.49685   -1.000
 6018.00    2.65959   2.49393   -1.000
 6019.00    2.66329   2.49130   -1.000
 6020.00    2.65540   2.48980   -1.000
 6021.00    2.64615   2.49025   -1.000
 6022.00    2.64813   2.49317   -1.000
 6023.00    2.63819   2.49860   -1.000
 6024.00    2.63990   2.50612   -1.000
 6025.00    2.65253   2.51499   -1.000
 6026.00    2.64952   2.52435   -1.000
 6027.00    2.66278   2.53342   -1.000
 6028.00    2.68212   2.54167   -1.000
 6029.00    2.68864   2.54878   -1.000
 6030.00    2.66483   2.55469   -1.000
 6031.00    2.64490   2.55943   -1.000
 6032.00    2.65638   2.56309   -1.000
 6033.00    2.67845   2.56568   -1.000
 6034.00    2.67620   2.56716   -1.000
 6035.00    2.66239   2.56741   -1.000
 6036.00    2.66139   2.56640   -1.000
 6037.00    2.67393   2.56427   -1.000
 6038.00    2.68253   2.56144   -1.000
 6039.00    2.67834   2.55860   -1.000
 6040.00    2.67883   2.55651   -1.000
 6041.00    2.67810   2.55585   -1.000
 6042.00    2.68525   2.55696   -1.000
 6043.00    2.69491   2.55976   -1.000
 6044.00    2.69963   2.56381   -1.000
 6045.00    2.71299   2.56848   -1.000
 6046.00    2.70913   2.57304   -1.000
 6047.00    2.70096   2.57687   -1.000
 6048.00    2.71084   2.57944   -1.000
 6049.00    2.70294   2.58036   -1.000
 6050.00    2.69337   2.57947   -1.000
 6051.00    2.70377   2.57683   -1.000
 6052.00    2.71281   2.57291   -1.000
 6053.00    2.71417   2.56854   -1.000
 6054.00    2.70381   2.56476   -1.000
 6055.00    2.68755   2.56247   -1.000
 6056.00    2.68077   2.56202   -1.000
 6057.00    2.68316   2.56303   -1.000
 6058.00    2.78280   2.56437   -1.000
 6059.00    2.81356   2.56466   -1.000
 6060.00    2.71781   2.56278   -1.000
 6061.00    2.07562   2.55847   -1.000
 6062.00    1.02824   2.55255   -1.000
 6063.00    1.41010   2.54683   -1.000
 6064.00    2.39848   2.54343   -1.000
 6065.00    2.52296   2.54392  103.869
 6066.00    2.43410   2.54869   -1.000
 6067.00    2.04605   2.55682   -1.000
 6068.00    1.18056   2.56660   -1.000
 6069.00    1.88269   2.57624   -1.000
 6070.00    2.75758   2.58440   -1.000
 6071.00    2.71453   2.59033   -1.000
 6072.00    2.69711   2.59374   -1.000
 6073.00    2.69292   2.59458   -1.000
 6074.00    2.69122   2.59298   -1.000
 6075.00    2.69436   2.58925   -1.000
 6076.00    2.69244   2.58399   -1.000
 6077.00    2.69232   2.57798   -1.000
 6078.00    2.70905   2.57201   -1.000
 6079.00    2.70872   2.56665   -1.000
 6080.00    2.69164   2.56220   -1.000
 6081.00    2.67813   2.55884   -1.000
 6082.00    2.66455   2.55676   -1.000
 6083.00    2.68534   2.55614   -1.000
 6084.00    2.70808   2.55703   -1.000
 6085.00    2.70688   2.55914   -1.000
 6086.00    2.70966   2.56185   -1.000
 6087.00    2.71584   2.56450   -1.000
 6088.00    2.72940   2.56664   -1.000
 6089.00    2.73141   2.56830   -1.000
 6090.00    2.71884   2.56992   -1.000
 6091.00    2.71620   2.57204   -1.000
 6092.00    2.71588   2.57502   -1.000
 6093.00    2.70414   2.57875   -1.000
 6094.00    2.71033   2.58258   -1.000
 6095.00    2.71657   2.58536   -1.000
 6096.00    2.70653   2.58560   -1.000
 6097.00    2.69684   2.58192   -1.000
 6098.00    2.69912   2.57373   -1.000
 6099.00    2.69595   2.56188   -1.000
 6100.00    2.67716   2.54866   -1.000
 6101.00    2.64312   2.53740   -1.000
 6102.00    2.62982   2.53130   -1.000
 6103.00    2.64461   2.53209   -1.000
 6104.00    2.66522   2.53944   -1.000
 6105.00    2.68361   2.55127   -1.000
 6106.00    2.68871   2.56477   -1.000
 6107.00    2.70311   2.57751   -1.000
 6108.00    2.70079   2.58800   -1.000
 6109.00    2.67322   2.59577   -1.000
 6110.00    2.67189   2.60109   -1.000
 6111.00    2.70036   2.60449   -1.000
 6112.00    2.71317   2.60648   -1.000
 6113.00    2.69936   2.60730   -1.000
 6114.00    2.69528   2.60672   -1.000
 6115.00    2.69071   2.60410   -1.000
 6116.00    2.67747   2.59855   -1.000
 6117.00    2.68773   2.58938   -1.000
 6118.00    2.69950   2.57672   -1.000
 6119.00    2.68994   2.56189   -1.000
 6120.00    2.66948   2.54743   -1.000
 6121.00    2.64304   2.53628   -1.000
 6122.00    2.64544   2.53085   -1.000
 6123.00    2.66425   2.53192   -1.000
 6124.00    2.68509   2.53859   -1.000
 6125.00    2.69148   2.54887   -1.000
 6126.00    2.68175   2.56053   -1.000
 6127.00    2.68818   2.57199   -1.000
 6128.00    2.70264   2.58231   -1.000
 6129.00    2.70738   2.59058   -1.000
 6130.00    2.70538   2.59547   -1.000
 6131.00    2.70813   2.59514   -1.000
 6132.00    2.72441   2.58810   -1.000
 6133.00    2.72112   2.57435   -1.000
 6134.00    2.68726   2.55571   -1.000
 6135.00    2.64654   2.53557   -1.000
 6136.00    2.60076   2.51812   -1.000
 6137.00    2.58295   2.50680   -1.000
 6138.00    2.60781   2.50342   -1.000
 6139.00    2.64712   2.50795   -1.000
 6140.00    2.66164   2.51880   -1.000
 6141.00    2.63240   2.53359   -1.000
 6142.00    2.61779   2.54951   -1.000
 6143.00    2.66213   2.56387   -1.000
 6144.00    2.70494   2.57470   -1.000
 6145.00    2.69694   2.58110   -1.000
 6146.00    2.68383   2.58345   -1.000
 6147.00    2.68566   2.58310   -1.000
 6148.00    2.68082   2.58170   -1.000
 6149.00    2.67831   2.58051   -1.000
 6150.00    2.68979   2.58000   -1.000
 6151.00    2.68350   2.57989   -1.000
 6152.00    2.67730   2.57941   -1.000
 6153.00    2.66265   2.57772   -1.000
 6154.00    2.65403   2.57402   -1.000
 6155.00    2.66746   2.56747   -1.000
 6156.00    2.67565   2.55708   -1.000
 6157.00    2.66896   2.54204   -1.000
 6158.00    2.65065   2.52251   -1.000
 6159.00    2.62914   2.50022   -1.000
 6160.00    2.60196   2.47842   -1.000
 6161.00    2.54908   2.46098   -1.000
 6162.00    2.51965   2.45086   -1.000
 6163.00    2.54432   2.44883   -1.000
 6164.00    2.58366   2.45312   -1.000
 6165.00    2.60263   2.46066   -1.000
 6166.00    2.59198   2.46880   -1.000
 6167.00    2.58283   2.47624   -1.000
 6168.00    2.57115   2.48340   -1.000
 6169.00    2.56984   2.49163   -1.000
 6170.00    2.57059   2.50200   -1.000
 6171.00    2.58038   2.51455   -1.000
 6172.00    2.60305   2.52831   -1.000
 6173.00    2.62141   2.54190   -1.000
 6174.00    2.61491   2.55411   -1.000
 6175.00    2.60600   2.56438   -1.000
 6176.00    2.60950   2.57276   -1.000
 6177.00    2.61315   2.57974   -1.000
 6178.00    2.60321   2.58585  101.980
 6179.00    2.61387   2.59136  101.649
 6180.00    2.63127   2.59613   -1.000
 6181.00    2.64382   2.59968   -1.000
 6182.00    2.63699   2.60136   -1.000
 6183.00    2.63887   2.60055   -1.000
 6184.00    2.65191   2.59694   -1.000
 6185.00    2.66941   2.59049   -1.000
 6186.00    2.68093   2.58143   -1.000
 6187.00    2.66685   2.57065   -1.000
 6188.00    2.63625   2.55992   -1.000
 6189.00    2.61400   2.55133   -1.000
 6190.00    2.60302   2.54671   -1.000
 6191.00    2.58311   2.54731   -1.000
 6192.00    2.57196   2.55303  102.917
 6193.00    2.60234   2.56242   -1.000
 6194.00    2.64363   2.57313   -1.000
 6195.00    2.65772   2.58283   -1.000
 6196.00    2.64998   2.59006   -1.000
 6197.00    2.63746   2.59467   -1.000
 6198.00    2.59324   2.59751  104.500
 6199.00    2.54542   2.60001   -1.000
 6200.00    2.54424   2.60345   -1.000
 6201.00    2.59077   2.60847  102.606
 6202.00    2.61842   2.61485  102.489
 6203.00    2.63175   2.62184  102.427
 6204.00    2.65087   2.62835  102.722
 6205.00    2.66122   2.63332  102.846
 6206.00    2.67110   2.63585   -1.000
 6207.00    2.67331   2.63523   -1.000
 6208.00    2.67461   2.63101   -1.000
 6209.00    2.67742   2.62323   -1.000
 6210.00    2.67763   2.61258   -1.000
 6211.00    2.66796   2.60042   -1.000
 6212.00    2.67044   2.58832   -1.000
 6213.00    2.66590   2.57777   -1.000
 6214.00    2.64815   2.56952   -1.000
 6215.00    2.64608   2.56387   -1.000
 6216.00    2.65735   2.56068   -1.000
 6217.00    2.66596   2.55982   -1.000
 6218.00    2.67545   2.56113   -1.000
 6219.00    2.41073   2.56427   -1.000
 6220.00    2.35640   2.56888   -1.000
 6221.00    2.58707   2.57414  107.640
 6222.00    2.68689   2.57895   -1.000
 6223.00    2.68053   2.58205   -1.000
 6224.00    2.66801   2.58218   -1.000
 6225.00    2.68228   2.57844   -1.000
 6226.00    2.69186   2.57075   -1.000
 6227.00    2.67430   2.56023   -1.000
 6228.00    2.65465   2.54907   -1.000
 6229.00    2.62618   2.53993   -1.000
 6230.00    2.59485   2.53511   -1.000
 6231.00    2.58676   2.53546   -1.000
 6232.00    2.61231   2.54027   -1.000
 6233.00    2.65044   2.54738   -1.000
 6234.00    2.66172   2.55429   -1.000
 6235.00    2.66505   2.55904   -1.000
 6236.00    2.67149   2.56075   -1.000
 6237.00    2.66050   2.55957   -1.000
 6238.00    2.64775   2.55619   -1.000
 6239.00    2.63333   2.55122   -1.000
 6240.00    2.62199   2.54511   -1.000
 6241.00    2.62801   2.53825   -1.000
 6242.00    2.63515   2.53130   -1.000
 6243.00    2.63925   2.52557   -1.000
 6244.00    2.64123   2.52263   -1.000
 6245.00    2.62746   2.52352   -1.000
 6246.00    2.61272   2.52794   -1.000
 6247.00    2.61687   2.53424   -1.000
 6248.00    2.62312   2.53989   -1.000
 6249.00    2.63343   2.54263   -1.000
 6250.00    2.63315   2.54144   -1.000
 6251.00    2.61520   2.53675   -1.000
 6252.00    2.60030   2.53021   -1.000
 6253.00    2.59029   2.52378   -1.000
 6254.00    2.58956   2.51921   -1.000
 6255.00    2.58525   2.51761   -1.000
 6256.00    2.58721   2.51952   -1.000
 6257.00    2.58702   2.52492   -1.000
 6258.00    2.60187   2.53343   -1.000
 6259.00    2.61457   2.54429   -1.000
 6260.00    2.60951   2.55630   -1.000
 6261.00    2.62107   2.56821   -1.000
 6262.00    2.63277   2.57908   -1.000
 6263.00    2.61829   2.58831   -1.000
 6264.00    2.59593   2.59557  106.895
 6265.00    2.58505   2.60066  106.956
 6266.00    2.59170   2.60361  107.502
 6267.00    2.60969   2.60470  107.545
 6268.00    2.62599   2.60424  107.207
 6269.00    2.63029   2.60242  106.918
 6270.00    2.61689   2.59896  107.063
 6271.00    2.59036   2.59325  107.730
 6272.00    2.56218   2.58478  108.596
 6273.00    2.52982   2.57342   -1.000
 6274.00    2.47196   2.55987   -1.000
 6275.00    2.39486   2.54556   -1.000
 6276.00    2.35587   2.53249   -1.000
 6277.00    2.33265   2.52293   -1.000
 6278.00    2.28953   2.51867   -1.000
 6279.00    2.23733   2.52050   -1.000
 6280.00    2.21558   2.52816   -1.000
 6281.00    2.24862   2.54031   -1.000
 6282.00    2.32129   2.55500   -1.000
 6283.00    2.40624   2.57010   -1.000
 6284.00    2.47517   2.58377   -1.000
 6285.00    2.52631   2.59454   -1.000
 6286.00    2.55989   2.60165   -1.000
 6287.00    2.60045   2.60516  107.267
 6288.00    2.59785   2.60573  108.106
 6289.00    2.58662   2.60429  108.467
 6290.00    2.58854   2.60175  108.587
 6291.00    2.59130   2.59867  108.761
 6292.00    2.59078   2.59506  109.439
 6293.00    2.58192   2.59061  110.219
 6294.00    2.55493   2.58516   -1.000
 6295.00    2.51654   2.57891   -1.000
 6296.00    2.44832   2.57232   -1.000
 6297.00    2.42019   2.56604   -1.000
 6298.00    2.49000   2.56104   -1.000
 6299.00    2.58049   2.55876  111.326
 6300.00    2.58696   2.56036  110.970
 6301.00    2.55937   2.56616  109.343
 6302.00    2.54234   2.57561   -1.000
 6303.00    2.56527   2.58743  106.871
 6304.00    2.57093   2.59982   -1.000
 6305.00    2.57028   2.61101   -1.000
 6306.00    2.58823   2.61977   -1.000
 6307.00    2.60623   2.62549  106.552
 6308.00    2.61167   2.62810  107.050
 6309.00    2.59556   2.62786   -1.000
 6310.00    2.60349   2.62508  107.662
 6311.00    2.62018   2.62022  108.418
 6312.00    2.58982   2.61393  108.998
 6313.00    2.57395   2.60697   -1.000
 6314.00    2.57616   2.60039  108.907
 6315.00    2.56938   2.59550   -1.000
 6316.00    2.56480   2.59366   -1.000
 6317.00    2.56204   2.59562   -1.000
 6318.00    2.56302   2.60123   -1.000
 6319.00    2.58824   2.60976  105.933
 6320.00    2.61888   2.62042  105.585
 6321.00    2.62128   2.63197  105.066
 6322.00    2.61077   2.64305   -1.000
 6323.00    2.63783   2.65270  104.552
 6324.00    2.65839   2.66029  104.151
 6325.00    2.64870   2.66572  104.077
 6326.00    2.65495   2.66908  104.180
 6327.00    2.64889   2.67064  104.249
 6328.00    2.64304   2.67070  103.982
 6329.00    2.68458   2.66926  103.743
 6330.00    2.66104   2.66593  103.920
 6331.00    2.51337   2.66035   -1.000
 6332.00    2.57588   2.65276   -1.000
 6333.00    2.63983   2.64442  106.972
 6334.00    2.61218   2.63725  106.273
 6335.00    2.60191   2.63290   -1.000
 6336.00    2.61745   2.63243  104.067
 6337.00    2.62144   2.63596  103.398
 6338.00    2.61628   2.64234  102.912
 6339.00    2.62530   2.64963  102.844
 6340.00    2.64763   2.65604  103.585
 6341.00    2.63903   2.66038  103.956
 6342.00    2.62603   2.66246   -1.000
 6343.00    2.61612   2.66312   -1.000
 6344.00    2.59731   2.66388   -1.000
 6345.00    2.59471   2.66633   -1.000
 6346.00    2.62757   2.67098   -1.000
 6347.00    2.64574   2.67740   -1.000
 6348.00    2.63429   2.68440   -1.000
 6349.00    2.62038   2.69042   -1.000
 6350.00    2.63436   2.69404   -1.000
 6351.00    2.63833   2.69459   -1.000
 6352.00    2.63845   2.69227   -1.000
 6353.00    2.62804   2.68786   -1.000
 6354.00    2.61810   2.68213   -1.000
 6355.00    2.62283   2.67582   -1.000
 6356.00    2.61324   2.66977   -1.000
 6357.00    2.58816   2.66441   -1.000
 6358.00    2.55430   2.65977   -1.000
 6359.00    2.54724   2.65602   -1.000
 6360.00    2.52833   2.65345   -1.000
 6361.00    2.55108   2.65240   -1.000
 6362.00    2.57781   2.65307   -1.000
 6363.00    2.58108   2.65538   -1.000
 6364.00    2.59545   2.65905   -1.000
 6365.00    2.60213   2.66332   -1.000
 6366.00    2.59456   2.66738   -1.000
 6367.00    2.59680   2.67088   -1.000
 6368.00    2.60587   2.67407   -1.000
 6369.00    2.61891   2.67748   -1.000
 6370.00    2.61438   2.68139   -1.000
 6371.00    2.60155   2.68561   -1.000
 6372.00    2.59201   2.68958   -1.000
 6373.00    2.58592   2.69254   -1.000
 6374.00    2.56236   2.69383   -1.000
 6375.00    2.55410   2.69335   -1.000
 6376.00    2.56983   2.69128   -1.000
 6377.00    2.57138   2.68826   -1.000
 6378.00    2.57034   2.68498   -1.000
 6379.00    2.55594   2.68218   -1.000
 6380.00    2.54073   2.68042   -1.000
 6381.00    2.54658   2.68010   -1.000
 6382.00    2.55433   2.68139   -1.000
 6383.00    2.56539   2.68406   -1.000
 6384.00    2.56226   2.68737   -1.000
 6385.00    2.54228   2.69050   -1.000
 6386.00    2.52489   2.69264   -1.000
 6387.00    2.50938   2.69308   -1.000
 6388.00    2.50813   2.69111   -1.000
 6389.00    2.50671   2.68663   -1.000
 6390.00    2.48807   2.68067   -1.000
 6391.00    2.47456   2.67490   -1.000
 6392.00    2.42851   2.67091   -1.000
 6393.00    2.39958   2.66920   -1.000
 6394.00    2.40570   2.66910   -1.000
 6395.00    2.41589   2.66925   -1.000
 6396.00    2.41445   2.66861   -1.000
 6397.00    2.40097   2.66751   -1.000
 6398.00    2.36522   2.66703   -1.000
 6399.00    2.34191   2.66840   -1.000
 6400.00    2.32664   2.67210   -1.000
 6401.00    2.32692   2.67765   -1.000
 6402.00    2.33407   2.68362   -1.000
 6403.00    2.33529   2.68822   -1.000
 6404.00    2.32637   2.69039   -1.000
 6405.00    2.31035   2.69018   -1.000
 6406.00    2.29417   2.68848   -1.000
 6407.00    2.27628   2.68605   -1.000
 6408.00    2.25029   2.68378   -1.000
 6409.00    2.22720   2.68270   -1.000
 6410.00    2.21173   2.68330   -1.000
 6411.00    2.18928   2.68523   -1.000
 6412.00    2.19617   2.68777   -1.000
 6413.00    2.20629   2.69042   -1.000
 6414.00    2.17673   2.69255   -1.000
 6415.00    2.16544   2.69338   -1.000
 6416.00    2.15753   2.69260   -1.000
 6417.00    2.12866   2.69066   -1.000
 6418.00    2.08605   2.68885   -1.000
 6419.00    2.06863   2.68914   -1.000
 6420.00    2.04079   2.69272   -1.000
 6421.00    2.00186   2.69941   -1.000
 6422.00    1.97987   2.70846   -1.000
 6423.00    1.98590   2.71821   -1.000
 6424.00    1.99574   2.72658   -1.000
 6425.00    1.96885   2.73156   -1.000
 6426.00    1.93853   2.73186   -1.000
 6427.00    1.93417   2.72760   -1.000
 6428.00    0.57083   2.72057   -1.000
