###################################################################
## OUTPUT of StarlightChains_v04.for    [Cid@UFSC - 01/Apr/2007] ##
###################################################################

## Some input info
NGC6235_a_1.cxt                          [arq_obs]
Base.BC03.N                              [arq_base]
NGC6235_a_1.msk                          [arq_masks]
StCv04.C99.config                        [arq_config]
   45                                    [N_base]
    0                                    [N_YAV_components = # of components with extra extinction!]
    0                                    [i_FitPowerLaw (1/0 = Yes/No)]
-9.99                                    [alpha_PowerLaw]
CCM                                      [red_law_option]
 1.458241                                [q_norm = A(l_norm)/A(V)]

## (Re)Sampling Parameters
 3359.00                                 [l_ini (A)]
 6428.00                                 [l_fin (A)]
    1.00                                 [dl    (A)]     (OBS: dl_cushion =    50.00 A)

## Normalization info
 4020.00                                 [l_norm (A) - for base]
 4010.00                                 [llow_norm (A) - window for f_obs]
 4060.00                                 [lupp_norm (A) - window for f_obs]
2.685576E-15                             [fobs_norm (in input units)]

## S/N
 4730.00                                 [llow_SN (A) - window for S/N]
 4780.00                                 [lupp_SN (A) - window for S/N]
  64.240                                 [S/N in S/N window]
  49.525                                 [S/N in norm. window]
 131.570                                 [S/N_err in S/N window]
 101.432                                 [S/N_err in norm. window]
  1.0000                                 [fscale_chi2]

## etc...
  2147483624                             [idum_orig]
  3066                                   [NOl_eff]
  1516                                   [Nl_eff]
  1550    NSIGMA                         [Ntot_cliped & clip_method]
  1740760                                [Nglobal_steps]
   7                                     [N_chains]
  11                                     [NEX0s_base = N_base in EX0s-fits]
 0   0   1      144   2.0   2.368E+02    [Clip-Bug, RC-Crash & Burn-In warning-flags, n_censored_weights, wei_nsig_threshold & wei_limit]
    23     23.379     23.371      0.008  [idt_all, wdt_TotTime, wdt_UsrTime & wdt_SysTime (sec)]

## Synthesis Results - Best model ##

 2.42571E+00                             [chi2/Nl_eff]
     1.56647                             [adev (%)]

    99.50816                             [sum-of-x (%)]
 1.64127E-14                             [Flux_tot (units of input spectrum!)]
 1.67020E-10                             [Mini_tot (???)]
 8.89249E-11                             [Mcor_tot (???)]

 -10.21                                  [v0_min  (km/s)]
 128.77                                  [vd_min  (km/s)]
 1.3514                                  [AV_min  (mag)]
 0.0000                                  [YAV_min (mag)]

# j     x_j(%)      Mini_j(%)     Mcor_j(%)     age_j(yr)     Z_j      (L/M)_j    YAV?  Mstars   component_j        a/Fe...       SSP_chi2r SSP_adev(%)   SSP_AV   SSP_x(%)
  1      0.0000     0.0000E+00    0.0000E+00    1.000000E+06  0.00400  1.114E-02    0   1.0000   age020_m42            0.0000     2.5027E+02    12.3065   4.0000    89.1581
  2      5.3456     1.2961E-02    2.4341E-02    3.160000E+06  0.00400  4.073E-02    0   0.9999   age045_m42            0.0000     4.6043E+01     5.6000   3.4870    91.1782
  3      0.0000     0.0000E+00    0.0000E+00    5.010000E+06  0.00400  2.534E-02    0   0.9488   age055_m42            0.0000     9.0842E+01     7.8263   3.8301    86.7327
  4     10.7624     8.3621E-02    1.3918E-01    1.000000E+07  0.00400  1.271E-02    0   0.8862   age070_m42            0.0000     8.1946E+01     7.5842   3.0481    90.9651
  5      0.0000     0.0000E+00    0.0000E+00    2.512000E+07  0.00400  5.070E-03    0   0.8174   age090_m42            0.0000     6.9350E+01     7.0810   2.9275    92.3145
  6      0.0000     0.0000E+00    0.0000E+00    4.000000E+07  0.00400  3.505E-03    0   0.7851   age104_m42            0.0000     4.1877E+01     5.6074   2.6475    94.1955
  7      4.9347     2.1487E-01    2.9085E-01    1.015200E+08  0.00400  2.268E-03    0   0.7207   age116_m42            0.0000     4.9217E+01     4.1668   2.7872    98.6628
  8      0.0000     0.0000E+00    0.0000E+00    2.861200E+08  0.00400  1.079E-03    0   0.6613   age125_m42            0.0000     5.5285E+01     4.4784   2.3126    99.9260
  9     10.0252     1.9500E+00    2.2697E+00    6.405400E+08  0.00400  5.077E-04    0   0.6197   age132_m42            0.0000     6.0675E+01     4.9148   1.9535   103.8148
 10     18.7816     5.2468E+00    5.9364E+00    9.047900E+08  0.00400  3.535E-04    0   0.6024   age135_m42            0.0000     3.7048E+01     3.9272   1.7020   103.5185
 11      0.0000     0.0000E+00    0.0000E+00    1.434000E+09  0.00400  1.910E-04    0   0.5716   age139_m42            0.0000     1.9317E+01     3.0960   1.1761   102.3244
 12     23.7216     2.3860E+01    2.4482E+01    2.500000E+09  0.00400  9.818E-05    0   0.5463   age150_m42            0.0000     1.8125E+01     3.0357   0.8723    98.7653
 13     23.5579     4.9310E+01    4.8419E+01    5.000000E+09  0.00400  4.718E-05    0   0.5228   age161_m42            0.0000     2.7254E+01     3.5100   0.6800    96.3719
 14      0.0000     0.0000E+00    0.0000E+00    1.100000E+10  0.00400  2.205E-05    0   0.4980   age185_m42            0.0000     6.0599E+01     4.8718   0.4208    94.2537
 15      0.0000     0.0000E+00    0.0000E+00    1.300000E+10  0.00400  1.883E-05    0   0.4927   age193_m42            0.0000     6.5520E+01     5.0601   0.4019    94.1555
 16      0.0000     0.0000E+00    0.0000E+00    1.000000E+06  0.02000  1.989E-02    0   1.0000   age020_m62            0.0000     2.2642E+02    11.6592   4.0000    89.0525
 17      0.0000     0.0000E+00    0.0000E+00    3.160000E+06  0.02000  3.772E-02    0   0.9858   age045_m62            0.0000     1.6775E+02    10.2244   4.0000    87.7546
 18      0.8536     2.6122E-03    4.5834E-03    5.010000E+06  0.02000  3.227E-02    0   0.9342   age055_m62            0.0000     6.8015E+01     6.8209   3.7140    88.9956
 19      0.0766     7.4865E-04    1.2305E-03    1.000000E+07  0.02000  1.011E-02    0   0.8751   age070_m62            0.0000     1.9087E+02    11.4757   3.0002    89.5554
 20      0.0000     0.0000E+00    0.0000E+00    2.512000E+07  0.02000  4.206E-03    0   0.8099   age090_m62            0.0000     1.3617E+02     9.7413   2.9690    89.3038
 21      0.0000     0.0000E+00    0.0000E+00    4.000000E+07  0.02000  3.373E-03    0   0.7799   age104_m62            0.0000     4.1295E+01     5.3245   2.8772    95.0795
 22      0.0000     0.0000E+00    0.0000E+00    1.015200E+08  0.02000  1.878E-03    0   0.7221   age116_m62            0.0000     4.3440E+01     3.8659   2.7945    99.7515
 23      0.0000     0.0000E+00    0.0000E+00    2.861200E+08  0.02000  8.869E-04    0   0.6700   age125_m62            0.0000     9.7539E+01     5.9044   2.3519   103.9427
 24      0.0000     0.0000E+00    0.0000E+00    6.405400E+08  0.02000  3.657E-04    0   0.6322   age132_m62            0.0000     7.3087E+01     5.5811   1.6983   106.1917
 25      0.0000     0.0000E+00    0.0000E+00    9.047900E+08  0.02000  2.312E-04    0   0.6152   age135_m62            0.0000     4.7312E+01     4.7348   1.3118   105.7275
 26      0.0000     0.0000E+00    0.0000E+00    1.434000E+09  0.02000  1.168E-04    0   0.5865   age139_m62            0.0000     3.1388E+01     3.9557   0.8531   101.5199
 27      0.0000     0.0000E+00    0.0000E+00    2.500000E+09  0.02000  5.505E-05    0   0.5610   age150_m62            0.0000     5.7155E+01     5.0468   0.4705    99.1627
 28      0.0000     0.0000E+00    0.0000E+00    5.000000E+09  0.02000  2.596E-05    0   0.5353   age161_m62            0.0000     1.1600E+02     6.7746   0.1563    98.6053
 29      0.0000     0.0000E+00    0.0000E+00    1.100000E+10  0.02000  1.169E-05    0   0.5103   age185_m62            0.0000     1.8933E+02     8.4349  -0.1818    99.0639
 30      0.0000     0.0000E+00    0.0000E+00    1.300000E+10  0.02000  9.691E-06    0   0.5047   age193_m62            0.0000     2.0350E+02     8.7077  -0.2239    99.1352
 31      0.0000     0.0000E+00    0.0000E+00    1.000000E+06  0.05000  2.651E-02    0   0.9998   age020_m72            0.0000     2.2279E+02    11.5880   4.0000    90.0448
 32      0.0000     0.0000E+00    0.0000E+00    3.160000E+06  0.05000  4.817E-02    0   0.9577   age045_m72            0.0000     1.1722E+02     8.7921   4.0000    87.1025
 33      0.0000     0.0000E+00    0.0000E+00    5.010000E+06  0.05000  3.101E-02    0   0.9147   age055_m72            0.0000     1.0483E+02     8.3020   3.6890    88.4472
 34      0.0000     0.0000E+00    0.0000E+00    1.000000E+07  0.05000  8.954E-03    0   0.8524   age070_m72            0.0000     1.0741E+02     8.3579   3.9224    87.0731
 35      0.0000     0.0000E+00    0.0000E+00    2.512000E+07  0.05000  4.207E-03    0   0.7902   age090_m72            0.0000     5.5444E+01     6.1686   3.5432    91.2069
 36      0.0000     0.0000E+00    0.0000E+00    4.000000E+07  0.05000  3.198E-03    0   0.7618   age104_m72            0.0000     3.2895E+01     3.6624   3.1332    96.4789
 37      0.0000     0.0000E+00    0.0000E+00    1.015200E+08  0.05000  1.716E-03    0   0.7092   age116_m72            0.0000     5.4719E+01     4.3267   2.8900    99.5224
 38      0.0000     0.0000E+00    0.0000E+00    2.861200E+08  0.05000  7.047E-04    0   0.6618   age125_m72            0.0000     9.5090E+01     6.0094   2.1619   103.8609
 39      0.0000     0.0000E+00    0.0000E+00    6.405400E+08  0.05000  2.633E-04    0   0.6253   age132_m72            0.0000     6.2559E+01     5.3727   1.3291   105.3601
 40      0.0000     0.0000E+00    0.0000E+00    9.047900E+08  0.05000  1.484E-04    0   0.6088   age135_m72            0.0000     5.1574E+01     4.9944   0.8209   101.3476
 41      0.0000     0.0000E+00    0.0000E+00    1.434000E+09  0.05000  7.827E-05    0   0.5847   age139_m72            0.0000     8.3553E+01     5.9941   0.4159    98.5250
 42      0.0000     0.0000E+00    0.0000E+00    2.500000E+09  0.05000  3.759E-05    0   0.5583   age150_m72            0.0000     1.2855E+02     7.1338   0.0861    98.0328
 43      0.6229     3.9736E+00    3.9704E+00    5.000000E+09  0.05000  1.548E-05    0   0.5320   age161_m72            0.0000     2.0052E+02     8.5769  -0.3134    97.1954
 44      0.0000     0.0000E+00    0.0000E+00    1.100000E+10  0.05000  6.532E-06    0   0.5070   age185_m72            0.0000     2.9492E+02    10.4396  -0.6347    95.2064
 45      0.8260     1.5345E+01    1.4462E+01    1.300000E+10  0.05000  5.316E-06    0   0.5018   age193_m72            0.0000     3.3382E+02    11.1919  -0.7276    94.4987


## Synthesis Results - Average & Chains ##

# j      x_j: min, <> & last-chain-values for 1 ...  7 chains
  1      0.0000      0.0209      0.0000      0.0000      0.0000      0.0000      0.0000      0.0000      0.0000
  2      5.3456      4.3521      4.3974      4.4221      4.5935      4.2631      4.2320      4.4666      4.3860
  3      0.0000      0.0750      0.0000      0.1039      0.0972      0.0735      0.0489      0.0000      0.4095
  4     10.7624      9.8323     10.5891      9.5697      9.9880     10.0474      9.9017     10.0305      9.8016
  5      0.0000      0.1918      0.2385      0.3890      0.1935      0.1343      0.2083      0.0938      0.0995
  6      0.0000      0.0581      0.0000      0.0000      0.1082      0.0571      0.0844      0.4094      0.0327
  7      4.9347      5.7342      5.8827      5.5815      5.4086      5.5803      5.7986      5.9042      5.6484
  8      0.0000      0.0506      0.2663      0.1188      0.0000      0.0000      0.0000      0.0000      0.0000
  9     10.0252      9.2899      9.2800      9.3582      9.0825      9.8085      9.4805      9.3143      9.5162
 10     18.7816     17.1880     17.3104     17.5735     17.8223     17.7660     17.3500     17.6279     17.7971
 11      0.0000      0.2486      0.0000      0.0000      0.1602      0.0420      0.1901      0.1086      0.3103
 12     23.7216     24.6324     24.7891     24.5784     24.7066     24.1878     24.5808     24.4724     24.3257
 13     23.5579     24.2921     24.3679     24.2697     24.0386     24.2224     24.3685     23.9815     24.4683
 14      0.0000      0.0513      0.0000      0.0000      0.0000      0.0000      0.0000      0.0000      0.0000
 15      0.0000      0.0300      0.0000      0.0000      0.0000      0.0000      0.0000      0.0000      0.0000
 16      0.0000      0.0238      0.0000      0.0000      0.0000      0.0035      0.0000      0.0000      0.0000
 17      0.0000      0.0208      0.0000      0.0283      0.0000      0.0000      0.0000      0.0000      0.0000
 18      0.8536      0.3636      0.2565      0.6503      0.2980      0.3602      0.6741      0.4519      0.3858
 19      0.0766      0.6555      0.6367      0.7357      0.7289      0.6429      0.6353      0.4961      0.7210
 20      0.0000      0.0496      0.0000      0.0000      0.0000      0.0000      0.0000      0.0313      0.0000
 21      0.0000      0.0378      0.0000      0.0000      0.0000      0.0000      0.0145      0.0000      0.0486
 22      0.0000      0.0951      0.0344      0.0492      0.0000      0.0000      0.0000      0.0000      0.0243
 23      0.0000      0.0459      0.0000      0.0000      0.0000      0.1349      0.0000      0.1288      0.0368
 24      0.0000      0.0279      0.0000      0.0000      0.0000      0.0000      0.0000      0.0080      0.0000
 25      0.0000      0.0331      0.0000      0.0000      0.0000      0.0088      0.0000      0.0000      0.0000
 26      0.0000      0.0500      0.0000      0.0000      0.0440      0.0000      0.0000      0.0000      0.0000
 27      0.0000      0.0311      0.0000      0.0785      0.0349      0.0000      0.0000      0.0000      0.0000
 28      0.0000      0.0989      0.0000      0.1016      0.1242      0.1738      0.0266      0.1372      0.0000
 29      0.0000      0.0533      0.0000      0.1208      0.0000      0.1832      0.0437      0.0000      0.0000
 30      0.0000      0.0447      0.0000      0.0000      0.0000      0.0000      0.0000      0.0000      0.0000
 31      0.0000      0.0171      0.0000      0.0000      0.0000      0.0115      0.0602      0.0000      0.0000
 32      0.0000      0.0293      0.0000      0.0053      0.0000      0.2620      0.0000      0.0000      0.0000
 33      0.0000      0.1712      0.0890      0.2212      0.1659      0.1356      0.1484      0.3602      0.0823
 34      0.0000      0.0216      0.0000      0.0000      0.0000      0.0432      0.0000      0.0085      0.0000
 35      0.0000      0.0210      0.0000      0.0000      0.0000      0.0000      0.0000      0.0000      0.0000
 36      0.0000      0.0263      0.0000      0.0000      0.1742      0.0000      0.1580      0.0107      0.0569
 37      0.0000      0.2043      0.0000      0.2525      0.3189      0.0631      0.2102      0.0000      0.0000
 38      0.0000      0.0284      0.0375      0.0000      0.0000      0.0000      0.0000      0.0000      0.1066
 39      0.0000      0.0282      0.0000      0.0000      0.0000      0.0000      0.0000      0.0000      0.0000
 40      0.0000      0.0368      0.0000      0.0000      0.0000      0.0000      0.0000      0.0853      0.0000
 41      0.0000      0.0350      0.0203      0.0302      0.0000      0.1440      0.0000      0.0373      0.0243
 42      0.0000      0.0201      0.0000      0.0000      0.1522      0.0000      0.0000      0.0000      0.0000
 43      0.6229      0.3512      0.3636      0.4106      0.4041      0.3778      0.4384      0.4195      0.3778
 44      0.0000      0.3580      0.4103      0.3766      0.3930      0.3334      0.3524      0.3739      0.3854
 45      0.8260      0.4546      0.4645      0.4557      0.4478      0.4525      0.4542      0.4778      0.4415

# j      m_j: min, <> & last-chain-values for 1 ...  7 chains
  1  0.0000E+00  3.4445E-04  0.0000E+00  0.0000E+00  0.0000E+00  0.0000E+00  0.0000E+00  0.0000E+00  0.0000E+00
  2  2.4341E-02  1.9659E-02  1.9986E-02  1.9930E-02  2.0857E-02  1.9294E-02  1.9269E-02  2.0358E-02  2.0052E-02
  3  0.0000E+00  5.1672E-04  0.0000E+00  7.1391E-04  6.7301E-04  5.0721E-04  3.3992E-04  0.0000E+00  2.8551E-03
  4  1.3918E-01  1.2614E-01  1.3669E-01  1.2250E-01  1.2881E-01  1.2915E-01  1.2805E-01  1.2985E-01  1.2727E-01
  5  0.0000E+00  5.6911E-03  7.1200E-03  1.1514E-02  5.7713E-03  3.9916E-03  6.2288E-03  2.8072E-03  2.9883E-03
  6  0.0000E+00  2.3961E-03  0.0000E+00  0.0000E+00  4.4844E-03  2.3559E-03  3.5075E-03  1.7026E-02  1.3621E-03
  7  2.9085E-01  3.3528E-01  3.4608E-01  3.2561E-01  3.1788E-01  3.2689E-01  3.4176E-01  3.4833E-01  3.3425E-01
  8  0.0000E+00  5.7085E-03  3.0214E-02  1.3371E-02  0.0000E+00  0.0000E+00  0.0000E+00  0.0000E+00  0.0000E+00
  9  2.2697E+00  2.0864E+00  2.0971E+00  2.0970E+00  2.0504E+00  2.2071E+00  2.1463E+00  2.1108E+00  2.1631E+00
 10  5.9364E+00  5.3893E+00  5.4612E+00  5.4978E+00  5.6173E+00  5.5812E+00  5.4837E+00  5.5772E+00  5.6479E+00
 11  0.0000E+00  1.3687E-01  0.0000E+00  0.0000E+00  8.8651E-02  2.3189E-02  1.0550E-01  6.0327E-02  1.7293E-01
 12  2.4482E+01  2.5219E+01  2.5536E+01  2.5107E+01  2.5427E+01  2.4811E+01  2.5368E+01  2.5282E+01  2.5207E+01
 13  4.8419E+01  4.9529E+01  4.9990E+01  4.9371E+01  4.9267E+01  4.9481E+01  5.0083E+01  4.9337E+01  5.0492E+01
 14  0.0000E+00  2.1316E-01  0.0000E+00  0.0000E+00  0.0000E+00  0.0000E+00  0.0000E+00  0.0000E+00  0.0000E+00
 15  0.0000E+00  1.4435E-01  0.0000E+00  0.0000E+00  0.0000E+00  0.0000E+00  0.0000E+00  0.0000E+00  0.0000E+00
 16  0.0000E+00  2.2055E-04  0.0000E+00  0.0000E+00  0.0000E+00  3.2532E-05  0.0000E+00  0.0000E+00  0.0000E+00
 17  0.0000E+00  1.0010E-04  0.0000E+00  1.3565E-04  0.0000E+00  0.0000E+00  0.0000E+00  0.0000E+00  0.0000E+00
 18  4.5834E-03  1.9367E-03  1.3749E-03  3.4560E-03  1.5958E-03  1.9226E-03  3.6195E-03  2.4287E-03  2.0800E-03
 19  1.2305E-03  1.0440E-02  1.0203E-02  1.1690E-02  1.1670E-02  1.0259E-02  1.0198E-02  7.9725E-03  1.1622E-02
 20  0.0000E+00  1.7591E-03  0.0000E+00  0.0000E+00  0.0000E+00  0.0000E+00  0.0000E+00  1.1201E-03  0.0000E+00
 21  0.0000E+00  1.6077E-03  0.0000E+00  0.0000E+00  0.0000E+00  0.0000E+00  6.2096E-04  0.0000E+00  2.0919E-03
 22  0.0000E+00  6.7295E-03  2.4518E-03  3.4720E-03  0.0000E+00  0.0000E+00  0.0000E+00  0.0000E+00  1.7398E-03
 23  0.0000E+00  6.3827E-03  0.0000E+00  0.0000E+00  0.0000E+00  1.8787E-02  0.0000E+00  1.8066E-02  5.1794E-03
 24  0.0000E+00  8.8714E-03  0.0000E+00  0.0000E+00  0.0000E+00  0.0000E+00  0.0000E+00  2.5542E-03  0.0000E+00
 25  0.0000E+00  1.6214E-02  0.0000E+00  0.0000E+00  0.0000E+00  4.3233E-03  0.0000E+00  0.0000E+00  0.0000E+00
 26  0.0000E+00  4.6177E-02  0.0000E+00  0.0000E+00  4.0830E-02  0.0000E+00  0.0000E+00  0.0000E+00  0.0000E+00
 27  0.0000E+00  5.8249E-02  0.0000E+00  1.4687E-01  6.5826E-02  0.0000E+00  0.0000E+00  0.0000E+00  0.0000E+00
 28  0.0000E+00  3.7507E-01  0.0000E+00  3.8451E-01  4.7353E-01  6.6060E-01  1.0176E-01  5.2539E-01  0.0000E+00
 29  0.0000E+00  4.2800E-01  0.0000E+00  9.6829E-01  0.0000E+00  1.4742E+00  3.5412E-01  0.0000E+00  0.0000E+00
 30  0.0000E+00  4.2868E-01  0.0000E+00  0.0000E+00  0.0000E+00  0.0000E+00  0.0000E+00  0.0000E+00  0.0000E+00
 31  0.0000E+00  1.1867E-04  0.0000E+00  0.0000E+00  0.0000E+00  8.0152E-05  4.2124E-04  0.0000E+00  0.0000E+00
 32  0.0000E+00  1.0705E-04  0.0000E+00  1.9362E-05  0.0000E+00  9.6026E-04  0.0000E+00  0.0000E+00  0.0000E+00
 33  0.0000E+00  9.2921E-04  4.8620E-04  1.1981E-03  9.0490E-04  7.3751E-04  8.1188E-04  1.9728E-03  4.5195E-04
 34  0.0000E+00  3.7756E-04  0.0000E+00  0.0000E+00  0.0000E+00  7.5815E-04  0.0000E+00  1.4975E-04  0.0000E+00
 35  0.0000E+00  7.2742E-04  0.0000E+00  0.0000E+00  0.0000E+00  0.0000E+00  0.0000E+00  0.0000E+00  0.0000E+00
 36  0.0000E+00  1.1528E-03  0.0000E+00  0.0000E+00  7.6770E-03  0.0000E+00  6.9808E-03  4.7200E-04  2.5227E-03
 37  0.0000E+00  1.5536E-02  0.0000E+00  1.9157E-02  2.4380E-02  4.8056E-03  1.6112E-02  0.0000E+00  0.0000E+00
 38  0.0000E+00  4.9155E-03  6.5140E-03  0.0000E+00  0.0000E+00  0.0000E+00  0.0000E+00  0.0000E+00  1.8639E-02
 39  0.0000E+00  1.2319E-02  0.0000E+00  0.0000E+00  0.0000E+00  0.0000E+00  0.0000E+00  0.0000E+00  0.0000E+00
 40  0.0000E+00  2.7759E-02  0.0000E+00  0.0000E+00  0.0000E+00  0.0000E+00  0.0000E+00  6.4978E-02  0.0000E+00
 41  0.0000E+00  4.8076E-02  2.8019E-02  4.1445E-02  0.0000E+00  1.9838E-01  0.0000E+00  5.1786E-02  3.3804E-02
 42  0.0000E+00  5.4817E-02  0.0000E+00  0.0000E+00  4.1797E-01  0.0000E+00  0.0000E+00  0.0000E+00  0.0000E+00
 43  3.9704E+00  2.2207E+00  2.3131E+00  2.5907E+00  2.5683E+00  2.3937E+00  2.7946E+00  2.6768E+00  2.4181E+00
 44  0.0000E+00  5.1121E+00  5.8955E+00  5.3657E+00  5.6417E+00  4.7705E+00  5.0732E+00  5.3877E+00  5.5711E+00
 45  1.4462E+01  7.8961E+00  8.1181E+00  7.8964E+00  7.8172E+00  7.8745E+00  7.9526E+00  8.3733E+00  7.7614E+00

# AV, chi2 & Mass for <> & i_chain = 1 ...  7 solutions
AV       1.3514      1.3299      1.3353      1.3326      1.3318      1.3336      1.3361      1.3391      1.3357
chi2 2.4257E+00  2.4687E+00  2.4534E+00  2.4599E+00  2.4594E+00  2.4587E+00  2.4551E+00  2.4521E+00  2.4546E+00
Mass 8.8925E-11  8.7082E-11  8.7180E-11  8.7605E-11  8.6862E-11  8.7354E-11  8.7117E-11  8.7382E-11  8.6715E-11
  -9.97                                  [v0_min (km/s) before EX0s...]
 129.13                                  [vd_min (km/s) before EX0s...]


## Synthetic spectrum (Best Model) ##l_obs f_obs f_syn wei
 3070    [Nl_obs]
 3359.00    0.24479   0.43174   -1.000
 3360.00    0.29363   0.41935   -1.000
 3361.00    0.29228   0.41787   -1.000
 3362.00    0.19751   0.42770   -1.000
 3363.00    0.30149   0.44298   -1.000
 3364.00    0.31738   0.45513   -1.000
 3365.00    0.29300   0.45805   -1.000
 3366.00    0.27068   0.45119   -1.000
 3367.00    0.24880   0.43897   -1.000
 3368.00    0.19615   0.42729   -1.000
 3369.00    0.24385   0.41956   -1.000
 3370.00    0.22425   0.41573   -1.000
 3371.00    0.22340   0.41484   -1.000
 3372.00    0.26774   0.41778   -1.000
 3373.00    0.27101   0.42690   -1.000
 3374.00    0.22504   0.44195   -1.000
 3375.00    0.28987   0.45776   -1.000
 3376.00    0.35013   0.46674   -1.000
 3377.00    0.33076   0.46467   -1.000
 3378.00    0.32662   0.45468   -1.000
 3379.00    0.31362   0.44440   -1.000
 3380.00    0.25673   0.44055   -1.000
 3381.00    0.35950   0.44497   -1.000
 3382.00    0.31477   0.45469   -1.000
 3383.00    0.24375   0.46537   -1.000
 3384.00    0.30677   0.47402   -1.000
 3385.00    0.43269   0.47992   36.914
 3386.00    0.41504   0.48308   37.203
 3387.00    0.31119   0.48374   -1.000
 3388.00    0.41788   0.48282   35.760
 3389.00    0.42045   0.48099   34.993
 3390.00    0.39955   0.47786   35.428
 3391.00    0.39157   0.47320   35.772
 3392.00    0.37489   0.46864   -1.000
 3393.00    0.32236   0.46755   -1.000
 3394.00    0.39161   0.47249   33.225
 3395.00    0.38646   0.48269   31.371
 3396.00    0.37624   0.49459   -1.000
 3397.00    0.45601   0.50409   29.522
 3398.00    0.39636   0.50854   -1.000
 3399.00    0.36508   0.50732   -1.000
 3400.00    0.37854   0.50150   -1.000
 3401.00    0.41863   0.49326   29.612
 3402.00    0.41945   0.48474   29.903
 3403.00    0.39405   0.47755   30.434
 3404.00    0.41714   0.47220   30.990
 3405.00    0.48679   0.46792   31.485
 3406.00    0.40035   0.46397   31.630
 3407.00    0.38980   0.46118   32.140
 3408.00    0.45322   0.46110   32.299
 3409.00    0.42113   0.46408   32.071
 3410.00    0.43639   0.46827   31.097
 3411.00    0.38266   0.47085   30.906
 3412.00    0.42250   0.47060   32.268
 3413.00    0.44173   0.46884   32.827
 3414.00    0.33993   0.46831   -1.000
 3415.00    0.35571   0.47117   -1.000
 3416.00    0.34486   0.47801   -1.000
 3417.00    0.40038   0.48787   29.037
 3418.00    0.47711   0.49843   27.602
 3419.00    0.47255   0.50682   27.512
 3420.00    0.45973   0.51063   27.329
 3421.00    0.41863   0.50937   27.521
 3422.00    0.41622   0.50496   28.340
 3423.00    0.46237   0.50030   28.936
 3424.00    0.41061   0.49763   28.081
 3425.00    0.47156   0.49815   27.359
 3426.00    0.45321   0.50230   27.924
 3427.00    0.47662   0.50952   -1.000
 3428.00    0.36971   0.51766   -1.000
 3429.00    0.47669   0.52297   -1.000
 3430.00    0.45176   0.52259   -1.000
 3431.00    0.48590   0.51720   -1.000
 3432.00    0.42355   0.51031   27.334
 3433.00    0.42602   0.50578   27.907
 3434.00    0.39364   0.50477   -1.000
 3435.00    0.35039   0.50531   -1.000
 3436.00    0.39569   0.50375   27.181
 3437.00    0.46206   0.49703   28.481
 3438.00    0.43163   0.48427   30.221
 3439.00    0.36899   0.46722   -1.000
 3440.00    0.40884   0.45002   33.862
 3441.00    0.45557   0.43773   33.897
 3442.00    0.47394   0.43365   33.708
 3443.00    0.45960   0.43743   32.336
 3444.00    0.40579   0.44636   30.557
 3445.00    0.39164   0.45826   28.886
 3446.00    0.38806   0.47243   28.803
 3447.00    0.42404   0.48748   -1.000
 3448.00    0.43223   0.50010   -1.000
 3449.00    0.46625   0.50628   -1.000
 3450.00    0.50273   0.50404  236.845
 3451.00    0.53170   0.49573   -1.000
 3452.00    0.47510   0.48643  236.845
 3453.00    0.49119   0.48092  236.845
 3454.00    0.46528   0.48060   -1.000
 3455.00    0.44493   0.48268   -1.000
 3456.00    0.53485   0.48307   -1.000
 3457.00    0.47522   0.47944  197.839
 3458.00    0.44105   0.47272   27.238
 3459.00    0.46292   0.46589   27.589
 3460.00    0.47552   0.46205   28.374
 3461.00    0.43953   0.46324   -1.000
 3462.00    0.41568   0.46927   -1.000
 3463.00    0.50495   0.47745   -1.000
 3464.00    0.52389   0.48432   -1.000
 3465.00    0.51325   0.48883   -1.000
 3466.00    0.51796   0.49218   -1.000
 3467.00    0.48755   0.49591  236.590
 3468.00    0.54304   0.50017   -1.000
 3469.00    0.55839   0.50357   -1.000
 3470.00    0.48914   0.50434   -1.000
 3471.00    0.46913   0.50097   -1.000
 3472.00    0.50065   0.49281  236.845
 3473.00    0.53938   0.48111   -1.000
 3474.00    0.45011   0.46906   27.493
 3475.00    0.40377   0.46103   28.466
 3476.00    0.43453   0.46016   28.959
 3477.00    0.45844   0.46624  236.845
 3478.00    0.41606   0.47583   -1.000
 3479.00    0.40191   0.48475   -1.000
 3480.00    0.49082   0.49012  232.087
 3481.00    0.42778   0.49113   -1.000
 3482.00    0.50826   0.48928   -1.000
 3483.00    0.49753   0.48765  236.845
 3484.00    0.49229   0.48946  232.822
 3485.00    0.48784   0.49532  225.436
 3486.00    0.46542   0.50212   -1.000
 3487.00    0.56526   0.50466   -1.000
 3488.00    0.57079   0.50027   -1.000
 3489.00    0.49982   0.49128  236.845
 3490.00    0.51043   0.48274   -1.000
 3491.00    0.49750   0.47821   -1.000
 3492.00    0.49673   0.47703   -1.000
 3493.00    0.50014   0.47620   -1.000
 3494.00    0.46644   0.47396  236.845
 3495.00    0.48056   0.47184  236.845
 3496.00    0.50565   0.47323   -1.000
 3497.00    0.43020   0.47962   -1.000
 3498.00    0.45417   0.48916   -1.000
 3499.00    0.46797   0.49781   -1.000
 3500.00    0.51391   0.50324  214.808
 3501.00    0.53134   0.50638   -1.000
 3502.00    0.53614   0.50828   -1.000
 3503.00    0.51794   0.50859  217.135
 3504.00    0.46379   0.50637   -1.000
 3505.00    0.54874   0.50209   -1.000
 3506.00    0.55977   0.49793   -1.000
 3507.00    0.49953   0.49536  218.857
 3508.00    0.49240   0.49381  221.927
 3509.00    0.55570   0.49157   -1.000
 3510.00    0.55448   0.48757   -1.000
 3511.00    0.53614   0.48203   -1.000
 3512.00    0.52502   0.47696   -1.000
 3513.00    0.50862   0.47496   -1.000
 3514.00    0.51765   0.47850   -1.000
 3515.00    0.55564   0.48800   -1.000
 3516.00    0.53033   0.50012   -1.000
 3517.00    0.52211   0.50992  215.698
 3518.00    0.52023   0.51312  222.634
 3519.00    0.51549   0.50875  230.906
 3520.00    0.49832   0.49904  236.845
 3521.00    0.50374   0.48726   -1.000
 3522.00    0.52306   0.47601   -1.000
 3523.00    0.48340   0.46649   27.267
 3524.00    0.47746   0.46019   28.189
 3525.00    0.48044   0.45933   29.522
 3526.00    0.49061   0.46528   -1.000
 3527.00    0.48937   0.47695   -1.000
 3528.00    0.50713   0.49040   -1.000
 3529.00    0.52639   0.50105   -1.000
 3530.00    0.48021   0.50675   -1.000
 3531.00    0.53529   0.50887   -1.000
 3532.00    0.58457   0.51037   -1.000
 3533.00    0.51744   0.51337  225.538
 3534.00    0.56821   0.51766   -1.000
 3535.00    0.56189   0.52195   -1.000
 3536.00    0.54105   0.52571   -1.000
 3537.00    0.51471   0.52929   -1.000
 3538.00    0.46798   0.53285   -1.000
 3539.00    0.47301   0.53561   -1.000
 3540.00    0.46222   0.53708   -1.000
 3541.00    0.43545   0.53782   -1.000
 3542.00    0.51657   0.53935   -1.000
 3543.00    0.50520   0.54181   -1.000
 3544.00    0.48770   0.54394   -1.000
 3545.00    0.51050   0.54459   -1.000
 3546.00    0.48542   0.54366   -1.000
 3547.00    0.47454   0.54236   -1.000
 3548.00    0.50266   0.54174   -1.000
 3549.00    0.48907   0.54191   -1.000
 3550.00    0.44268   0.54174   -1.000
 3551.00    0.49017   0.53995   -1.000
 3552.00    0.50491   0.53620   -1.000
 3553.00    0.47581   0.53174   -1.000
 3554.00    0.49159   0.52840   -1.000
 3555.00    0.48575   0.52692   -1.000
 3556.00    0.47844   0.52651   -1.000
 3557.00    0.46083   0.52593   -1.000
 3558.00    0.49223   0.52537   -1.000
 3559.00    0.51670   0.52640  236.845
 3560.00    0.50134   0.52984   -1.000
 3561.00    0.51745   0.53389   -1.000
 3562.00    0.54762   0.53359   -1.000
 3563.00    0.50970   0.52542  161.233
 3564.00    0.47470   0.51017   27.566
 3565.00    0.46725   0.49365   28.598
 3566.00    0.46306   0.48156   28.264
 3567.00    0.45440   0.47438   28.187
 3568.00    0.51125   0.46920   29.135
 3569.00    0.45063   0.46385   29.559
 3570.00    0.47106   0.45966   28.585
 3571.00    0.45215   0.45931   29.268
 3572.00    0.46557   0.46304  236.845
 3573.00    0.45475   0.46847  236.845
 3574.00    0.41908   0.47311   -1.000
 3575.00    0.46753   0.47591  236.845
 3576.00    0.50117   0.47666   -1.000
 3577.00    0.53156   0.47436   -1.000
 3578.00    0.51349   0.46797   28.569
 3579.00    0.52803   0.45789   30.810
 3580.00    0.50865   0.44697   32.381
 3581.00    0.41573   0.43881   32.569
 3582.00    0.47505   0.43459   32.753
 3583.00    0.50705   0.43269   33.611
 3584.00    0.47309   0.43059   34.678
 3585.00    0.42150   0.42786   34.980
 3586.00    0.38741   0.42716   33.176
 3587.00    0.42289   0.43137   31.419
 3588.00    0.42486   0.44152   29.792
 3589.00    0.44238   0.45591   29.324
 3590.00    0.47984   0.47122  236.845
 3591.00    0.48816   0.48418  236.845
 3592.00    0.49097   0.49339  236.845
 3593.00    0.46385   0.50020   -1.000
 3594.00    0.48625   0.50703   -1.000
 3595.00    0.50348   0.51553  218.880
 3596.00    0.51509   0.52512  212.588
 3597.00    0.56189   0.53372   -1.000
 3598.00    0.58073   0.53922   -1.000
 3599.00    0.58178   0.53987   -1.000
 3600.00    0.61251   0.53485   -1.000
 3601.00    0.59577   0.52496   -1.000
 3602.00    0.57299   0.51282   -1.000
 3603.00    0.58783   0.50211   -1.000
 3604.00    0.54965   0.49519   -1.000
 3605.00    0.51619   0.49196   -1.000
 3606.00    0.54221   0.49009   -1.000
 3607.00    0.53527   0.48759   -1.000
 3608.00    0.50675   0.48508   -1.000
 3609.00    0.48188   0.48444  236.845
 3610.00    0.51165   0.48717   -1.000
 3611.00    0.52229   0.49254   -1.000
 3612.00    0.55137   0.49878   -1.000
 3613.00    0.51927   0.50490   -1.000
 3614.00    0.48671   0.50966   -1.000
 3615.00    0.52818   0.51041   -1.000
 3616.00    0.53828   0.50538   -1.000
 3617.00    0.53707   0.49575   -1.000
 3618.00    0.51917   0.48737   29.314
 3619.00    0.53244   0.48622   -1.000
 3620.00    0.49364   0.49374  230.582
 3621.00    0.52690   0.50655   -1.000
 3622.00    0.55189   0.52022   -1.000
 3623.00    0.57473   0.53283   -1.000
 3624.00    0.60503   0.54486   -1.000
 3625.00    0.58323   0.55712   -1.000
 3626.00    0.57457   0.56737  191.987
 3627.00    0.56696   0.57075  196.333
 3628.00    0.52796   0.56359   -1.000
 3629.00    0.52890   0.54644   -1.000
 3630.00    0.52825   0.52584  236.845
 3631.00    0.48360   0.50992   -1.000
 3632.00    0.44232   0.50363   -1.000
 3633.00    0.48870   0.50595   -1.000
 3634.00    0.47364   0.51236   -1.000
 3635.00    0.51424   0.51955  222.636
 3636.00    0.47016   0.52681   -1.000
 3637.00    0.51783   0.53558   -1.000
 3638.00    0.58965   0.54507   -1.000
 3639.00    0.56922   0.55240   -1.000
 3640.00    0.53941   0.55418   -1.000
 3641.00    0.54875   0.54917  209.463
 3642.00    0.52200   0.53948   -1.000
 3643.00    0.50979   0.52865   -1.000
 3644.00    0.50742   0.51943  230.395
 3645.00    0.51831   0.51285  233.977
 3646.00    0.55620   0.50857   -1.000
 3647.00    0.52584   0.50668   -1.000
 3648.00    0.55783   0.50807   -1.000
 3649.00    0.57808   0.51371   -1.000
 3650.00    0.55377   0.52320   -1.000
 3651.00    0.53023   0.53509  201.853
 3652.00    0.60270   0.54696   -1.000
 3653.00    0.57531   0.55700   -1.000
 3654.00    0.53192   0.56503   -1.000
 3655.00    0.55613   0.57164   -1.000
 3656.00    0.58436   0.57766  189.509
 3657.00    0.60717   0.58281   -1.000
 3658.00    0.65060   0.58595   -1.000
 3659.00    0.58352   0.58612  187.007
 3660.00    0.56068   0.58316   -1.000
 3661.00    0.62703   0.57780   -1.000
 3662.00    0.67360   0.57169   -1.000
 3663.00    0.62273   0.56653   -1.000
 3664.00    0.62201   0.56335   -1.000
 3665.00    0.61165   0.56179   -1.000
 3666.00    0.60629   0.56016   -1.000
 3667.00    0.58563   0.55778   -1.000
 3668.00    0.62857   0.55549   -1.000
 3669.00    0.60384   0.55555   -1.000
 3670.00    0.52228   0.55918   -1.000
 3671.00    0.58358   0.56489   -1.000
 3672.00    0.60198   0.56988   -1.000
 3673.00    0.55278   0.57139   -1.000
 3674.00    0.54037   0.56843   -1.000
 3675.00    0.58049   0.56165   -1.000
 3676.00    0.62918   0.55246   -1.000
 3677.00    0.59914   0.54324   -1.000
 3678.00    0.55221   0.53602   -1.000
 3679.00    0.58524   0.53226   -1.000
 3680.00    0.59569   0.53218   -1.000
 3681.00    0.60558   0.53454   -1.000
 3682.00    0.60731   0.53711   -1.000
 3683.00    0.59098   0.53699   -1.000
 3684.00    0.56722   0.53278   -1.000
 3685.00    0.58991   0.52569   -1.000
 3686.00    0.56297   0.52017   -1.000
 3687.00    0.55456   0.52064   -1.000
 3688.00    0.54296   0.52874  204.314
 3689.00    0.59018   0.54163   -1.000
 3690.00    0.61041   0.55457   -1.000
 3691.00    0.59867   0.56391   -1.000
 3692.00    0.63229   0.56863   -1.000
 3693.00    0.62269   0.56983   -1.000
 3694.00    0.59960   0.56885   -1.000
 3695.00    0.59947   0.56756   -1.000
 3696.00    0.60763   0.56879   -1.000
 3697.00    0.61666   0.57508   -1.000
 3698.00    0.61027   0.58586   -1.000
 3699.00    0.59618   0.59602  177.938
 3700.00    0.58817   0.59784  181.995
 3701.00    0.59745   0.58643  191.431
 3702.00    0.59985   0.56279   -1.000
 3703.00    0.58464   0.53480   -1.000
 3704.00    0.56654   0.51202   -1.000
 3705.00    0.54610   0.50074   -1.000
 3706.00    0.52951   0.50112   -1.000
 3707.00    0.52739   0.50820   -1.000
 3708.00    0.56042   0.51650   -1.000
 3709.00    0.57855   0.52315   -1.000
 3710.00    0.59002   0.52943   -1.000
 3711.00    0.59649   0.53916   -1.000
 3712.00    0.54793   0.55523  180.371
 3713.00    0.61030   0.57614   -1.000
 3714.00    0.64905   0.59664   -1.000
 3715.00    0.64541   0.60994   -1.000
 3716.00    0.64765   0.61075   -1.000
 3717.00    0.64964   0.59597   -1.000
 3718.00    0.62384   0.56705   -1.000
 3719.00    0.56594   0.53037   -1.000
 3720.00    0.49717   0.49764   30.823
 3721.00    0.48607   0.48066  236.845
 3722.00    0.50956   0.48560   -1.000
 3723.00    0.54185   0.50917   -1.000
 3724.00    0.57087   0.54114   -1.000
 3725.00    0.62595   0.57047   -1.000
 3726.00    0.62496   0.59104   -1.000
 3727.00    0.61534   0.60269  205.832
 3728.00    0.60874   0.60659  202.979
 3729.00    0.61748   0.60107   -1.000
 3730.00    0.55877   0.58280   -1.000
 3731.00    0.52611   0.55072  123.357
 3732.00    0.55570   0.50990   27.476
 3733.00    0.53631   0.47074   30.550
 3734.00    0.44402   0.44510   31.335
 3735.00    0.40042   0.44106   29.559
 3736.00    0.39918   0.46023   30.356
 3737.00    0.48925   0.49710  236.182
 3738.00    0.52403   0.54177   -1.000
 3739.00    0.59865   0.58300   -1.000
 3740.00    0.65513   0.61196   -1.000
 3741.00    0.65740   0.62432   -1.000
 3742.00    0.66180   0.62077   -1.000
 3743.00    0.61962   0.60500   -1.000
 3744.00    0.59624   0.58147   -1.000
 3745.00    0.57399   0.55314   -1.000
 3746.00    0.53903   0.52144   27.715
 3747.00    0.50761   0.48912   29.338
 3748.00    0.47187   0.46230   33.287
 3749.00    0.43281   0.45016   -1.000
 3750.00    0.46346   0.45942  230.334
 3751.00    0.48074   0.49001  207.749
 3752.00    0.51884   0.53398   -1.000
 3753.00    0.61484   0.57978   -1.000
 3754.00    0.65278   0.61593   -1.000
 3755.00    0.67417   0.63549   -1.000
 3756.00    0.67584   0.63763   -1.000
 3757.00    0.64205   0.62824   -1.000
 3758.00    0.59676   0.61666   -1.000
 3759.00    0.62315   0.61038   -1.000
 3760.00    0.62065   0.61164  213.506
 3761.00    0.63661   0.61747   -1.000
 3762.00    0.66404   0.62306   -1.000
 3763.00    0.64348   0.62422   -1.000
 3764.00    0.64205   0.61854   -1.000
 3765.00    0.66487   0.60528   -1.000
 3766.00    0.67304   0.58526   -1.000
 3767.00    0.61127   0.56072   -1.000
 3768.00    0.58928   0.53564   -1.000
 3769.00    0.58855   0.51609   -1.000
 3770.00    0.58052   0.50882   -1.000
 3771.00    0.56706   0.51767   -1.000
 3772.00    0.57924   0.54081   -1.000
 3773.00    0.59022   0.57141   -1.000
 3774.00    0.65777   0.60262   -1.000
 3775.00    0.70272   0.63109   -1.000
 3776.00    0.68002   0.65685   -1.000
 3777.00    0.72725   0.68101   -1.000
 3778.00    0.73216   0.70364   -1.000
 3779.00    0.72392   0.72380  173.627
 3780.00    0.73930   0.74012  172.528
 3781.00    0.75663   0.75142  171.637
 3782.00    0.75079   0.75676  172.285
 3783.00    0.75747   0.75494  177.057
 3784.00    0.79407   0.74545   -1.000
 3785.00    0.77024   0.72938   -1.000
 3786.00    0.74299   0.71026   -1.000
 3787.00    0.72535   0.69224   -1.000
 3788.00    0.68188   0.67809  212.307
 3789.00    0.68978   0.66758   -1.000
 3790.00    0.69563   0.65791   -1.000
 3791.00    0.70133   0.64506   -1.000
 3792.00    0.70870   0.62568   -1.000
 3793.00    0.68854   0.59863   -1.000
 3794.00    0.67372   0.56518   -1.000
 3795.00    0.63731   0.52901   -1.000
 3796.00    0.59612   0.49625   -1.000
 3797.00    0.56427   0.47534   -1.000
 3798.00    0.52218   0.47412   -1.000
 3799.00    0.51318   0.49579   -1.000
 3800.00    0.57161   0.53540   -1.000
 3801.00    0.61620   0.58283   -1.000
 3802.00    0.65482   0.62717   -1.000
 3803.00    0.70309   0.66145   -1.000
 3804.00    0.71221   0.68367   -1.000
 3805.00    0.73274   0.69666   -1.000
 3806.00    0.72449   0.70594   -1.000
 3807.00    0.69244   0.71696   -1.000
 3808.00    0.71144   0.73170   -1.000
 3809.00    0.72707   0.74712   -1.000
 3810.00    0.73106   0.75713   -1.000
 3811.00    0.76302   0.75628  206.279
 3812.00    0.76206   0.74366   -1.000
 3813.00    0.72813   0.72438  231.808
 3814.00    0.68044   0.70657   -1.000
 3815.00    0.65244   0.69624   -1.000
 3816.00    0.65905   0.69335   -1.000
 3817.00    0.69634   0.69246  233.550
 3818.00    0.73812   0.68822   -1.000
 3819.00    0.74773   0.67989   -1.000
 3820.00    0.68521   0.67085   -1.000
 3821.00    0.63233   0.66395   -1.000
 3822.00    0.65224   0.65754  236.845
 3823.00    0.68496   0.64769   -1.000
 3824.00    0.67607   0.63279   28.524
 3825.00    0.66206   0.61528   29.000
 3826.00    0.63344   0.59901   28.699
 3827.00    0.58854   0.58545   28.229
 3828.00    0.57107   0.57277   27.887
 3829.00    0.57435   0.55727   28.390
 3830.00    0.64344   0.53588   -1.000
 3831.00    0.60021   0.50781   -1.000
 3832.00    0.52594   0.47563   32.760
 3833.00    0.48769   0.44492   31.972
 3834.00    0.45653   0.42252   30.752
 3835.00    0.44918   0.41350   30.294
 3836.00    0.46613   0.41910   30.984
 3837.00    0.51769   0.43727   31.534
 3838.00    0.50313   0.46499   30.740
 3839.00    0.50049   0.49985   33.785
 3840.00    0.54754   0.53983  236.845
 3841.00    0.64112   0.58196   -1.000
 3842.00    0.66975   0.62239   -1.000
 3843.00    0.64581   0.65751  220.415
 3844.00    0.70618   0.68564   -1.000
 3845.00    0.72620   0.70727   -1.000
 3846.00    0.74346   0.72336   -1.000
 3847.00    0.73139   0.73456  227.674
 3848.00    0.73396   0.74133  235.911
 3849.00    0.71529   0.74575   -1.000
 3850.00    0.70328   0.75024   -1.000
 3851.00    0.73264   0.75576   -1.000
 3852.00    0.71789   0.76054   -1.000
 3853.00    0.75613   0.76163  235.695
 3854.00    0.77329   0.75764   -1.000
 3855.00    0.73403   0.74948   -1.000
 3856.00    0.71707   0.73935  109.165
 3857.00    0.77835   0.72965   27.184
 3858.00    0.75452   0.72319   28.539
 3859.00    0.69200   0.72264   32.513
 3860.00    0.70715   0.72943   -1.000
 3861.00    0.73514   0.74144  223.146
 3862.00    0.74621   0.75440  215.167
 3863.00    0.76226   0.76387  217.317
 3864.00    0.78466   0.76859   -1.000
 3865.00    0.78123   0.76981  225.038
 3866.00    0.79746   0.76928   -1.000
 3867.00    0.79184   0.76718   -1.000
 3868.00    0.75279   0.76196  236.845
 3869.00    0.73742   0.75204  110.643
 3870.00    0.75069   0.73838   31.882
 3871.00    0.72168   0.72491  236.845
 3872.00    0.67913   0.71703   -1.000
 3873.00    0.70457   0.71685  216.261
 3874.00    0.74491   0.72138   -1.000
 3875.00    0.76569   0.72371   -1.000
 3876.00    0.76737   0.71903   -1.000
 3877.00    0.72895   0.70796   -1.000
 3878.00    0.68777   0.69513  236.845
 3879.00    0.67965   0.68426  236.845
 3880.00    0.68514   0.67523  236.845
 3881.00    0.67403   0.66519  236.845
 3882.00    0.68742   0.65104   -1.000
 3883.00    0.68207   0.63054   -1.000
 3884.00    0.64162   0.60245   -1.000
 3885.00    0.64253   0.56759   -1.000
 3886.00    0.63589   0.53043   -1.000
 3887.00    0.59149   0.49958   -1.000
 3888.00    0.54997   0.48395   -1.000
 3889.00    0.53728   0.48919   -1.000
 3890.00    0.57117   0.51353   -1.000
 3891.00    0.62862   0.54929   -1.000
 3892.00    0.64677   0.58646   -1.000
 3893.00    0.67579   0.61884   -1.000
 3894.00    0.68517   0.64522   -1.000
 3895.00    0.69801   0.66754   -1.000
 3896.00    0.73123   0.68706   -1.000
 3897.00    0.75354   0.70359   -1.000
 3898.00    0.78623   0.71705   -1.000
 3899.00    0.74870   0.72826   -1.000
 3900.00    0.70967   0.73825   -1.000
 3901.00    0.73814   0.74638  181.265
 3902.00    0.77834   0.75131   -1.000
 3903.00    0.78976   0.75269   -1.000
 3904.00    0.78342   0.75305   -1.000
 3905.00    0.78332   0.75676   -1.000
 3906.00    0.75129   0.76710  182.325
 3907.00    0.77873   0.78401  171.398
 3908.00    0.80789   0.80382  167.933
 3909.00    0.79449   0.82148   -1.000
 3910.00    0.83995   0.83381  164.969
 3911.00    0.85140   0.83993  164.525
 3912.00    0.84909   0.84096  166.807
 3913.00    0.83964   0.83857  170.403
 3914.00    0.79019   0.83443   -1.000
 3915.00    0.78618   0.82948   -1.000
 3916.00    0.79964   0.82383   -1.000
 3917.00    0.83178   0.81694   -1.000
 3918.00    0.81409   0.80872  193.366
 3919.00    0.80430   0.80032  201.726
 3920.00    0.79472   0.79366  204.656
 3921.00    0.79278   0.79027  202.312
 3922.00    0.77026   0.78925   -1.000
 3923.00    0.80538   0.78740   -1.000
 3924.00    0.80811   0.78034   -1.000
 3925.00    0.77445   0.76474   -1.000
 3926.00    0.73266   0.73955  110.285
 3927.00    0.74569   0.70552   30.917
 3928.00    0.67350   0.66432   36.246
 3929.00    0.62274   0.61732   42.480
 3930.00    0.56642   0.56647   50.200
 3931.00    0.46863   0.51663   58.056
 3932.00    0.40163   0.47624   -1.000
 3933.00    0.37003   0.45578   -1.000
 3934.00    0.34654   0.46180   -1.000
 3935.00    0.40786   0.49346   41.099
 3936.00    0.46922   0.54229   33.908
 3937.00    0.52831   0.59745   35.133
 3938.00    0.60419   0.64909   -1.000
 3939.00    0.65684   0.69174   -1.000
 3940.00    0.70830   0.72271  232.523
 3941.00    0.71991   0.74238   -1.000
 3942.00    0.76337   0.75348   -1.000
 3943.00    0.77909   0.76020   -1.000
 3944.00    0.76711   0.76670  196.445
 3945.00    0.79423   0.77477   -1.000
 3946.00    0.82334   0.78362   -1.000
 3947.00    0.84111   0.79160   -1.000
 3948.00    0.85450   0.79766   -1.000
 3949.00    0.81679   0.80172   -1.000
 3950.00    0.83216   0.80389   -1.000
 3951.00    0.86131   0.80472   -1.000
 3952.00    0.82499   0.80472   -1.000
 3953.00    0.81758   0.80368  167.714
 3954.00    0.83952   0.80054   -1.000
 3955.00    0.85712   0.79448   -1.000
 3956.00    0.85819   0.78606   -1.000
 3957.00    0.80845   0.77577   -1.000
 3958.00    0.80924   0.76205   -1.000
 3959.00    0.80999   0.74199   -1.000
 3960.00    0.81040   0.71390   -1.000
 3961.00    0.76441   0.67914   -1.000
 3962.00    0.70080   0.64054   -1.000
 3963.00    0.66396   0.59841   29.141
 3964.00    0.58520   0.55097   34.516
 3965.00    0.53599   0.49671   42.573
 3966.00    0.45258   0.43883   51.181
 3967.00    0.37743   0.38689   54.615
 3968.00    0.32992   0.35220   49.326
 3969.00    0.30292   0.34383   40.569
 3970.00    0.31620   0.36346   33.461
 3971.00    0.37267   0.40622   34.958
 3972.00    0.45751   0.46273  236.845
 3973.00    0.52608   0.52405  216.823
 3974.00    0.60799   0.58314   -1.000
 3975.00    0.68483   0.63674   -1.000
 3976.00    0.74249   0.68381   -1.000
 3977.00    0.78141   0.72440   -1.000
 3978.00    0.78586   0.75844   -1.000
 3979.00    0.80085   0.78471  153.784
 3980.00    0.82847   0.80308   -1.000
 3981.00    0.84872   0.81482   -1.000
 3982.00    0.88793   0.82337   -1.000
 3983.00    0.87841   0.83184   -1.000
 3984.00    0.88302   0.84175   -1.000
 3985.00    0.89979   0.85295   -1.000
 3986.00    0.90694   0.86471   -1.000
 3987.00    0.90666   0.87641   -1.000
 3988.00    0.93373   0.88763   -1.000
 3989.00    0.93314   0.89808   -1.000
 3990.00    0.92293   0.90759  139.098
 3991.00    0.94907   0.91565   -1.000
 3992.00    0.95511   0.92104   -1.000
 3993.00    0.96415   0.92226   -1.000
 3994.00    0.96730   0.91908   -1.000
 3995.00    0.93962   0.91338   -1.000
 3996.00    0.93218   0.90862   -1.000
 3997.00    0.91928   0.90823  143.891
 3998.00    0.94619   0.91341   -1.000
 3999.00    0.96943   0.92247   -1.000
 4000.00    0.98423   0.93183   -1.000
 4001.00    0.97500   0.93712   -1.000
 4002.00    0.96608   0.93558   -1.000
 4003.00    0.97814   0.92753   -1.000
 4004.00    0.95941   0.91705   -1.000
 4005.00    0.93739   0.91025   -1.000
 4006.00    0.93149   0.91218  137.839
 4007.00    0.94852   0.92248   -1.000
 4008.00    0.96471   0.93710   -1.000
 4009.00    0.97751   0.95063   -1.000
 4010.00    0.93945   0.96006  130.271
 4011.00    1.01263   0.96546   -1.000
 4012.00    1.00000   0.96836   -1.000
 4013.00    0.97762   0.97046  130.330
 4014.00    0.98137   0.97244  129.070
 4015.00    0.98892   0.97456  130.370
 4016.00    1.00532   0.97705   -1.000
 4017.00    1.02489   0.98016   -1.000
 4018.00    1.03842   0.98382   -1.000
 4019.00    1.00756   0.98704  129.664
 4020.00    1.01318   0.98861  131.378
 4021.00    1.01860   0.98760   -1.000
 4022.00    1.00810   0.98453  133.044
 4023.00    0.98586   0.98103  133.145
 4024.00    0.99871   0.97964  129.403
 4025.00    0.99571   0.98161  125.169
 4026.00    0.99275   0.98540  123.463
 4027.00    1.01485   0.98704   -1.000
 4028.00    0.98280   0.98237  131.537
 4029.00    0.98402   0.97116  139.984
 4030.00    0.97552   0.95690  144.892
 4031.00    0.97365   0.94530   -1.000
 4032.00    0.97710   0.94097   -1.000
 4033.00    0.99692   0.94546   -1.000
 4034.00    0.98664   0.95802   -1.000
 4035.00    1.00605   0.97559   -1.000
 4036.00    1.01084   0.99428  121.397
 4037.00    1.00060   1.00933  121.688
 4038.00    1.03140   1.01744  124.439
 4039.00    1.02929   1.01785  127.081
 4040.00    1.03338   1.01211  128.255
 4041.00    1.01349   1.00097  130.038
 4042.00    1.00296   0.98482  137.837
 4043.00    0.96870   0.96459  151.018
 4044.00    0.96333   0.94528  158.597
 4045.00    0.92834   0.93516  149.520
 4046.00    0.92798   0.93883  136.003
 4047.00    0.97139   0.95527  128.840
 4048.00    1.02843   0.97682   -1.000
 4049.00    1.04796   0.99501   -1.000
 4050.00    1.03900   1.00469   -1.000
 4051.00    1.04270   1.00531   -1.000
 4052.00    1.02782   0.99961   -1.000
 4053.00    1.01242   0.99134  134.734
 4054.00    0.99094   0.98381  135.746
 4055.00    0.99159   0.97831  136.774
 4056.00    1.00876   0.97575   -1.000
 4057.00    0.98948   0.97637  135.050
 4058.00    0.96543   0.97908  130.550
 4059.00    0.96652   0.98124  129.088
 4060.00    1.00231   0.97827  133.002
 4061.00    1.00305   0.96801   -1.000
 4062.00    1.01084   0.95261   -1.000
 4063.00    0.98591   0.93760   -1.000
 4064.00    0.97322   0.92891   -1.000
 4065.00    0.94758   0.92848  136.302
 4066.00    0.98031   0.93465   -1.000
 4067.00    1.00995   0.94286   -1.000
 4068.00    0.98511   0.94863   -1.000
 4069.00    0.98394   0.94873   -1.000
 4070.00    1.00159   0.94384   -1.000
 4071.00    0.99243   0.93728   -1.000
 4072.00    0.97857   0.93221   -1.000
 4073.00    0.95158   0.92854  133.334
 4074.00    0.94548   0.92295  141.110
 4075.00    0.95155   0.91393   -1.000
 4076.00    0.95902   0.90387   -1.000
 4077.00    0.95212   0.89865   -1.000
 4078.00    0.92233   0.90269  136.813
 4079.00    0.96420   0.91500   -1.000
 4080.00    1.00548   0.92987   -1.000
 4081.00    0.98289   0.93998   -1.000
 4082.00    0.97342   0.94257   -1.000
 4083.00    1.00116   0.93956   -1.000
 4084.00    0.98899   0.93669   -1.000
 4085.00    1.00529   0.93812   -1.000
 4086.00    1.00266   0.94421   -1.000
 4087.00    1.00332   0.95138   -1.000
 4088.00    1.02275   0.95496   -1.000
 4089.00    1.00740   0.95251   -1.000
 4090.00    1.01317   0.94412   -1.000
 4091.00    0.98519   0.93184   -1.000
 4092.00    0.95670   0.91653   -1.000
 4093.00    0.96259   0.89799   -1.000
 4094.00    0.94368   0.87523   -1.000
 4095.00    0.90874   0.84765   -1.000
 4096.00    0.91328   0.81532   -1.000
 4097.00    0.89175   0.77767   -1.000
 4098.00    0.85641   0.73504   -1.000
 4099.00    0.81103   0.69042   -1.000
 4100.00    0.75751   0.65176   -1.000
 4101.00    0.70981   0.63020   -1.000
 4102.00    0.70439   0.63346   -1.000
 4103.00    0.71930   0.66151   -1.000
 4104.00    0.76583   0.70541   -1.000
 4105.00    0.80617   0.75253   -1.000
 4106.00    0.85279   0.79362   -1.000
 4107.00    0.90867   0.82474   -1.000
 4108.00    0.92234   0.84716   -1.000
 4109.00    0.91222   0.86446   -1.000
 4110.00    0.92261   0.87997   -1.000
 4111.00    0.91866   0.89580  132.658
 4112.00    0.94386   0.91239   -1.000
 4113.00    0.96984   0.92895   -1.000
 4114.00    0.98640   0.94357   -1.000
 4115.00    1.01500   0.95401   -1.000
 4116.00    1.01322   0.95906   -1.000
 4117.00    1.02954   0.95926   -1.000
 4118.00    0.99446   0.95722   -1.000
 4119.00    0.93977   0.95569  135.061
 4120.00    0.93849   0.95683   -1.000
 4121.00    0.97926   0.96066  133.837
 4122.00    0.98980   0.96645  132.116
 4123.00    0.98694   0.97268  130.202
 4124.00    0.96828   0.97762  130.352
 4125.00    1.00078   0.97976  132.438
 4126.00    0.99823   0.97859  134.913
 4127.00    0.96825   0.97505  135.872
 4128.00    0.96849   0.97031  136.797
 4129.00    1.00786   0.96507   -1.000
 4130.00    0.99653   0.95917   -1.000
 4131.00    0.94054   0.95391  147.207
 4132.00    0.93832   0.95195  146.146
 4133.00    0.94987   0.95654  140.511
 4134.00    0.95595   0.96871  133.964
 4135.00    1.00766   0.98643  130.218
 4136.00    1.02831   1.00564  128.189
 4137.00    1.03406   1.02164  126.560
 4138.00    1.07284   1.03099   -1.000
 4139.00    1.09959   1.03121   -1.000
 4140.00    1.05398   1.02186   -1.000
 4141.00    1.00683   1.00577  149.459
 4142.00    0.99105   0.98899  153.781
 4143.00    0.93666   0.97795   -1.000
 4144.00    0.95636   0.97719   -1.000
 4145.00    1.00125   0.98482  134.594
 4146.00    1.02634   0.99583   -1.000
 4147.00    1.00738   1.00500  137.269
 4148.00    1.01054   1.01003  140.633
 4149.00    1.02513   1.01185  141.613
 4150.00    1.00341   1.01158  140.557
 4151.00    0.98696   1.00963   -1.000
 4152.00    0.98838   1.00593   -1.000
 4153.00    0.97321   1.00141   -1.000
 4154.00    1.04111   0.99838   -1.000
 4155.00    1.26115   0.99913   -1.000
 4156.00    1.22393   1.00448   -1.000
 4157.00    0.68383   1.01332   -1.000
 4158.00    0.82371   1.02356   -1.000
 4159.00    1.09323   1.03306   -1.000
 4160.00    1.03635   1.04093  130.321
 4161.00    1.02020   1.04716   -1.000
 4162.00    0.99853   1.05178   -1.000
 4163.00    0.96787   1.05431   -1.000
 4164.00    0.99924   1.05391   -1.000
 4165.00    1.01768   1.05024   -1.000
 4166.00    1.00074   1.04413   -1.000
 4167.00    0.99338   1.03657   -1.000
 4168.00    0.98194   1.02779   -1.000
 4169.00    0.99581   1.01614   -1.000
 4170.00    0.99933   1.00129  148.112
 4171.00    0.97116   0.98529  154.938
 4172.00    0.92175   0.97283   -1.000
 4173.00    0.90801   0.96836   -1.000
 4174.00    0.93762   0.97193   -1.000
 4175.00    0.99047   0.98051  144.094
 4176.00    0.97355   0.98987  144.591
 4177.00    0.96856   0.99813   -1.000
 4178.00    0.97989   1.00509   -1.000
 4179.00    1.00436   1.01082  140.453
 4180.00    1.02576   1.01498  140.178
 4181.00    1.03959   1.01759  138.264
 4182.00    1.00387   1.01919  135.524
 4183.00    0.97846   1.02058   -1.000
 4184.00    1.02060   1.02093  135.230
 4185.00    1.01372   1.01936  139.793
 4186.00    0.98523   1.01621   -1.000
 4187.00    0.97934   1.01322   -1.000
 4188.00    0.97730   1.01299   -1.000
 4189.00    0.98828   1.01641   -1.000
 4190.00    0.99286   1.02257   -1.000
 4191.00    1.00227   1.02943   -1.000
 4192.00    1.00584   1.03410   -1.000
 4193.00    1.00605   1.03371   -1.000
 4194.00    1.01493   1.02695  143.178
 4195.00    1.01625   1.01432  147.236
 4196.00    0.99152   0.99869  149.147
 4197.00    0.99109   0.98396  148.863
 4198.00    0.96573   0.97311  146.955
 4199.00    0.94569   0.96776   -1.000
 4200.00    0.94433   0.96789   -1.000
 4201.00    0.96854   0.97264  143.293
 4202.00    0.98488   0.98107  141.321
 4203.00    0.96735   0.99266   -1.000
 4204.00    0.97343   1.00623   -1.000
 4205.00    0.97177   1.02033   -1.000
 4206.00    0.98576   1.03312   -1.000
 4207.00    1.02257   1.04276   -1.000
 4208.00    1.01064   1.04888   -1.000
 4209.00    0.99832   1.05223   -1.000
 4210.00    1.00349   1.05393   -1.000
 4211.00    0.99765   1.05394   -1.000
 4212.00    1.00100   1.05096   -1.000
 4213.00    0.99977   1.04394   -1.000
 4214.00    1.00905   1.03466   -1.000
 4215.00    1.02864   1.02731  138.082
 4216.00    1.01511   1.02583  129.893
 4217.00    1.02891   1.03171  124.819
 4218.00    1.04192   1.04165  122.004
 4219.00    1.03646   1.05010  121.424
 4220.00    1.04845   1.05172  123.670
 4221.00    1.07094   1.04269   -1.000
 4222.00    1.04014   1.02195  140.174
 4223.00    1.01625   0.99213   -1.000
 4224.00    0.98631   0.95966   -1.000
 4225.00    0.92346   0.93400  181.149
 4226.00    0.89436   0.92398   -1.000
 4227.00    0.89661   0.93353   -1.000
 4228.00    0.93223   0.95811   -1.000
 4229.00    0.98323   0.98678  126.470
 4230.00    1.02701   1.00946  126.734
 4231.00    1.02380   1.02016  129.870
 4232.00    1.01743   1.02011  132.712
 4233.00    1.00816   1.01415  134.452
 4234.00    0.98673   1.00739   -1.000
 4235.00    0.99794   1.00310  138.962
 4236.00    1.01075   1.00271  137.157
 4237.00    1.01220   1.00653  134.222
 4238.00    1.00856   1.01381  132.167
 4239.00    1.00248   1.02306   -1.000
 4240.00    1.02850   1.03277  128.425
 4241.00    1.06197   1.04138  127.428
 4242.00    1.05447   1.04808  125.022
 4243.00    1.05092   1.05156  123.483
 4244.00    1.07307   1.05045  126.166
 4245.00    1.05217   1.04401  131.915
 4246.00    1.00672   1.03329   -1.000
 4247.00    0.98682   1.02194   -1.000
 4248.00    1.00067   1.01367  139.990
 4249.00    0.98399   1.01088   -1.000
 4250.00    0.96438   1.01301   -1.000
 4251.00    0.97023   1.01727   -1.000
 4252.00    0.99342   1.02093   -1.000
 4253.00    1.00088   1.02231   -1.000
 4254.00    0.99810   1.02284   -1.000
 4255.00    0.99730   1.02347   -1.000
 4256.00    0.98831   1.02312   -1.000
 4257.00    1.00006   1.02005   -1.000
 4258.00    1.01910   1.01386  141.969
 4259.00    1.01658   1.00832  142.831
 4260.00    0.99291   1.00862  136.053
 4261.00    0.99293   1.01789   -1.000
 4262.00    0.99863   1.03410   -1.000
 4263.00    1.01958   1.05155   -1.000
 4264.00    1.05025   1.06462  121.396
 4265.00    1.05641   1.06941  124.070
 4266.00    1.06397   1.06524  128.193
 4267.00    1.05214   1.05284  132.375
 4268.00    1.04796   1.03375  138.567
 4269.00    1.02940   1.01088  147.754
 4270.00    0.97372   0.98837  154.644
 4271.00    0.93449   0.97086   -1.000
 4272.00    0.92062   0.96269   -1.000
 4273.00    0.94234   0.96537   -1.000
 4274.00    0.97115   0.97772  138.377
 4275.00    0.99602   0.99666  130.045
 4276.00    1.01284   1.01697  125.856
 4277.00    1.02771   1.03305  127.654
 4278.00    1.04369   1.04138  133.254
 4279.00    1.04052   1.04217  136.566
 4280.00    1.00999   1.03851   -1.000
 4281.00    0.99611   1.03378   -1.000
 4282.00    1.01356   1.02965  133.948
 4283.00    1.01099   1.02480  136.460
 4284.00    0.98703   1.01807   -1.000
 4285.00    0.97648   1.00810   -1.000
 4286.00    0.97877   0.99468  146.486
 4287.00    0.97532   0.97933  152.795
 4288.00    0.94496   0.96444   -1.000
 4289.00    0.92046   0.95427   -1.000
 4290.00    0.91295   0.95220   -1.000
 4291.00    0.91248   0.95747   -1.000
 4292.00    0.96595   0.96597  138.293
 4293.00    0.99797   0.97191   -1.000
 4294.00    0.98618   0.97098  142.649
 4295.00    0.97796   0.96172  147.127
 4296.00    0.95847   0.94478  156.325
 4297.00    0.93892   0.92235  169.644
 4298.00    0.91139   0.89821  179.045
 4299.00    0.88819   0.87738  178.520
 4300.00    0.84670   0.86376  173.731
 4301.00    0.82511   0.85917   -1.000
 4302.00    0.85053   0.86194  168.750
 4303.00    0.85761   0.86825  167.575
 4304.00    0.85493   0.87335  169.940
 4305.00    0.84942   0.87367   -1.000
 4306.00    0.84981   0.86926   -1.000
 4307.00    0.83217   0.86363   -1.000
 4308.00    0.82464   0.86186   -1.000
 4309.00    0.83629   0.86774   -1.000
 4310.00    0.83693   0.88143   -1.000
 4311.00    0.86009   0.90108   -1.000
 4312.00    0.90121   0.92581   -1.000
 4313.00    0.93779   0.95514  135.525
 4314.00    0.98598   0.98875  124.049
 4315.00    1.03126   1.02392  116.339
 4316.00    1.06973   1.05496  113.687
 4317.00    1.12059   1.07655   -1.000
 4318.00    1.14356   1.08497   -1.000
 4319.00    1.12144   1.08010   -1.000
 4320.00    1.09318   1.06353   -1.000
 4321.00    1.04895   1.03786  131.432
 4322.00    1.01257   1.00713  141.969
 4323.00    0.98362   0.97715  152.740
 4324.00    0.94395   0.95547  153.339
 4325.00    0.94103   0.94795  140.704
 4326.00    0.96070   0.95609  127.131
 4327.00    0.99903   0.97461  120.304
 4328.00    1.02642   0.99467   -1.000
 4329.00    1.03028   1.00974  119.386
 4330.00    1.02849   1.01667  118.205
 4331.00    1.03327   1.01632  116.342
 4332.00    1.04436   1.00933   -1.000
 4333.00    1.04552   0.99430   -1.000
 4334.00    1.03575   0.96831   -1.000
 4335.00    1.01753   0.92889   -1.000
 4336.00    0.97605   0.87673   -1.000
 4337.00    0.92064   0.81846   -1.000
 4338.00    0.86166   0.76532   -1.000
 4339.00    0.81233   0.72960   -1.000
 4340.00    0.77057   0.72049   -1.000
 4341.00    0.75361   0.73946  135.397
 4342.00    0.79783   0.77945  128.604
 4343.00    0.86773   0.82933   -1.000
 4344.00    0.94147   0.87949   -1.000
 4345.00    0.99943   0.92365   -1.000
 4346.00    1.00722   0.95901   -1.000
 4347.00    1.02750   0.98415   -1.000
 4348.00    1.02291   0.99800  119.814
 4349.00    0.99482   1.00080  127.530
 4350.00    0.99577   0.99627  134.753
 4351.00    0.98844   0.99165  133.802
 4352.00    0.98654   0.99355  127.823
 4353.00    1.01630   1.00462  122.618
 4354.00    1.04682   1.02224  119.323
 4355.00    1.05997   1.04114  117.716
 4356.00    1.07134   1.05720  118.697
 4357.00    1.08878   1.06888  121.049
 4358.00    1.09773   1.07755  121.209
 4359.00    1.09240   1.08579  118.242
 4360.00    1.08460   1.09551  115.326
 4361.00    1.08944   1.10631  114.422
 4362.00    1.12603   1.11655  113.713
 4363.00    1.11422   1.12431  112.778
 4364.00    1.11125   1.12739  113.905
 4365.00    1.10613   1.12435  117.831
 4366.00    1.09181   1.11598   -1.000
 4367.00    1.08810   1.10477  121.550
 4368.00    1.06263   1.09330   -1.000
 4369.00    1.06961   1.08314  119.883
 4370.00    1.07197   1.07401  120.237
 4371.00    1.06924   1.06450  122.715
 4372.00    1.04740   1.05410  127.896
 4373.00    1.03807   1.04462  131.313
 4374.00    1.02259   1.03962  129.272
 4375.00    1.00949   1.04239   -1.000
 4376.00    1.03746   1.05236  118.398
 4377.00    1.05474   1.06478  117.413
 4378.00    1.06646   1.07293  118.701
 4379.00    1.09717   1.07056  122.032
 4380.00    1.08667   1.05465   -1.000
 4381.00    1.05674   1.02779   -1.000
 4382.00    1.04446   0.99763   -1.000
 4383.00    0.99814   0.97491  152.228
 4384.00    0.97107   0.96813  137.456
 4385.00    0.99037   0.97730  127.381
 4386.00    1.02829   0.99604   -1.000
 4387.00    1.06245   1.01607   -1.000
 4388.00    1.07338   1.03200   -1.000
 4389.00    1.05818   1.04288  126.165
 4390.00    1.05764   1.05030  123.448
 4391.00    1.06636   1.05610  121.872
 4392.00    1.07089   1.06064  123.509
 4393.00    1.09493   1.06406   -1.000
 4394.00    1.09234   1.06778  122.778
 4395.00    1.07909   1.07310  117.626
 4396.00    1.08666   1.07911  116.021
 4397.00    1.09275   1.08297  118.789
 4398.00    1.09247   1.08276  123.041
 4399.00    1.08644   1.07884  124.892
 4400.00    1.06429   1.07309  122.912
 4401.00    1.04378   1.06704   -1.000
 4402.00    1.05229   1.06045  128.489
 4403.00    1.05712   1.05333  133.971
 4404.00    1.04491   1.04764  132.772
 4405.00    1.02038   1.04596   -1.000
 4406.00    1.02538   1.05005   -1.000
 4407.00    1.06684   1.05991  125.003
 4408.00    1.07318   1.07448  119.833
 4409.00    1.06839   1.09176   -1.000
 4410.00    1.09558   1.10749  112.077
 4411.00    1.10037   1.11666  112.355
 4412.00    1.10361   1.11623  116.783
 4413.00    1.11824   1.10656  122.872
 4414.00    1.08841   1.09257  125.381
 4415.00    1.06089   1.08218   -1.000
 4416.00    1.06294   1.08163   -1.000
 4417.00    1.06842   1.09158   -1.000
 4418.00    1.07197   1.10803   -1.000
 4419.00    1.07742   1.12415   -1.000
 4420.00    1.10148   1.13413   -1.000
 4421.00    1.12117   1.13693  117.691
 4422.00    1.10235   1.13487   -1.000
 4423.00    1.08179   1.13125   -1.000
 4424.00    1.08589   1.12831   -1.000
 4425.00    1.08285   1.12672   -1.000
 4426.00    1.07412   1.12682   -1.000
 4427.00    1.07935   1.12845   -1.000
 4428.00    1.07544   1.13076   -1.000
 4429.00    1.07996   1.13273   -1.000
 4430.00    1.08867   1.13290   -1.000
 4431.00    1.08773   1.13004   -1.000
 4432.00    1.10256   1.12408   -1.000
 4433.00    1.10359   1.11673  126.083
 4434.00    1.08150   1.11204   -1.000
 4435.00    1.06772   1.11430   -1.000
 4436.00    1.07506   1.12437   -1.000
 4437.00    1.10732   1.13840   -1.000
 4438.00    1.14420   1.14986  110.209
 4439.00    1.14269   1.15329  114.532
 4440.00    1.13002   1.14733  119.916
 4441.00    1.13780   1.13629  123.296
 4442.00    1.12729   1.12743  121.651
 4443.00    1.09902   1.12652   -1.000
 4444.00    1.06976   1.13462   -1.000
 4445.00    1.09488   1.14795   -1.000
 4446.00    1.13458   1.16100   -1.000
 4447.00    1.14106   1.17004   -1.000
 4448.00    1.15138   1.17397   -1.000
 4449.00    1.16407   1.17320  113.840
 4450.00    1.13465   1.16839   -1.000
 4451.00    1.15311   1.15975  115.532
 4452.00    1.14480   1.14689  120.368
 4453.00    1.09806   1.13109   -1.000
 4454.00    1.08476   1.11592   -1.000
 4455.00    1.07815   1.10539   -1.000
 4456.00    1.09129   1.10154  121.873
 4457.00    1.10011   1.10346  122.256
 4458.00    1.07813   1.10872   -1.000
 4459.00    1.08056   1.11512   -1.000
 4460.00    1.08839   1.12156   -1.000
 4461.00    1.08239   1.12803   -1.000
 4462.00    1.10527   1.13508   -1.000
 4463.00    1.11800   1.14226   -1.000
 4464.00    1.15796   1.14784  114.814
 4465.00    1.15104   1.15022  115.346
 4466.00    1.13600   1.14916  117.057
 4467.00    1.13042   1.14624  118.804
 4468.00    1.12389   1.14469   -1.000
 4469.00    1.12777   1.14775   -1.000
 4470.00    1.14016   1.15667  112.147
 4471.00    1.15854   1.17036  108.559
 4472.00    1.17502   1.18607  106.392
 4473.00    1.19275   1.20036  105.982
 4474.00    1.20919   1.21070  105.810
 4475.00    1.22347   1.21593  104.940
 4476.00    1.20768   1.21561  104.914
 4477.00    1.19726   1.20927  107.000
 4478.00    1.20791   1.19707  111.452
 4479.00    1.19825   1.18096  115.878
 4480.00    1.18377   1.16608  117.364
 4481.00    1.18242   1.15855  114.461
 4482.00    1.16476   1.16169  109.660
 4483.00    1.15664   1.17428  106.214
 4484.00    1.16974   1.19093  104.914
 4485.00    1.19606   1.20469  105.997
 4486.00    1.20727   1.21073  109.130
 4487.00    1.18829   1.20871  112.804
 4488.00    1.17360   1.20196   -1.000
 4489.00    1.16154   1.19551   -1.000
 4490.00    1.14439   1.19282   -1.000
 4491.00    1.16178   1.19413   -1.000
 4492.00    1.17912   1.19730  111.160
 4493.00    1.17844   1.19976   -1.000
 4494.00    1.17103   1.20122   -1.000
 4495.00    1.17005   1.20292   -1.000
 4496.00    1.18790   1.20572  109.108
 4497.00    1.20709   1.20940  106.806
 4498.00    1.20128   1.21320  106.682
 4499.00    1.20161   1.21646  107.796
 4500.00    1.21492   1.22003  107.061
 4501.00    1.20531   1.22609   -1.000
 4502.00    1.21313   1.23549   -1.000
 4503.00    1.23305   1.24682  100.053
 4504.00    1.22965   1.25709   -1.000
 4505.00    1.22182   1.26367   -1.000
 4506.00    1.23416   1.26564   -1.000
 4507.00    1.25036   1.26438  103.413
 4508.00    1.25585   1.26216  102.608
 4509.00    1.25690   1.26020  102.494
 4510.00    1.25035   1.25807  103.876
 4511.00    1.24131   1.25447  105.916
 4512.00    1.23356   1.24890  107.333
 4513.00    1.20840   1.24198   -1.000
 4514.00    1.20094   1.23496   -1.000
 4515.00    1.20394   1.22934   -1.000
 4516.00    1.19404   1.22568   -1.000
 4517.00    1.20205   1.22342   -1.000
 4518.00    1.20801   1.22224  106.253
 4519.00    1.20530   1.22176  105.061
 4520.00    1.21638   1.22105  106.308
 4521.00    1.22793   1.21895  108.795
 4522.00    1.21754   1.21445  110.499
 4523.00    1.18523   1.20724   -1.000
 4524.00    1.15577   1.19748   -1.000
 4525.00    1.16744   1.18551  117.722
 4526.00    1.16612   1.17231  120.309
 4527.00    1.13614   1.15970   -1.000
 4528.00    1.11305   1.15021   -1.000
 4529.00    1.11534   1.14514   -1.000
 4530.00    1.12993   1.14393  115.595
 4531.00    1.14448   1.14424  116.536
 4532.00    1.16196   1.14424  120.246
 4533.00    1.15647   1.14458  122.175
 4534.00    1.15819   1.14840  118.201
 4535.00    1.14603   1.15887  111.162
 4536.00    1.13440   1.17605   -1.000
 4537.00    1.16213   1.19656   -1.000
 4538.00    1.23034   1.21483  106.508
 4539.00    1.22663   1.22682  108.114
 4540.00    1.19965   1.23194   -1.000
 4541.00    1.20021   1.23228   -1.000
 4542.00    1.20976   1.23019   -1.000
 4543.00    0.86596   1.22671   -1.000
 4544.00    0.20152   1.22171   -1.000
 4545.00    0.05113   1.21508   -1.000
 4546.00    0.51085   1.20683   -1.000
 4547.00    0.96839   1.19748   -1.000
 4548.00    0.59666   1.18867   -1.000
 4549.00    0.95946   1.18286   -1.000
 4550.00    1.20294   1.18153  111.508
 4551.00    1.18215   1.18353  112.615
 4552.00    1.17946   1.18625  114.144
 4553.00    1.16847   1.18857  114.077
 4554.00    1.18157   1.19144  111.273
 4555.00    1.18481   1.19714  106.943
 4556.00    1.18930   1.20738  103.574
 4557.00    1.20871   1.22131  102.780
 4558.00    1.21998   1.23613  103.194
 4559.00    1.22996   1.24863  103.143
 4560.00    1.22502   1.25616   -1.000
 4561.00    1.21996   1.25749   -1.000
 4562.00    1.21783   1.25340   -1.000
 4563.00    1.21161   1.24660   -1.000
 4564.00    1.22325   1.24093  107.715
 4565.00    1.22087   1.23928  104.872
 4566.00    1.21530   1.24226   -1.000
 4567.00    1.23348   1.24741  102.652
 4568.00    1.25410   1.25116  104.444
 4569.00    1.24554   1.25097  107.202
 4570.00    1.21278   1.24726   -1.000
 4571.00    1.19841   1.24292   -1.000
 4572.00    1.21478   1.24163   -1.000
 4573.00    1.23896   1.24470  103.221
 4574.00    1.24252   1.25018  103.501
 4575.00    1.23496   1.25500  104.042
 4576.00    1.22812   1.25640   -1.000
 4577.00    1.21241   1.25279   -1.000
 4578.00    1.21138   1.24401   -1.000
 4579.00    1.22530   1.23195  111.602
 4580.00    1.21240   1.21936  110.688
 4581.00    1.19099   1.20913  109.375
 4582.00    1.17534   1.20302   -1.000
 4583.00    1.17707   1.20167   -1.000
 4584.00    1.19402   1.20442  109.377
 4585.00    1.18763   1.21044   -1.000
 4586.00    1.20228   1.21852  104.577
 4587.00    1.22588   1.22718  103.199
 4588.00    1.23307   1.23464  103.782
 4589.00    1.21831   1.23925  105.534
 4590.00    1.21291   1.24028   -1.000
 4591.00    1.20586   1.23863   -1.000
 4592.00    1.18211   1.23641   -1.000
 4593.00    1.18358   1.23571   -1.000
 4594.00    1.20944   1.23730   -1.000
 4595.00    1.23473   1.24071  106.479
 4596.00    1.23167   1.24470  106.250
 4597.00    1.22109   1.24786   -1.000
 4598.00    1.22799   1.24899  107.475
 4599.00    1.23321   1.24803  108.174
 4600.00    1.23748   1.24568  107.863
 4601.00    1.22304   1.24334  106.637
 4602.00    1.19324   1.24235   -1.000
 4603.00    1.21301   1.24348   -1.000
 4604.00    1.22845   1.24683  105.485
 4605.00    1.24063   1.25234  103.915
 4606.00    1.26959   1.25951  101.754
 4607.00    1.26084   1.26750   99.966
 4608.00    1.25098   1.27503   99.481
 4609.00    1.23413   1.28057   -1.000
 4610.00    1.23951   1.28275   -1.000
 4611.00    1.23995   1.28201   -1.000
 4612.00    1.25514   1.27956   -1.000
 4613.00    1.28297   1.27678  102.051
 4614.00    1.27370   1.27435  101.330
 4615.00    1.25521   1.27228  101.385
 4616.00    1.25493   1.27024  102.136
 4617.00    1.25428   1.26847  102.548
 4618.00    1.26540   1.26790  102.054
 4619.00    1.25894   1.26955  100.777
 4620.00    1.24831   1.27372   -1.000
 4621.00    1.26372   1.27948   99.937
 4622.00    1.26297   1.28486  100.175
 4623.00    1.26070   1.28829   -1.000
 4624.00    1.26523   1.28938  101.345
 4625.00    1.26276   1.28828   -1.000
 4626.00    1.26364   1.28595  101.670
 4627.00    1.26113   1.28350  102.176
 4628.00    1.25819   1.28179   -1.000
 4629.00    1.23805   1.28120   -1.000
 4630.00    1.23973   1.28184   -1.000
 4631.00    1.25677   1.28287   -1.000
 4632.00    1.25912   1.28271   -1.000
 4633.00    1.25380   1.28068   -1.000
 4634.00    1.24910   1.27738   -1.000
 4635.00    1.24955   1.27389   -1.000
 4636.00    1.24294   1.27103   -1.000
 4637.00    1.25001   1.26987  106.177
 4638.00    1.26151   1.27102  105.311
 4639.00    1.25109   1.27458   -1.000
 4640.00    1.24772   1.27970   -1.000
 4641.00    1.26209   1.28485   -1.000
 4642.00    1.26329   1.28759   -1.000
 4643.00    1.24247   1.28589   -1.000
 4644.00    1.23841   1.27951   -1.000
 4645.00    1.24445   1.26997   -1.000
 4646.00    1.23168   1.26028   -1.000
 4647.00    1.22745   1.25428   -1.000
 4648.00    1.23828   1.25412  103.767
 4649.00    1.26023   1.25903  102.903
 4650.00    1.27088   1.26612  102.753
 4651.00    1.26342   1.27218  103.138
 4652.00    1.24895   1.27532   -1.000
 4653.00    1.22855   1.27524   -1.000
 4654.00    1.23349   1.27376   -1.000
 4655.00    1.24363   1.27383   -1.000
 4656.00    1.26501   1.27817  101.353
 4657.00    1.26423   1.28733   98.127
 4658.00    1.26175   1.29955   -1.000
 4659.00    1.26311   1.31064   -1.000
 4660.00    1.28171   1.31690   -1.000
 4661.00    1.27991   1.31644   -1.000
 4662.00    1.27049   1.30946   -1.000
 4663.00    1.27574   1.29721  103.459
 4664.00    1.26290   1.28168  106.369
 4665.00    1.24921   1.26458  111.010
 4666.00    1.23840   1.24852  113.713
 4667.00    1.22906   1.23702  112.097
 4668.00    1.22343   1.23334  107.980
 4669.00    1.22670   1.23800  104.101
 4670.00    1.23615   1.24915  102.282
 4671.00    1.25358   1.26303  102.046
 4672.00    1.27793   1.27632  102.069
 4673.00    1.28745   1.28688  101.426
 4674.00    1.29874   1.29418   99.968
 4675.00    1.29346   1.29800   99.312
 4676.00    1.27525   1.29759  100.596
 4677.00    1.26946   1.29285   -1.000
 4678.00    1.26317   1.28500  104.650
 4679.00    1.23932   1.27646   -1.000
 4680.00    1.22960   1.26968   -1.000
 4681.00    1.24138   1.26622   -1.000
 4682.00    1.24468   1.26657  101.910
 4683.00    1.25551   1.26992  101.346
 4684.00    1.27507   1.27462  101.621
 4685.00    1.27601   1.27912  101.881
 4686.00    1.27130   1.28263  102.237
 4687.00    1.27435   1.28488  102.221
 4688.00    1.27223   1.28605  102.547
 4689.00    1.26084   1.28664   -1.000
 4690.00    1.25799   1.28705   -1.000
 4691.00    1.26898   1.28797  101.245
 4692.00    1.26828   1.28995   99.394
 4693.00    1.27395   1.29266   97.562
 4694.00    1.30314   1.29500   97.101
 4695.00    1.31549   1.29577   98.644
 4696.00    1.29611   1.29376  101.649
 4697.00    1.26933   1.28816  103.911
 4698.00    1.25165   1.27969   -1.000
 4699.00    1.25189   1.26965  103.944
 4700.00    1.26846   1.25971  105.251
 4701.00    1.26700   1.25117  106.585
 4702.00    1.24783   1.24555  105.949
 4703.00    1.23686   1.24383  104.041
 4704.00    1.24212   1.24544  103.822
 4705.00    1.25765   1.24813  105.666
 4706.00    1.25005   1.25007  107.334
 4707.00    1.22670   1.25120   -1.000
 4708.00    1.21767   1.25302   -1.000
 4709.00    1.23941   1.25686  102.718
 4710.00    1.25278   1.26277  100.705
 4711.00    1.25407   1.26980  100.632
 4712.00    1.25309   1.27606  102.084
 4713.00    1.27158   1.28056  103.205
 4714.00    1.29286   1.28415  102.218
 4715.00    1.28996   1.28851  100.142
 4716.00    1.28376   1.29466   98.799
 4717.00    1.30096   1.30186   98.351
 4718.00    1.31515   1.30892   98.015
 4719.00    1.32611   1.31450   98.197
 4720.00    1.31798   1.31819   99.018
 4721.00    1.29672   1.32024   99.144
 4722.00    1.28649   1.32116   -1.000
 4723.00    1.27866   1.32103   -1.000
 4724.00    1.27904   1.31909   -1.000
 4725.00    1.29390   1.31428  102.020
 4726.00    1.28466   1.30601  105.262
 4727.00    1.25527   1.29548   -1.000
 4728.00    1.23019   1.28523   -1.000
 4729.00    1.24491   1.27775   -1.000
 4730.00    1.27222   1.27413  103.530
 4731.00    1.28286   1.27449  102.420
 4732.00    1.29472   1.27770  101.682
 4733.00    1.28952   1.28183  101.120
 4734.00    1.27849   1.28524  101.292
 4735.00    1.29564   1.28748  102.016
 4736.00    1.29807   1.28896  101.452
 4737.00    1.27903   1.29066  100.693
 4738.00    1.28309   1.29338  101.033
 4739.00    1.28696   1.29699  101.437
 4740.00    1.29339   1.30086  101.125
 4741.00    1.31282   1.30483  100.145
 4742.00    1.31306   1.30888   99.623
 4743.00    1.31110   1.31295   99.822
 4744.00    1.31907   1.31697   99.526
 4745.00    1.32345   1.32096   98.630
 4746.00    1.32077   1.32520   97.979
 4747.00    1.32765   1.32985   97.963
 4748.00    1.33638   1.33421   98.086
 4749.00    1.31638   1.33774   98.441
 4750.00    1.29205   1.33952   -1.000
 4751.00    1.28937   1.33862   -1.000
 4752.00    1.28677   1.33492   -1.000
 4753.00    1.28280   1.32946   -1.000
 4754.00    1.29283   1.32432   -1.000
 4755.00    1.29113   1.32123   -1.000
 4756.00    1.27905   1.32102   -1.000
 4757.00    1.28976   1.32305   -1.000
 4758.00    1.30687   1.32575  101.607
 4759.00    1.30410   1.32675  102.249
 4760.00    1.28595   1.32394   -1.000
 4761.00    1.27580   1.31675   -1.000
 4762.00    1.26473   1.30646   -1.000
 4763.00    1.24889   1.29632   -1.000
 4764.00    1.25135   1.28903   -1.000
 4765.00    1.26168   1.28655   -1.000
 4766.00    1.27212   1.28942  103.641
 4767.00    1.29843   1.29702  101.673
 4768.00    1.31031   1.30724  101.017
 4769.00    1.31326   1.31736  101.555
 4770.00    1.32064   1.32521  102.459
 4771.00    1.31899   1.33079  102.402
 4772.00    1.31777   1.33518  100.674
 4773.00    1.31437   1.34000   -1.000
 4774.00    1.30940   1.34542   -1.000
 4775.00    1.31413   1.35038   -1.000
 4776.00    1.32720   1.35360   -1.000
 4777.00    1.32221   1.35414   -1.000
 4778.00    1.29745   1.35225   -1.000
 4779.00    1.28493   1.34882   -1.000
 4780.00    1.29404   1.34483   -1.000
 4781.00    1.30584   1.34054   -1.000
 4782.00    1.30722   1.33600   -1.000
 4783.00    1.29358   1.33147   -1.000
 4784.00    1.30855   1.32717  103.986
 4785.00    1.31564   1.32352  104.846
 4786.00    1.30278   1.32111  105.106
 4787.00    1.29959   1.32078  104.785
 4788.00    1.29235   1.32290   -1.000
 4789.00    1.28647   1.32757   -1.000
 4790.00    1.28606   1.33477   -1.000
 4791.00    1.31431   1.34420   -1.000
 4792.00    1.32759   1.35505   -1.000
 4793.00    1.32921   1.36576   -1.000
 4794.00    1.35780   1.37458   97.223
 4795.00    1.34937   1.37962   -1.000
 4796.00    1.32286   1.38013   -1.000
 4797.00    1.32195   1.37700   -1.000
 4798.00    1.31881   1.37223   -1.000
 4799.00    1.33013   1.36840   -1.000
 4800.00    1.34990   1.36712   99.107
 4801.00    1.33510   1.36815   -1.000
 4802.00    1.31577   1.36968   -1.000
 4803.00    1.32258   1.37005   -1.000
 4804.00    1.32761   1.36845   -1.000
 4805.00    1.31561   1.36565   -1.000
 4806.00    1.31226   1.36294   -1.000
 4807.00    1.32324   1.36130   -1.000
 4808.00    1.33729   1.36137   -1.000
 4809.00    1.34342   1.36303  100.053
 4810.00    1.33102   1.36554   -1.000
 4811.00    1.33077   1.36852   -1.000
 4812.00    1.33915   1.37212   -1.000
 4813.00    1.34285   1.37645   -1.000
 4814.00    1.34807   1.38148   -1.000
 4815.00    1.34248   1.38678   -1.000
 4816.00    1.33887   1.39160   -1.000
 4817.00    1.35379   1.39503   -1.000
 4818.00    1.36274   1.39636   -1.000
 4819.00    1.35392   1.39510   -1.000
 4820.00    1.33873   1.39050   -1.000
 4821.00    1.32704   1.38232   -1.000
 4822.00    1.33500   1.37177   -1.000
 4823.00    1.32739   1.36147   -1.000
 4824.00    1.30440   1.35485   -1.000
 4825.00    1.30071   1.35319   -1.000
 4826.00    1.31563   1.35506   -1.000
 4827.00    1.32289   1.35800   -1.000
 4828.00    1.32333   1.35969   -1.000
 4829.00    1.31262   1.35944   -1.000
 4830.00    1.29321   1.35709   -1.000
 4831.00    1.29735   1.35363   -1.000
 4832.00    1.31967   1.35084   -1.000
 4833.00    1.34092   1.34965   98.766
 4834.00    1.32439   1.35004   -1.000
 4835.00    1.31296   1.35089   -1.000
 4836.00    1.32088   1.35068   -1.000
 4837.00    1.31592   1.34837   -1.000
 4838.00    1.31524   1.34363   -1.000
 4839.00    1.31778   1.33740  102.378
 4840.00    1.31940   1.33122  102.011
 4841.00    1.32318   1.32672  101.369
 4842.00    1.32518   1.32449  100.481
 4843.00    1.32742   1.32425   99.189
 4844.00    1.32598   1.32540   98.115
 4845.00    1.32160   1.32668   98.828
 4846.00    1.33018   1.32618  100.665
 4847.00    1.33082   1.32308  101.425
 4848.00    1.32730   1.31832  100.687
 4849.00    1.31074   1.31278   99.797
 4850.00    1.28797   1.30639   99.985
 4851.00    1.28498   1.29754  100.714
 4852.00    1.27939   1.28452  102.606
 4853.00    1.27547   1.26594  105.674
 4854.00    1.26998   1.24170  107.112
 4855.00    1.24867   1.21295   -1.000
 4856.00    1.22293   1.17992   -1.000
 4857.00    1.20207   1.14165   -1.000
 4858.00    1.17470   1.09610   -1.000
 4859.00    1.12375   1.04597   -1.000
 4860.00    1.05268   1.00060   -1.000
 4861.00    0.97332   0.97212  124.026
 4862.00    0.93356   0.96998   -1.000
 4863.00    0.98904   0.99358  109.378
 4864.00    1.10040   1.03584   -1.000
 4865.00    1.17348   1.08580   -1.000
 4866.00    1.20046   1.13357   -1.000
 4867.00    1.21550   1.17233   -1.000
 4868.00    1.22880   1.19881  106.191
 4869.00    1.23331   1.21356  109.067
 4870.00    1.21735   1.21973  109.980
 4871.00    1.18989   1.22274   -1.000
 4872.00    1.20904   1.22847  105.317
 4873.00    1.25109   1.23903  104.012
 4874.00    1.27490   1.25349  103.345
 4875.00    1.28096   1.26882  102.893
 4876.00    1.27528   1.28329  101.987
 4877.00    1.27313   1.29676  100.663
 4878.00    1.28373   1.30935   -1.000
 4879.00    1.29265   1.32050   -1.000
 4880.00    1.29839   1.32894   -1.000
 4881.00    1.30078   1.33343   -1.000
 4882.00    1.29827   1.33427   -1.000
 4883.00    1.29885   1.33201   -1.000
 4884.00    1.28971   1.32757   -1.000
 4885.00    1.28429   1.32209   -1.000
 4886.00    1.28736   1.31640   -1.000
 4887.00    1.28703   1.31092   -1.000
 4888.00    1.28089   1.30558   -1.000
 4889.00    1.26781   1.30102   -1.000
 4890.00    1.25521   1.30007   -1.000
 4891.00    1.24767   1.30615   -1.000
 4892.00    1.27216   1.32143   -1.000
 4893.00    1.32890   1.34428   95.141
 4894.00    1.35200   1.36922   94.025
 4895.00    1.37141   1.39127   93.921
 4896.00    1.39002   1.40664   95.030
 4897.00    1.37397   1.41412   -1.000
 4898.00    1.35493   1.41452   -1.000
 4899.00    1.34637   1.41040   -1.000
 4900.00    1.35001   1.40447   -1.000
 4901.00    1.34735   1.39877   -1.000
 4902.00    1.33719   1.39438   -1.000
 4903.00    1.34063   1.39230   -1.000
 4904.00    1.34597   1.39343   -1.000
 4905.00    1.35219   1.39669   -1.000
 4906.00    1.34912   1.39902   -1.000
 4907.00    1.33488   1.39783   -1.000
 4908.00    1.32555   1.39187   -1.000
 4909.00    1.31075   1.38304   -1.000
 4910.00    1.30387   1.37477   -1.000
 4911.00    1.31912   1.37094   -1.000
 4912.00    1.33419   1.37283   -1.000
 4913.00    1.33294   1.37883   -1.000
 4914.00    1.33289   1.38505   -1.000
 4915.00    1.33005   1.38653   -1.000
 4916.00    1.32249   1.37895   -1.000
 4917.00    1.31664   1.36135   -1.000
 4918.00    1.29082   1.33685   -1.000
 4919.00    1.26278   1.31210   -1.000
 4920.00    1.24592   1.29409   -1.000
 4921.00    1.25540   1.28690   -1.000
 4922.00    1.28371   1.29056  103.597
 4923.00    1.30474   1.30206  102.917
 4924.00    1.30864   1.31881  100.881
 4925.00    1.30402   1.33860   -1.000
 4926.00    1.32762   1.35936   -1.000
 4927.00    1.36716   1.37910   96.520
 4928.00    1.37242   1.39525   95.902
 4929.00    1.35049   1.40571   -1.000
 4930.00    1.34798   1.40884   -1.000
 4931.00    1.36220   1.40429   -1.000
 4932.00    1.36274   1.39372   -1.000
 4933.00    1.33355   1.38094   -1.000
 4934.00    1.30293   1.36936   -1.000
 4935.00    1.29409   1.36064   -1.000
 4936.00    1.29281   1.35389   -1.000
 4937.00    1.31426   1.34859   -1.000
 4938.00    1.33119   1.34664  104.276
 4939.00    1.32709   1.35015  100.771
 4940.00    1.32808   1.36024   -1.000
 4941.00    1.35128   1.37508   96.895
 4942.00    1.37227   1.39089   96.502
 4943.00    1.37360   1.40435   -1.000
 4944.00    1.37546   1.41356   -1.000
 4945.00    1.37864   1.41901   -1.000
 4946.00    1.36979   1.42255   -1.000
 4947.00    1.35295   1.42613   -1.000
 4948.00    1.35660   1.43014   -1.000
 4949.00    1.37389   1.43362   -1.000
 4950.00    1.38957   1.43515   -1.000
 4951.00    1.39322   1.43370   -1.000
 4952.00    1.38206   1.42865   -1.000
 4953.00    1.37376   1.41932   -1.000
 4954.00    1.35994   1.40508   -1.000
 4955.00    1.33266   1.38610   -1.000
 4956.00    1.31019   1.36578   -1.000
 4957.00    1.30371   1.35092   -1.000
 4958.00    1.31393   1.34703   -1.000
 4959.00    1.34283   1.35539   97.983
 4960.00    1.36521   1.37136   97.882
 4961.00    1.37735   1.38850   98.524
 4962.00    1.36448   1.40145   -1.000
 4963.00    1.34934   1.40730   -1.000
 4964.00    1.36497   1.40616   -1.000
 4965.00    1.36794   1.40043   -1.000
 4966.00    1.36008   1.39340   -1.000
 4967.00    1.34801   1.38776   -1.000
 4968.00    1.34583   1.38514   -1.000
 4969.00    1.36132   1.38631   -1.000
 4970.00    1.36267   1.39098   -1.000
 4971.00    1.36603   1.39817   -1.000
 4972.00    1.37197   1.40632   -1.000
 4973.00    1.35801   1.41381   -1.000
 4974.00    1.35169   1.41882   -1.000
 4975.00    1.36247   1.42023   -1.000
 4976.00    1.37135   1.41741   -1.000
 4977.00    1.37292   1.41023   -1.000
 4978.00    1.36486   1.39886   -1.000
 4979.00    1.34046   1.38347   -1.000
 4980.00    1.32199   1.36455   -1.000
 4981.00    1.30904   1.34382   -1.000
 4982.00    1.28353   1.32519   -1.000
 4983.00    1.27645   1.31348   -1.000
 4984.00    1.29586   1.31222  105.243
 4985.00    1.31874   1.32117  102.269
 4986.00    1.33202   1.33670  101.084
 4987.00    1.33867   1.35356  101.930
 4988.00    1.34811   1.36674  103.229
 4989.00    1.36293   1.37406  103.765
 4990.00    1.36532   1.37633  103.292
 4991.00    1.35425   1.37631  102.603
 4992.00    1.33662   1.37656   -1.000
 4993.00    1.32429   1.37837   -1.000
 4994.00    1.34195   1.38145   -1.000
 4995.00    1.35799   1.38441  101.630
 4996.00    1.35130   1.38533   -1.000
 4997.00    1.35225   1.38252   -1.000
 4998.00    1.34580   1.37534   -1.000
 4999.00    1.32099   1.36501   -1.000
 5000.00    1.31117   1.35395   -1.000
 5001.00    1.31167   1.34470   -1.000
 5002.00    1.30555   1.33819   -1.000
 5003.00    1.29030   1.33337   -1.000
 5004.00    1.29704   1.32891   -1.000
 5005.00    1.31786   1.32497  108.547
 5006.00    1.31644   1.32372  105.490
 5007.00    1.29481   1.32665   -1.000
 5008.00    1.28306   1.33273   -1.000
 5009.00    1.29572   1.33847   -1.000
 5010.00    1.30684   1.33963   -1.000
 5011.00    1.31712   1.33440  112.802
 5012.00    1.30417   1.32406  113.757
 5013.00    1.28275   1.31264   -1.000
 5014.00    1.28624   1.30379  109.676
 5015.00    1.28712   1.29930  108.336
 5016.00    1.28416   1.29886  108.158
 5017.00    1.29378   1.30142  107.530
 5018.00    1.30280   1.30651  106.464
 5019.00    1.30959   1.31358  106.299
 5020.00    1.32279   1.32165  106.670
 5021.00    1.33171   1.32994  106.458
 5022.00    1.33196   1.33798  105.561
 5023.00    1.33942   1.34598  104.648
 5024.00    1.33594   1.35352  104.581
 5025.00    1.34004   1.35943  105.102
 5026.00    1.37359   1.36362  104.835
 5027.00    1.38687   1.36708  103.310
 5028.00    1.38248   1.37108  101.595
 5029.00    1.38056   1.37670  100.045
 5030.00    1.37780   1.38386   98.664
 5031.00    1.37158   1.39119   98.216
 5032.00    1.36818   1.39637   -1.000
 5033.00    1.37900   1.39684  103.624
 5034.00    1.38523   1.39122  106.511
 5035.00    1.36172   1.38033  107.505
 5036.00    1.32807   1.36592   -1.000
 5037.00    1.32060   1.34968   -1.000
 5038.00    1.32313   1.33236  115.772
 5039.00    1.31234   1.31586  118.032
 5040.00    1.28695   1.30450  114.883
 5041.00    1.27097   1.30294   -1.000
 5042.00    1.28958   1.31358  102.881
 5043.00    1.35754   1.33442   99.808
 5044.00    1.17091   1.35950   -1.000
 5045.00    0.46356   1.38197   -1.000
 5046.00   -0.01102   1.39615    0.000
 5047.00    0.09192   1.39968   -1.000
 5048.00    0.61461   1.39405   -1.000
 5049.00    1.17736   1.38386   -1.000
 5050.00    1.34044   1.37455   -1.000
 5051.00    1.32633   1.37055   -1.000
 5052.00    1.32485   1.37371   -1.000
 5053.00    1.36138   1.38290   98.590
 5054.00    1.39063   1.39506   97.998
 5055.00    1.39492   1.40761   97.958
 5056.00    1.40568   1.41879   98.148
 5057.00    1.41460   1.42789   98.212
 5058.00    1.42294   1.43472   97.828
 5059.00    1.42819   1.43902   97.537
 5060.00    1.41469   1.44028   98.281
 5061.00    1.40287   1.43772   -1.000
 5062.00    1.40520   1.43050  103.771
 5063.00    1.39937   1.41917  106.150
 5064.00    1.37039   1.40624   -1.000
 5065.00    1.35986   1.39465   -1.000
 5066.00    1.36338   1.38668  103.543
 5067.00    1.36532   1.38262  103.148
 5068.00    1.36609   1.38158  102.550
 5069.00    1.36685   1.38215  102.683
 5070.00    1.37359   1.38281  103.536
 5071.00    1.38794   1.38269  103.211
 5072.00    1.38846   1.38214  102.152
 5073.00    1.37560   1.38188  101.722
 5074.00    1.37372   1.38192  101.628
 5075.00    1.37545   1.38118  102.129
 5076.00    1.37050   1.37790  104.529
 5077.00    1.35871   1.37076  108.962
 5078.00    1.35211   1.36014  112.061
 5079.00    1.34259   1.34896  111.265
 5080.00    1.31634   1.34087  108.831
 5081.00    1.31117   1.33834   -1.000
 5082.00    1.33396   1.34210  105.234
 5083.00    1.34017   1.35114  103.332
 5084.00    1.36136   1.36371  102.132
 5085.00    1.38777   1.37757  101.745
 5086.00    1.38316   1.39070  101.411
 5087.00    1.39303   1.40203  100.768
 5088.00    1.40696   1.41127  100.130
 5089.00    1.40654   1.41867   99.599
 5090.00    1.39806   1.42465   98.731
 5091.00    1.47250   1.42945   -1.000
 5092.00    1.64434   1.43258   -1.000
 5093.00    1.57167   1.43267   -1.000
 5094.00    1.41932   1.42811  101.523
 5095.00    1.39529   1.41831  103.867
 5096.00    1.37516   1.40467   -1.000
 5097.00    1.38163   1.39035  107.389
 5098.00    1.36688   1.37931  106.025
 5099.00    1.35045   1.37445  103.094
 5100.00    1.36362   1.37648  101.252
 5101.00    1.38887   1.38315  101.226
 5102.00    1.40010   1.39067  102.263
 5103.00    1.39802   1.39566  103.600
 5104.00    1.39343   1.39608  104.886
 5105.00    1.37748   1.39191  106.189
 5106.00    1.36138   1.38489  106.692
 5107.00    1.35170   1.37780  106.207
 5108.00    1.34265   1.37335   -1.000
 5109.00    1.34216   1.37336   -1.000
 5110.00    1.35948   1.37837  102.889
 5111.00    1.37854   1.38751  101.637
 5112.00    1.39456   1.39896  100.578
 5113.00    1.40447   1.41098   99.883
 5114.00    1.41533   1.42215   99.062
 5115.00    1.42043   1.43155   98.126
 5116.00    1.41991   1.43847   97.931
 5117.00    1.41692   1.44220   98.800
 5118.00    1.40658   1.44205   -1.000
 5119.00    1.40865   1.43751   -1.000
 5120.00    1.39727   1.42880   -1.000
 5121.00    1.37983   1.41680   -1.000
 5122.00    1.38324   1.40299  108.851
 5123.00    1.36800   1.38925  108.578
 5124.00    1.34689   1.37758   -1.000
 5125.00    1.34796   1.36923  107.238
 5126.00    1.35564   1.36450  107.043
 5127.00    1.37014   1.36293  107.074
 5128.00    1.37600   1.36401  106.231
 5129.00    1.36812   1.36730  104.570
 5130.00    1.37799   1.37244  103.307
 5131.00    1.39152   1.37879  102.405
 5132.00    1.38969   1.38547  101.466
 5133.00    1.37963   1.39139  100.932
 5134.00    1.38061   1.39534  101.858
 5135.00    1.38775   1.39614  104.111
 5136.00    1.38708   1.39318  106.173
 5137.00    1.38175   1.38701  106.967
 5138.00    1.35469   1.37926  106.446
 5139.00    1.33458   1.37202   -1.000
 5140.00    1.32770   1.36679   -1.000
 5141.00    1.33475   1.36417   -1.000
 5142.00    1.33377   1.36405   -1.000
 5143.00    1.32937   1.36576   -1.000
 5144.00    1.34292   1.36819  106.303
 5145.00    1.36420   1.37014  106.912
 5146.00    1.37508   1.37117  106.249
 5147.00    1.36757   1.37170  105.314
 5148.00    1.36650   1.37190  105.821
 5149.00    1.37226   1.37142  107.537
 5150.00    1.37063   1.37012  108.800
 5151.00    1.35803   1.36837  108.757
 5152.00    1.35689   1.36742  107.290
 5153.00    1.37509   1.36907  104.809
 5154.00    1.38313   1.37489  102.127
 5155.00    1.36761   1.38513   99.926
 5156.00    1.38028   1.39837   98.725
 5157.00    1.42485   1.41209   98.433
 5158.00    1.42752   1.42348   98.633
 5159.00    1.41317   1.43026   99.108
 5160.00    1.41466   1.43088  100.000
 5161.00    1.40687   1.42431  101.388
 5162.00    1.39601   1.40963  104.287
 5163.00    1.38845   1.38582  110.939
 5164.00    1.37934   1.35242   -1.000
 5165.00    1.35018   1.31185   -1.000
 5166.00    1.28980   1.26995  133.900
 5167.00    1.22722   1.23440  127.946
 5168.00    1.19835   1.21048  123.761
 5169.00    1.22810   1.19768   -1.000
 5170.00    1.26757   1.19283   -1.000
 5171.00    1.25861   1.19404   -1.000
 5172.00    1.24292   1.20315   -1.000
 5173.00    1.25220   1.22352  113.549
 5174.00    1.29312   1.25494   -1.000
 5175.00    1.34329   1.29291   -1.000
 5176.00    1.39070   1.32979   -1.000
 5177.00    1.41490   1.35763   -1.000
 5178.00    1.41363   1.37074   -1.000
 5179.00    1.41421   1.36621   -1.000
 5180.00    1.41540   1.34485   -1.000
 5181.00    1.40697   1.31175   -1.000
 5182.00    1.34966   1.27673   -1.000
 5183.00    1.27560   1.25155  124.973
 5184.00    1.25627   1.24472  112.738
 5185.00    1.30830   1.25762   -1.000
 5186.00    1.35741   1.28401   -1.000
 5187.00    1.37481   1.31444   -1.000
 5188.00    1.38051   1.34071   -1.000
 5189.00    1.36995   1.35780  107.326
 5190.00    1.38027   1.36488  110.547
 5191.00    1.39176   1.36477  111.283
 5192.00    1.36981   1.36173  109.701
 5193.00    1.35141   1.35969  107.946
 5194.00    1.34653   1.36098  106.368
 5195.00    1.37772   1.36637  104.462
 5196.00    1.40231   1.37566  102.538
 5197.00    1.41062   1.38765  101.341
 5198.00    1.43311   1.40019   -1.000
 5199.00    1.43580   1.41056  101.428
 5200.00    1.41182   1.41580  102.877
 5201.00    1.40304   1.41362  105.064
 5202.00    1.40349   1.40329  108.019
 5203.00    1.38859   1.38618  111.407
 5204.00    1.37805   1.36557  113.034
 5205.00    1.35951   1.34570  113.480
 5206.00    1.33980   1.33049  114.144
 5207.00    1.33785   1.32274  113.419
 5208.00    1.34969   1.32410  110.460
 5209.00    1.37276   1.33477   -1.000
 5210.00    1.38920   1.35322   -1.000
 5211.00    1.40273   1.37580   99.204
 5212.00    1.42162   1.39760   99.079
 5213.00    1.44341   1.41411  101.010
 5214.00    1.44510   1.42331  102.744
 5215.00    1.41860   1.42686  102.694
 5216.00    1.40799   1.42869  100.954
 5217.00    1.41063   1.43276   99.130
 5218.00    1.41156   1.44058   98.093
 5219.00    1.43642   1.45077   97.575
 5220.00    1.46178   1.45973   98.187
 5221.00    1.45248   1.46324  100.540
 5222.00    1.45803   1.45803  104.311
 5223.00    1.45984   1.44296  109.010
 5224.00    1.42678   1.42012  112.892
 5225.00    1.39196   1.39529  112.591
 5226.00    1.36029   1.37574  107.649
 5227.00    1.34489   1.36729  102.537
 5228.00    1.36063   1.37084   99.830
 5229.00    1.40866   1.38254   99.096
 5230.00    1.43932   1.39622   -1.000
 5231.00    1.43239   1.40669  102.238
 5232.00    1.43056   1.41251  102.806
 5233.00    1.43363   1.41604  101.213
 5234.00    1.42622   1.42113   98.776
 5235.00    1.42430   1.43017   97.179
 5236.00    1.44968   1.44304   96.731
 5237.00    1.48335   1.45737   96.911
 5238.00    1.49555   1.47031   96.936
 5239.00    1.48670   1.47995   96.503
 5240.00    1.48181   1.48583   96.361
 5241.00    1.49462   1.48872   96.317
 5242.00    1.48817   1.48974   96.136
 5243.00    1.47458   1.48918   97.255
 5244.00    1.48273   1.48629   99.942
 5245.00    1.48912   1.48039  102.620
 5246.00    1.45893   1.47157  103.680
 5247.00    1.43537   1.46126  103.842
 5248.00    1.44849   1.45137  104.329
 5249.00    1.44641   1.44372  104.294
 5250.00    1.42825   1.43947  103.174
 5251.00    1.42200   1.43876  101.971
 5252.00    1.42067   1.44082  101.606
 5253.00    1.42843   1.44499  101.187
 5254.00    1.46122   1.45126   99.414
 5255.00    1.49109   1.45942   -1.000
 5256.00    1.48893   1.46852   95.282
 5257.00    1.48852   1.47604   95.559
 5258.00    1.48794   1.47860   97.563
 5259.00    1.46806   1.47294  101.193
 5260.00    1.45455   1.45751  105.858
 5261.00    1.44564   1.43336  110.077
 5262.00    1.41735   1.40406  112.901
 5263.00    1.36747   1.37454  113.936
 5264.00    1.33635   1.34958  112.757
 5265.00    1.33953   1.33175  110.701
 5266.00    1.34811   1.32068  111.434
 5267.00    1.35749   1.31443   -1.000
 5268.00    1.35273   1.31138   -1.000
 5269.00    1.33744   1.31259  110.568
 5270.00    1.33405   1.31973  105.012
 5271.00    1.34720   1.33307  102.707
 5272.00    1.38665   1.35125   -1.000
 5273.00    1.43469   1.37160   -1.000
 5274.00    1.45770   1.39209   -1.000
 5275.00    1.45082   1.41189   -1.000
 5276.00    1.44963   1.43066   95.609
 5277.00    1.47130   1.44730   95.345
 5278.00    1.47921   1.45937   97.060
 5279.00    1.46199   1.46488   99.572
 5280.00    1.46130   1.46352  101.690
 5281.00    1.46970   1.45763  102.677
 5282.00    1.48140   1.45156   -1.000
 5283.00    1.43554   1.45018   98.716
 5284.00    1.41625   1.45618   -1.000
 5285.00    1.46130   1.46923   94.038
 5286.00    1.50628   1.48619   94.152
 5287.00    1.51434   1.50328   94.360
 5288.00    1.51153   1.51756   93.988
 5289.00    1.52522   1.52740   93.644
 5290.00    1.52898   1.53253   93.929
 5291.00    1.53296   1.53344   94.716
 5292.00    1.51907   1.53026   95.851
 5293.00    1.49771   1.52278   97.970
 5294.00    1.49409   1.51078  101.371
 5295.00    1.48349   1.49489  104.570
 5296.00    1.47251   1.47775  105.144
 5297.00    1.46020   1.46306  103.104
 5298.00    1.45909   1.45393  100.879
 5299.00    1.46872   1.45202   99.807
 5300.00    1.47118   1.45674   98.826
 5301.00    1.48249   1.46653   96.657
 5302.00    1.49050   1.47929   94.541
 5303.00    1.50341   1.49253   93.777
 5304.00    1.52098   1.50432   94.311
 5305.00    1.53533   1.51344   95.201
 5306.00    1.53835   1.51978   95.098
 5307.00    1.53966   1.52442   94.193
 5308.00    1.53759   1.52841   93.442
 5309.00    1.51773   1.53230   93.297
 5310.00    1.52964   1.53547   93.686
 5311.00    1.54847   1.53663   94.147
 5312.00    1.53555   1.53458   94.728
 5313.00    1.52237   1.52898   95.585
 5314.00    1.51963   1.52070   96.478
 5315.00    1.51752   1.51204   96.802
 5316.00    1.51972   1.50554   96.327
 5317.00    1.51260   1.50280   95.787
 5318.00    1.50575   1.50327   95.877
 5319.00    1.50899   1.50467   96.459
 5320.00    1.50518   1.50411   97.440
 5321.00    1.50214   1.49916   98.964
 5322.00    1.49116   1.48905  100.192
 5323.00    1.45959   1.47438  100.472
 5324.00    1.43074   1.45641  102.197
 5325.00    1.45282   1.43636  107.499
 5326.00    1.47412   1.41630   -1.000
 5327.00    1.43899   1.40029   -1.000
 5328.00    1.40346   1.39252  104.588
 5329.00    1.39828   1.39588  100.165
 5330.00    1.43319   1.40955   98.426
 5331.00    1.47975   1.42978   -1.000
 5332.00    1.50367   1.45178   -1.000
 5333.00    1.50450   1.47112   -1.000
 5334.00    1.49801   1.48504   96.043
 5335.00    1.49311   1.49265   96.692
 5336.00    1.48142   1.49408   97.598
 5337.00    1.48119   1.49014   99.589
 5338.00    1.48972   1.48249  101.656
 5339.00    1.48432   1.47397  101.705
 5340.00    1.46900   1.46778   99.533
 5341.00    1.46044   1.46624   97.384
 5342.00    1.46967   1.46917   96.799
 5343.00    1.50338   1.47452   -1.000
 5344.00    1.53111   1.47951   -1.000
 5345.00    1.49608   1.48215   98.435
 5346.00    1.47833   1.48228   99.180
 5347.00    1.48756   1.48130   99.659
 5348.00    1.49429   1.48143   98.705
 5349.00    1.49741   1.48445   96.620
 5350.00    1.50053   1.49100   95.038
 5351.00    1.51717   1.50036   94.463
 5352.00    1.54094   1.51130   -1.000
 5353.00    1.56261   1.52266   -1.000
 5354.00    1.55751   1.53343   91.954
 5355.00    1.55879   1.54284   91.786
 5356.00    1.56342   1.55011   91.929
 5357.00    1.54445   1.55450   92.199
 5358.00    1.54552   1.55528   93.032
 5359.00    1.55443   1.55192   94.458
 5360.00    1.54289   1.54452   95.928
 5361.00    1.53651   1.53392   96.845
 5362.00    1.53189   1.52161   97.427
 5363.00    1.50504   1.50935   98.005
 5364.00    1.49709   1.49851   98.005
 5365.00    1.47963   1.48951   97.874
 5366.00    1.46780   1.48156   98.542
 5367.00    1.48570   1.47324  100.536
 5368.00    1.49670   1.46359   -1.000
 5369.00    1.48827   1.45349   -1.000
 5370.00    1.46576   1.44584  102.188
 5371.00    1.46718   1.44431   97.675
 5372.00    1.46691   1.45125   94.563
 5373.00    1.49047   1.46600   93.383
 5374.00    1.52432   1.48521   -1.000
 5375.00    1.55329   1.50422   -1.000
 5376.00    1.57428   1.51907   -1.000
 5377.00    1.56604   1.52774   -1.000
 5378.00    1.55899   1.53029   -1.000
 5379.00    1.55120   1.52819   95.843
 5380.00    1.53913   1.52346   96.469
 5381.00    1.53248   1.51826   96.568
 5382.00    1.52156   1.51455   96.225
 5383.00    1.51867   1.51368   95.367
 5384.00    1.52707   1.51587   94.887
 5385.00    1.52917   1.51998   95.140
 5386.00    1.53751   1.52399   95.919
 5387.00    1.54554   1.52577   97.227
 5388.00    1.52430   1.52399   98.466
 5389.00    1.52464   1.51856   99.111
 5390.00    1.53220   1.51043   99.268
 5391.00    1.50517   1.50101   99.478
 5392.00    1.49386   1.49146  100.085
 5393.00    1.49244   1.48218  101.234
 5394.00    1.49056   1.47325  103.075
 5395.00    1.49611   1.46513   -1.000
 5396.00    1.48673   1.45908   -1.000
 5397.00    1.47932   1.45671   98.629
 5398.00    1.49177   1.45871   -1.000
 5399.00    1.49549   1.46402   -1.000
 5400.00    1.49863   1.46982   -1.000
 5401.00    1.47957   1.47244  100.208
 5402.00    1.48402   1.46939  103.483
 5403.00    1.47825   1.46087  105.634
 5404.00    1.45972   1.44969  105.305
 5405.00    1.45279   1.43978  103.335
 5406.00    1.45549   1.43411  102.003
 5407.00    1.45574   1.43349  102.372
 5408.00    1.48531   1.43727   -1.000
 5409.00    1.50586   1.44419   -1.000
 5410.00    1.48881   1.45324   -1.000
 5411.00    1.49117   1.46371   96.402
 5412.00    1.50572   1.47488   -1.000
 5413.00    1.53441   1.48607   -1.000
 5414.00    1.55065   1.49667   -1.000
 5415.00    1.53935   1.50624   -1.000
 5416.00    1.52288   1.51449   95.170
 5417.00    1.51871   1.52102   95.975
 5418.00    1.53426   1.52535   96.685
 5419.00    1.55264   1.52705   -1.000
 5420.00    1.54710   1.52600   96.166
 5421.00    1.53781   1.52273   96.974
 5422.00    1.53531   1.51836   98.067
 5423.00    1.51916   1.51442   97.601
 5424.00    1.51222   1.51207   96.075
 5425.00    1.51236   1.51100   95.763
 5426.00    1.50296   1.50977   97.742
 5427.00    1.51121   1.50667  100.824
 5428.00    1.52714   1.50101   -1.000
 5429.00    1.51594   1.49371  100.644
 5430.00    1.48770   1.48634  100.000
 5431.00    1.47224   1.48045  101.036
 5432.00    1.48212   1.47687  102.334
 5433.00    1.50169   1.47612  102.422
 5434.00    1.49488   1.47898  100.836
 5435.00    1.47621   1.48630   98.235
 5436.00    1.49247   1.49830   95.961
 5437.00    1.54086   1.51379   94.439
 5438.00    1.55461   1.53035   93.510
 5439.00    1.55975   1.54504   93.179
 5440.00    1.56790   1.55520   93.145
 5441.00    1.55334   1.55903   93.833
 5442.00    1.53537   1.55554   95.909
 5443.00    1.53927   1.54507   99.495
 5444.00    1.52242   1.52959  103.091
 5445.00    1.51156   1.51291  103.559
 5446.00    1.49775   1.49971  100.850
 5447.00    1.48049   1.49357   97.834
 5448.00    1.48146   1.49559   96.380
 5449.00    1.51379   1.50364   96.168
 5450.00    1.53665   1.51331   96.773
 5451.00    1.53910   1.51988   98.627
 5452.00    1.53929   1.52051  101.356
 5453.00    1.52534   1.51541  103.792
 5454.00    1.51226   1.50793  103.375
 5455.00    1.50318   1.50234  100.275
 5456.00    1.50036   1.50190   97.267
 5457.00    1.51314   1.50701   96.120
 5458.00    1.53652   1.51521   96.816
 5459.00    1.56306   1.52258   -1.000
 5460.00    1.57847   1.52609   -1.000
 5461.00    1.57582   1.52525   -1.000
 5462.00    1.55638   1.52193   -1.000
 5463.00    1.54113   1.51907   98.773
 5464.00    1.53706   1.51891   98.113
 5465.00    1.53340   1.52212   97.221
 5466.00    1.53466   1.52773   96.595
 5467.00    1.53826   1.53384   97.143
 5468.00    1.54352   1.53858   98.172
 5469.00    1.53781   1.54072   98.717
 5470.00    1.53459   1.53962   99.157
 5471.00    1.54567   1.53514  100.033
 5472.00    1.53421   1.52743  101.358
 5473.00    1.51819   1.51707  103.330
 5474.00    1.52068   1.50542  105.147
 5475.00    1.53724   1.49460   -1.000
 5476.00    1.51390   1.48713  102.254
 5477.00    1.48501   1.48470   99.907
 5478.00    1.49279   1.48741   99.942
 5479.00    1.51186   1.49397  101.131
 5480.00    1.53523   1.50234   -1.000
 5481.00    1.55784   1.51098   -1.000
 5482.00    1.54157   1.51916   97.974
 5483.00    1.52999   1.52658   96.787
 5484.00    1.52809   1.53285   97.254
 5485.00    1.52652   1.53733   98.582
 5486.00    1.53646   1.53970   99.408
 5487.00    1.55568   1.54032   99.557
 5488.00    1.56150   1.54021   99.042
 5489.00    1.55760   1.54050   98.304
 5490.00    1.55073   1.54166   97.842
 5491.00    1.54316   1.54349   97.908
 5492.00    1.54007   1.54522   98.014
 5493.00    1.55091   1.54603   98.006
 5494.00    1.54940   1.54543   98.518
 5495.00    1.56700   1.54343   99.245
 5496.00    1.57020   1.54043   -1.000
 5497.00    1.54869   1.53698   98.049
 5498.00    1.54065   1.53339   98.287
 5499.00    1.53917   1.52978   99.717
 5500.00    1.53732   1.52618  100.310
 5501.00    1.52787   1.52258   99.708
 5502.00    1.51816   1.51911   99.303
 5503.00    1.53687   1.51588  100.243
 5504.00    1.55436   1.51304   -1.000
 5505.00    1.52886   1.51088  100.974
 5506.00    1.50153   1.50976   99.475
 5507.00    1.50096   1.50993   98.707
 5508.00    1.50941   1.51111   99.102
 5509.00    1.53336   1.51234  100.727
 5510.00    1.54245   1.51252   -1.000
 5511.00    1.53332   1.51129  103.637
 5512.00    1.52505   1.50949  102.966
 5513.00    1.51442   1.50890  101.249
 5514.00    1.52411   1.51126   99.638
 5515.00    1.53683   1.51735   97.870
 5516.00    1.55559   1.52662   -1.000
 5517.00    1.57209   1.53748   -1.000
 5518.00    1.57939   1.54798   -1.000
 5519.00    1.57249   1.55650   95.845
 5520.00    1.57725   1.56202   96.142
 5521.00    1.58904   1.56403   96.357
 5522.00    1.58581   1.56233   96.819
 5523.00    1.56739   1.55679   97.952
 5524.00    1.55641   1.54759   99.989
 5525.00    1.55212   1.53570  102.534
 5526.00    1.53247   1.52327  103.684
 5527.00    1.51333   1.51328  102.122
 5528.00    1.50590   1.50836   99.463
 5529.00    1.51916   1.50959   97.804
 5530.00    1.52806   1.51577   97.652
 5531.00    1.56445   1.52404   -1.000
 5532.00    1.57569   1.53145   -1.000
 5533.00    1.56514   1.53642   -1.000
 5534.00    1.54945   1.53916   98.194
 5535.00    1.55423   1.54104   97.790
 5536.00    1.56717   1.54351   97.430
 5537.00    1.56091   1.54722   96.607
 5538.00    1.56681   1.55182   95.778
 5539.00    1.57054   1.55636   95.617
 5540.00    1.56312   1.55982   96.383
 5541.00    1.56572   1.56157   97.394
 5542.00    1.56516   1.56161   97.837
 5543.00    1.55756   1.56067   97.678
 5544.00    1.56135   1.55991   97.429
 5545.00    1.58143   1.56042   96.920
 5546.00    1.58934   1.56272   96.034
 5547.00    1.58164   1.56660   95.181
 5548.00    1.57638   1.57123   94.816
 5549.00    1.58406   1.57546   95.152
 5550.00    1.59012   1.57828   95.922
 5551.00    1.59099   1.57915   96.967
 5552.00    1.59277   1.57823   97.611
 5553.00    1.59236   1.57626   97.604
 5554.00    1.58192   1.57423   97.319
 5555.00    1.57015   1.57294   97.113
 5556.00    1.57054   1.57262   96.985
 5557.00    1.58886   1.57292   96.876
 5558.00    1.59918   1.57310   97.005
 5559.00    1.58278   1.57239   97.441
 5560.00    1.57312   1.57029   98.319
 5561.00    1.56374   1.56676   99.104
 5562.00    1.57112   1.56223   99.479
 5563.00    1.57561   1.55734   99.691
 5564.00    1.57558   1.55274   99.818
 5565.00    1.57085   1.54877   99.683
 5566.00    1.55844   1.54548   99.464
 5567.00    1.54993   1.54267   99.629
 5568.00    1.55117   1.54014   99.663
 5569.00    1.52642   1.53779   99.639
 5570.00    1.48104   1.53573   -1.000
 5571.00    1.30122   1.53431   -1.000
 5572.00    0.56984   1.53394   -1.000
 5573.00   -1.30649   1.53508    0.000
 5574.00   -3.39813   1.53790    0.000
 5575.00   -2.92600   1.54219    0.000
 5576.00    0.28193   1.54745   -1.000
 5577.00    4.39907   1.55298   -1.000
 5578.00    5.37441   1.55802   -1.000
 5579.00    3.45874   1.56186   -1.000
 5580.00    2.03754   1.56395   -1.000
 5581.00    1.65194   1.56380   -1.000
 5582.00    1.55888   1.56089   98.596
 5583.00    1.54977   1.55464  100.416
 5584.00    1.55385   1.54463  102.946
 5585.00    1.53404   1.53125  105.340
 5586.00    1.51506   1.51615  106.517
 5587.00    1.50393   1.50220  105.713
 5588.00    1.50797   1.49245  103.898
 5589.00    1.51147   1.48881  102.323
 5590.00    1.52190   1.49129   -1.000
 5591.00    1.53203   1.49809   -1.000
 5592.00    1.52935   1.50672  101.678
 5593.00    1.53658   1.51500  100.378
 5594.00    1.55514   1.52167   -1.000
 5595.00    1.54745   1.52618   99.907
 5596.00    1.54823   1.52822  101.523
 5597.00    1.55522   1.52768   -1.000
 5598.00    1.53803   1.52495  102.982
 5599.00    1.53550   1.52106  103.379
 5600.00    1.53993   1.51777  103.924
 5601.00    1.54407   1.51715   -1.000
 5602.00    1.53258   1.52099  100.106
 5603.00    1.52260   1.53011   97.680
 5604.00    1.56199   1.54385   96.278
 5605.00    1.59161   1.56015   -1.000
 5606.00    1.60202   1.57630   95.967
 5607.00    1.61662   1.58992   -1.000
 5608.00    1.63171   1.59952   -1.000
 5609.00    1.61806   1.60449   95.870
 5610.00    1.62054   1.60459   96.143
 5611.00    1.61133   1.59967   97.799
 5612.00    1.58245   1.58990  100.937
 5613.00    1.56091   1.57644  103.608
 5614.00    1.55197   1.56185  103.473
 5615.00    1.54241   1.54962  101.260
 5616.00    1.54077   1.54277   99.585
 5617.00    1.56204   1.54251   99.124
 5618.00    1.59543   1.54766   -1.000
 5619.00    1.59927   1.55534   -1.000
 5620.00    1.57394   1.56246   98.473
 5621.00    1.55118   1.56680  100.108
 5622.00    1.55654   1.56777  102.045
 5623.00    1.58661   1.56634  102.129
 5624.00    1.60025   1.56449   -1.000
 5625.00    1.57809   1.56436   99.072
 5626.00    1.57748   1.56726   97.871
 5627.00    1.57396   1.57314   97.062
 5628.00    1.59306   1.58070   96.702
 5629.00    1.59673   1.58807   96.350
 5630.00    1.60247   1.59354   96.336
 5631.00    1.63000   1.59611   -1.000
 5632.00    1.63790   1.59565   -1.000
 5633.00    1.59893   1.59272   98.326
 5634.00    1.58240   1.58824   99.027
 5635.00    1.60753   1.58321   99.716
 5636.00    1.60680   1.57845   -1.000
 5637.00    1.59596   1.57452   99.769
 5638.00    1.58559   1.57163  100.010
 5639.00    1.58325   1.56981  100.141
 5640.00    1.59738   1.56899   -1.000
 5641.00    1.58630   1.56915   99.364
 5642.00    1.57063   1.57028   99.141
 5643.00    1.57948   1.57229   98.569
 5644.00    1.60231   1.57490   -1.000
 5645.00    1.59957   1.57769   97.941
 5646.00    1.59162   1.58020   97.771
 5647.00    1.60152   1.58209   97.932
 5648.00    1.60313   1.58324   97.990
 5649.00    1.60320   1.58370   97.364
 5650.00    1.59275   1.58354   96.971
 5651.00    1.58847   1.58257   97.229
 5652.00    1.59712   1.58029   97.944
 5653.00    1.59465   1.57606   98.866
 5654.00    1.56970   1.56940  100.571
 5655.00    1.58684   1.56046   -1.000
 5656.00    1.58706   1.55024   -1.000
 5657.00    1.56089   1.54053  104.617
 5658.00    1.54816   1.53336  102.392
 5659.00    1.54032   1.53016  101.593
 5660.00    1.56532   1.53129   -1.000
 5661.00    1.58174   1.53602   -1.000
 5662.00    1.58630   1.54300   -1.000
 5663.00    1.60229   1.55083   -1.000
 5664.00    1.59768   1.55832   -1.000
 5665.00    1.60549   1.56463   -1.000
 5666.00    1.59514   1.56936   -1.000
 5667.00    1.59859   1.57270   -1.000
 5668.00    1.60427   1.57534   -1.000
 5669.00    1.60094   1.57814   98.411
 5670.00    1.60864   1.58167   -1.000
 5671.00    1.63659   1.58595   -1.000
 5672.00    1.63812   1.59049   -1.000
 5673.00    1.63882   1.59464   -1.000
 5674.00    1.64237   1.59786   -1.000
 5675.00    1.64024   1.59982   -1.000
 5676.00    1.64839   1.60039   -1.000
 5677.00    1.62752   1.59938   -1.000
 5678.00    1.62145   1.59653   -1.000
 5679.00    1.60681   1.59170   98.614
 5680.00    1.60600   1.58512   99.802
 5681.00    1.61506   1.57756   -1.000
 5682.00    1.63336   1.57021   -1.000
 5683.00    1.63643   1.56422   -1.000
 5684.00    1.63405   1.56022   -1.000
 5685.00    1.63855   1.55819   -1.000
 5686.00    1.62907   1.55774   -1.000
 5687.00    1.63234   1.55867   -1.000
 5688.00    1.64363   1.56113   -1.000
 5689.00    1.63249   1.56541   -1.000
 5690.00    1.64250   1.57147   -1.000
 5691.00    1.65075   1.57868   -1.000
 5692.00    1.64365   1.58591   -1.000
 5693.00    1.63974   1.59200   -1.000
 5694.00    1.63011   1.59608   -1.000
 5695.00    1.62078   1.59771   97.730
 5696.00    1.62059   1.59684   -1.000
 5697.00    1.61951   1.59376   -1.000
 5698.00    1.59016   1.58906  100.814
 5699.00    1.57948   1.58358  101.401
 5700.00    1.58695   1.57828  100.854
 5701.00    1.59283   1.57391   99.819
 5702.00    1.57327   1.57066   99.420
 5703.00    1.54697   1.56798   99.943
 5704.00    1.56798   1.56480  101.248
 5705.00    1.57057   1.56008  103.080
 5706.00    1.56661   1.55341  104.760
 5707.00    1.56358   1.54542  105.547
 5708.00    1.55815   1.53773  105.428
 5709.00    1.55313   1.53247  104.474
 5710.00    1.53984   1.53150  102.490
 5711.00    1.53851   1.53571   99.995
 5712.00    1.55355   1.54464   98.284
 5713.00    1.58386   1.55665   -1.000
 5714.00    1.61313   1.56960   -1.000
 5715.00    1.63666   1.58166   -1.000
 5716.00    1.63282   1.59186   -1.000
 5717.00    1.62423   1.60013   -1.000
 5718.00    1.61472   1.60694   95.711
 5719.00    1.63426   1.61279   95.448
 5720.00    1.63465   1.61788   95.292
 5721.00    1.62531   1.62204   95.173
 5722.00    1.63197   1.62488   95.341
 5723.00    1.64592   1.62603   96.055
 5724.00    1.66188   1.62537   -1.000
 5725.00    1.65254   1.62319   -1.000
 5726.00    1.64314   1.62014   97.570
 5727.00    1.61774   1.61709   96.958
 5728.00    1.60778   1.61476   97.079
 5729.00    1.61613   1.61352   97.560
 5730.00    1.63673   1.61344   97.347
 5731.00    1.64144   1.61442   -1.000
 5732.00    1.64192   1.61632   -1.000
 5733.00    1.63447   1.61897   95.767
 5734.00    1.63316   1.62200   95.893
 5735.00    1.63345   1.62490   96.154
 5736.00    1.62251   1.62716   96.267
 5737.00    1.62874   1.62852   96.447
 5738.00    1.64211   1.62899   96.607
 5739.00    1.64440   1.62880   96.811
 5740.00    1.63391   1.62829   96.659
 5741.00    1.62870   1.62777   96.532
 5742.00    1.62229   1.62747   95.927
 5743.00    1.61692   1.62744   95.361
 5744.00    1.63647   1.62756   95.715
 5745.00    1.64693   1.62756   96.629
 5746.00    1.63215   1.62719   97.105
 5747.00    1.62557   1.62628   96.672
 5748.00    1.63628   1.62471   96.307
 5749.00    1.63874   1.62227   96.901
 5750.00    1.64270   1.61883   -1.000
 5751.00    1.63025   1.61466   99.070
 5752.00    1.62350   1.61064   99.211
 5753.00    1.63619   1.60813   -1.000
 5754.00    1.61359   1.60830   96.356
 5755.00    1.60177   1.61137   95.100
 5756.00    1.62479   1.61633   95.175
 5757.00    1.63812   1.62128   96.154
 5758.00    1.61721   1.62439   97.405
 5759.00    1.63458   1.62471   98.733
 5760.00    1.66905   1.62261   -1.000
 5761.00    1.64353   1.61964   -1.000
 5762.00    1.61497   1.61776   96.838
 5763.00    1.62652   1.61845   95.553
 5764.00    1.62780   1.62205   95.129
 5765.00    1.63220   1.62766   95.019
 5766.00    1.63492   1.63368   94.870
 5767.00    1.62750   1.63852   95.005
 5768.00    1.63317   1.64121   95.310
 5769.00    1.62659   1.64155   95.810
 5770.00    1.64701   1.63991   96.402
 5771.00    1.65601   1.63698   96.700
 5772.00    1.64302   1.63353   96.830
 5773.00    1.63416   1.63021   96.677
 5774.00    1.63887   1.62738   96.227
 5775.00    1.60433   1.62490   96.067
 5776.00    1.56844   1.62215   -1.000
 5777.00    1.55999   1.61831   -1.000
 5778.00    1.57049   1.61285   -1.000
 5779.00    1.55220   1.60591   -1.000
 5780.00    1.54231   1.59843   -1.000
 5781.00    1.56082   1.59180  100.784
 5782.00    1.59816   1.58728  100.417
 5783.00    1.61811   1.58561   -1.000
 5784.00    1.61356   1.58682   -1.000
 5785.00    1.62180   1.59043   -1.000
 5786.00    1.61559   1.59558   96.908
 5787.00    1.59470   1.60127   96.892
 5788.00    1.61966   1.60660   97.297
 5789.00    1.63913   1.61105   -1.000
 5790.00    1.64839   1.61469   -1.000
 5791.00    1.64774   1.61804   -1.000
 5792.00    1.62763   1.62166   95.252
 5793.00    1.61369   1.62570   95.106
 5794.00    1.61384   1.62980   95.588
 5795.00    1.62469   1.63338   96.208
 5796.00    1.63921   1.63610   95.919
 5797.00    1.65076   1.63810   94.789
 5798.00    1.64432   1.63983   93.484
 5799.00    1.65831   1.64169   93.097
 5800.00    1.68345   1.64362   -1.000
 5801.00    1.68801   1.64517   -1.000
 5802.00    1.67163   1.64579   -1.000
 5803.00    1.66768   1.64527   -1.000
 5804.00    1.64249   1.64396   95.625
 5805.00    1.64489   1.64257   95.273
 5806.00    1.66302   1.64184   94.975
 5807.00    1.67873   1.64213   -1.000
 5808.00    1.67310   1.64333   -1.000
 5809.00    1.68118   1.64498   -1.000
 5810.00    1.67420   1.64644   -1.000
 5811.00    1.67355   1.64717   -1.000
 5812.00    1.66333   1.64686   95.065
 5813.00    1.67511   1.64563   -1.000
 5814.00    1.69060   1.64402   -1.000
 5815.00    1.68846   1.64283   -1.000
 5816.00    1.66084   1.64283   94.025
 5817.00    1.65653   1.64439   93.557
 5818.00    1.67947   1.64729   -1.000
 5819.00    1.68128   1.65085   -1.000
 5820.00    1.69099   1.65429   -1.000
 5821.00    1.70204   1.65707   -1.000
 5822.00    1.69922   1.65904   -1.000
 5823.00    1.69138   1.66035   -1.000
 5824.00    1.69046   1.66127   -1.000
 5825.00    1.69461   1.66203   -1.000
 5826.00    1.70197   1.66274   -1.000
 5827.00    1.69756   1.66342   -1.000
 5828.00    1.71637   1.66396   -1.000
 5829.00    1.71430   1.66425   -1.000
 5830.00    1.69886   1.66416   -1.000
 5831.00    1.68594   1.66369   -1.000
 5832.00    1.69296   1.66294   -1.000
 5833.00    1.68577   1.66213   -1.000
 5834.00    1.68972   1.66155   -1.000
 5835.00    1.70021   1.66144   -1.000
 5836.00    1.69342   1.66189   -1.000
 5837.00    1.70605   1.66279   -1.000
 5838.00    1.72225   1.66390   -1.000
 5839.00    1.71844   1.66494   -1.000
 5840.00    1.70793   1.66564   -1.000
 5841.00    1.69989   1.66574   -1.000
 5842.00    1.68466   1.66501   93.180
 5843.00    1.67302   1.66333   93.770
 5844.00    1.67516   1.66080   94.264
 5845.00    1.68285   1.65769   -1.000
 5846.00    1.68776   1.65438   -1.000
 5847.00    1.70288   1.65112   -1.000
 5848.00    1.68785   1.64784   -1.000
 5849.00    1.66020   1.64418   95.902
 5850.00    1.68079   1.63969   -1.000
 5851.00    1.68073   1.63405   -1.000
 5852.00    1.66503   1.62727   -1.000
 5853.00    1.65882   1.61965   -1.000
 5854.00    1.65231   1.61164   -1.000
 5855.00    1.65137   1.60392   -1.000
 5856.00    1.65019   1.59742   -1.000
 5857.00    1.66941   1.59325   -1.000
 5858.00    1.67429   1.59239   -1.000
 5859.00    1.66905   1.59512   -1.000
 5860.00    1.66940   1.60080   -1.000
 5861.00    1.68043   1.60801   -1.000
 5862.00    1.65567   1.61513   -1.000
 5863.00    1.64570   1.62091   -1.000
 5864.00    1.65264   1.62486   -1.000
 5865.00    1.69491   1.62724   -1.000
 5866.00    1.72346   1.62887   -1.000
 5867.00    1.69354   1.63071   -1.000
 5868.00    1.68671   1.63338   -1.000
 5869.00    1.69656   1.63684   -1.000
 5870.00    1.70051   1.64039   -1.000
 5871.00    1.71783   1.64308   -1.000
 5872.00    1.71975   1.64423   -1.000
 5873.00    1.68495   1.64366   -1.000
 5874.00    1.70695   1.64170   -1.000
 5875.00    1.71750   1.63887   -1.000
 5876.00    1.68210   1.63561   -1.000
 5877.00    1.67193   1.63212   -1.000
 5878.00    1.67885   1.62837   -1.000
 5879.00    1.67624   1.62421   -1.000
 5880.00    1.66839   1.61941   -1.000
 5881.00    1.66317   1.61363   -1.000
 5882.00    1.64629   1.60631   -1.000
 5883.00    1.57958   1.59643   97.675
 5884.00    1.43409   1.58245   -1.000
 5885.00    1.10718   1.56267   -1.000
 5886.00    0.70698   1.53608   -1.000
 5887.00    0.85222   1.50366   -1.000
 5888.00    1.05210   1.46901   -1.000
 5889.00    1.45931   1.43756  115.609
 5890.00    1.85354   1.41438   -1.000
 5891.00    1.58327   1.40168   -1.000
 5892.00    1.08488   1.39805   -1.000
 5893.00    0.90521   1.39995   -1.000
 5894.00    1.11040   1.40451   -1.000
 5895.00    1.54363   1.41135   -1.000
 5896.00    1.67066   1.42230   -1.000
 5897.00    1.65206   1.43936   -1.000
 5898.00    1.67558   1.46278   -1.000
 5899.00    1.65918   1.49053   -1.000
 5900.00    1.66058   1.51918   -1.000
 5901.00    1.65856   1.54548   -1.000
 5902.00    1.66191   1.56729   -1.000
 5903.00    1.67352   1.58393   -1.000
 5904.00    1.68573   1.59586   -1.000
 5905.00    1.70296   1.60410   -1.000
 5906.00    1.70868   1.60979   -1.000
 5907.00    1.68608   1.61380   -1.000
 5908.00    1.67062   1.61652   -1.000
 5909.00    1.67781   1.61795   -1.000
 5910.00    1.66107   1.61785   -1.000
 5911.00    1.63629   1.61610   99.466
 5912.00    1.64834   1.61292   -1.000
 5913.00    1.67669   1.60903   -1.000
 5914.00    1.68359   1.60555   -1.000
 5915.00    1.69567   1.60355   -1.000
 5916.00    1.66883   1.60368   -1.000
 5917.00    1.65343   1.60588   -1.000
 5918.00    1.67418   1.60946   -1.000
 5919.00    1.68589   1.61348   -1.000
 5920.00    1.66769   1.61715   -1.000
 5921.00    1.68637   1.62011   -1.000
 5922.00    1.69789   1.62236   -1.000
 5923.00    1.68611   1.62409   -1.000
 5924.00    1.69723   1.62535   -1.000
 5925.00    1.70548   1.62594   -1.000
 5926.00    1.68766   1.62557   -1.000
 5927.00    1.68628   1.62415   -1.000
 5928.00    1.67892   1.62203   -1.000
 5929.00    1.65443   1.61995   -1.000
 5930.00    1.65281   1.61870   -1.000
 5931.00    1.68762   1.61873   -1.000
 5932.00    1.73019   1.61999   -1.000
 5933.00    1.70639   1.62214   -1.000
 5934.00    1.71139   1.62472   -1.000
 5935.00    1.68530   1.62739   -1.000
 5936.00    1.67685   1.62980   -1.000
 5937.00    1.66527   1.63156   -1.000
 5938.00    1.68495   1.63233   -1.000
 5939.00    1.67640   1.63200   -1.000
 5940.00    1.65617   1.63087   -1.000
 5941.00    1.70267   1.62952   -1.000
 5942.00    1.70171   1.62849   -1.000
 5943.00    1.68881   1.62799   -1.000
 5944.00    1.67614   1.62781   -1.000
 5945.00    1.68393   1.62751   -1.000
 5946.00    1.71421   1.62677   -1.000
 5947.00    1.68900   1.62555   -1.000
 5948.00    1.66911   1.62414   -1.000
 5949.00    1.65288   1.62291   -1.000
 5950.00    1.63093   1.62206   99.321
 5951.00    1.63674   1.62155   99.272
 5952.00    1.67157   1.62122   -1.000
 5953.00    1.69791   1.62093   -1.000
 5954.00    1.68882   1.62072   -1.000
 5955.00    1.67685   1.62086   -1.000
 5956.00    1.67696   1.62169   -1.000
 5957.00    1.67416   1.62358   -1.000
 5958.00    1.69542   1.62665   -1.000
 5959.00    1.71230   1.63061   -1.000
 5960.00    1.70516   1.63482   -1.000
 5961.00    1.69205   1.63847   -1.000
 5962.00    1.69117   1.64091   -1.000
 5963.00    1.69131   1.64195   -1.000
 5964.00    1.67030   1.64188   -1.000
 5965.00    1.66196   1.64132   97.923
 5966.00    1.67246   1.64099   -1.000
 5967.00    1.68735   1.64141   -1.000
 5968.00    1.69042   1.64270   -1.000
 5969.00    1.69271   1.64451   -1.000
 5970.00    1.71615   1.64620   -1.000
 5971.00    1.71560   1.64700   -1.000
 5972.00    1.68267   1.64632   -1.000
 5973.00    1.65997   1.64401   98.578
 5974.00    1.65872   1.64048   99.284
 5975.00    1.66532   1.63658   -1.000
 5976.00    1.67798   1.63333   -1.000
 5977.00    1.66720   1.63151   -1.000
 5978.00    1.67665   1.63122   -1.000
 5979.00    1.68435   1.63187   -1.000
 5980.00    1.68939   1.63244   -1.000
 5981.00    1.68708   1.63204   -1.000
 5982.00    1.67931   1.63040   -1.000
 5983.00    1.67372   1.62803   -1.000
 5984.00    1.69108   1.62597   -1.000
 5985.00    1.69025   1.62521   -1.000
 5986.00    1.67177   1.62621   -1.000
 5987.00    1.66243   1.62878   -1.000
 5988.00    1.68614   1.63226   -1.000
 5989.00    1.69446   1.63599   -1.000
 5990.00    1.67173   1.63952   -1.000
 5991.00    1.67495   1.64266   -1.000
 5992.00    1.67458   1.64530   -1.000
 5993.00    1.68381   1.64724   -1.000
 5994.00    1.68244   1.64819   -1.000
 5995.00    1.69004   1.64802   -1.000
 5996.00    1.70030   1.64684   -1.000
 5997.00    1.69553   1.64506   -1.000
 5998.00    1.71580   1.64317   -1.000
 5999.00    1.68958   1.64144   -1.000
 6000.00    1.66308   1.63989   -1.000
 6001.00    1.67764   1.63838   -1.000
 6002.00    1.65976   1.63671   -1.000
 6003.00    1.63659   1.63475   99.071
 6004.00    1.65361   1.63244   -1.000
 6005.00    1.67163   1.62990   -1.000
 6006.00    1.66729   1.62744   -1.000
 6007.00    1.65605   1.62562   -1.000
 6008.00    1.64951   1.62499   -1.000
 6009.00    1.65333   1.62577   -1.000
 6010.00    1.65785   1.62762   -1.000
 6011.00    1.65242   1.62977   -1.000
 6012.00    1.67859   1.63139   -1.000
 6013.00    1.67638   1.63203   -1.000
 6014.00    1.66322   1.63170   -1.000
 6015.00    1.65743   1.63063   -1.000
 6016.00    1.67232   1.62907   -1.000
 6017.00    1.68339   1.62718   -1.000
 6018.00    1.67213   1.62510   -1.000
 6019.00    1.68945   1.62310   -1.000
 6020.00    1.66719   1.62162   -1.000
 6021.00    1.64052   1.62117   99.466
 6022.00    1.66012   1.62222   -1.000
 6023.00    1.68914   1.62496   -1.000
 6024.00    1.70050   1.62929   -1.000
 6025.00    1.68839   1.63483   -1.000
 6026.00    1.67450   1.64100   -1.000
 6027.00    1.67848   1.64723   -1.000
 6028.00    1.68681   1.65304   -1.000
 6029.00    1.70284   1.65810   -1.000
 6030.00    1.69274   1.66232   -1.000
 6031.00    1.68566   1.66572   -1.000
 6032.00    1.70036   1.66837   -1.000
 6033.00    1.70088   1.67033   -1.000
 6034.00    1.70995   1.67160   -1.000
 6035.00    1.72023   1.67209   -1.000
 6036.00    1.72386   1.67173   -1.000
 6037.00    1.72880   1.67056   -1.000
 6038.00    1.71489   1.66877   -1.000
 6039.00    1.69193   1.66673   -1.000
 6040.00    1.69530   1.66497   -1.000
 6041.00    1.69626   1.66398   -1.000
 6042.00    1.70045   1.66415   -1.000
 6043.00    1.69855   1.66554   -1.000
 6044.00    1.68558   1.66797   96.060
 6045.00    1.68372   1.67102   95.908
 6046.00    1.69869   1.67421   -1.000
 6047.00    1.70730   1.67706   -1.000
 6048.00    1.71118   1.67917   -1.000
 6049.00    1.69584   1.68022   96.635
 6050.00    1.67999   1.67999   96.815
 6051.00    1.69999   1.67841   -1.000
 6052.00    1.69830   1.67566   -1.000
 6053.00    1.68342   1.67216   98.039
 6054.00    1.68791   1.66860   -1.000
 6055.00    1.68818   1.66572   -1.000
 6056.00    1.68657   1.66408   -1.000
 6057.00    1.67878   1.66377   97.186
 6058.00    1.67352   1.66434   97.274
 6059.00    1.67205   1.66492   97.495
 6060.00    1.61663   1.66454   -1.000
 6061.00    1.62065   1.66256  100.772
 6062.00    1.44866   1.65901   -1.000
 6063.00    0.65994   1.65470   -1.000
 6064.00    1.43894   1.65105   -1.000
 6065.00    1.63134   1.64947   74.327
 6066.00    1.61322   1.65088   99.953
 6067.00    1.49198   1.65521   -1.000
 6068.00    1.44448   1.66155   -1.000
 6069.00    0.49240   1.66852   -1.000
 6070.00    1.29933   1.67487   -1.000
 6071.00    1.70987   1.67979   -1.000
 6072.00    1.70484   1.68292   -1.000
 6073.00    1.69920   1.68418   96.746
 6074.00    1.69976   1.68368   97.244
 6075.00    1.69753   1.68155   97.800
 6076.00    1.71115   1.67810   -1.000
 6077.00    1.70344   1.67377   -1.000
 6078.00    1.66971   1.66914   99.243
 6079.00    1.68086   1.66475   99.329
 6080.00    1.67864   1.66099   -1.000
 6081.00    1.66746   1.65806   99.615
 6082.00    1.66961   1.65602   99.542
 6083.00    1.66365   1.65494   99.438
 6084.00    1.66423   1.65483   99.156
 6085.00    1.66000   1.65558   98.759
 6086.00    1.67048   1.65690   98.927
 6087.00    1.68371   1.65835   -1.000
 6088.00    1.67490   1.65955   99.949
 6089.00    1.65674   1.66035   99.917
 6090.00    1.66358   1.66093   99.296
 6091.00    1.66380   1.66171   98.792
 6092.00    1.66751   1.66306   98.235
 6093.00    1.66902   1.66511   97.803
 6094.00    1.67912   1.66760   97.820
 6095.00    1.69355   1.66989   -1.000
 6096.00    1.70516   1.67103   -1.000
 6097.00    1.69345   1.67005   -1.000
 6098.00    1.67504   1.66621   99.264
 6099.00    1.66439   1.65939  101.665
 6100.00    1.67038   1.65046   -1.000
 6101.00    1.65940   1.64127   -1.000
 6102.00    1.65029   1.63417  100.769
 6103.00    1.65299   1.63117   -1.000
 6104.00    1.66430   1.63311   -1.000
 6105.00    1.68379   1.63931   -1.000
 6106.00    1.67541   1.64804   -1.000
 6107.00    1.67029   1.65729   99.414
 6108.00    1.66945   1.66552   99.203
 6109.00    1.67107   1.67194   98.773
 6110.00    1.68770   1.67651   98.736
 6111.00    1.69564   1.67960   98.233
 6112.00    1.70125   1.68157   -1.000
 6113.00    1.69214   1.68263   98.338
 6114.00    1.66994   1.68271   98.985
 6115.00    1.66822   1.68147   99.144
 6116.00    1.67886   1.67841   99.610
 6117.00    1.66327   1.67300  101.024
 6118.00    1.64975   1.66503  102.349
 6119.00    1.66692   1.65492  103.338
 6120.00    1.65909   1.64390  103.454
 6121.00    1.63483   1.63394  101.835
 6122.00    1.63853   1.62709  100.502
 6123.00    1.64302   1.62478   -1.000
 6124.00    1.62547   1.62723  100.997
 6125.00    1.63956   1.63346  100.898
 6126.00    1.67855   1.64181   -1.000
 6127.00    1.67356   1.65064   -1.000
 6128.00    1.66589   1.65870   98.930
 6129.00    1.66886   1.66527   98.698
 6130.00    1.65423   1.66965   98.878
 6131.00    1.65544   1.67104   99.793
 6132.00    1.62998   1.66846  102.017
 6133.00    1.60906   1.66137   -1.000
 6134.00    1.60444   1.65014   -1.000
 6135.00    1.61937   1.63649  108.097
 6136.00    1.61955   1.62313  105.473
 6137.00    1.59691   1.61285  102.480
 6138.00    1.61232   1.60765  101.284
 6139.00    1.61572   1.60820  101.429
 6140.00    1.61296   1.61381  101.602
 6141.00    1.63390   1.62297  100.610
 6142.00    1.64803   1.63380   99.401
 6143.00    1.65118   1.64433   99.218
 6144.00    1.66523   1.65305   99.664
 6145.00    1.68976   1.65900   -1.000
 6146.00    1.68943   1.66184   -1.000
 6147.00    1.65127   1.66199  101.617
 6148.00    1.66478   1.66044  101.641
 6149.00    1.67513   1.65833   -1.000
 6150.00    1.66462   1.65653  100.572
 6151.00    1.65127   1.65531  100.433
 6152.00    1.65501   1.65441  101.267
 6153.00    1.67531   1.65322   -1.000
 6154.00    1.65362   1.65101  101.881
 6155.00    1.66976   1.64709   -1.000
 6156.00    1.65178   1.64081  103.372
 6157.00    1.64032   1.63156  105.333
 6158.00    1.62047   1.61912  108.516
 6159.00    1.62709   1.60395   -1.000
 6160.00    1.60678   1.58752   -1.000
 6161.00    1.61920   1.57229   -1.000
 6162.00    1.59758   1.56087   -1.000
 6163.00    1.58687   1.55506   -1.000
 6164.00    1.58835   1.55499   -1.000
 6165.00    1.60475   1.55916   -1.000
 6166.00    1.60298   1.56525   -1.000
 6167.00    1.61170   1.57129   -1.000
 6168.00    1.61398   1.57653   -1.000
 6169.00    1.61156   1.58152   -1.000
 6170.00    1.62977   1.58737   -1.000
 6171.00    1.64210   1.59480   -1.000
 6172.00    1.62854   1.60367   -1.000
 6173.00    1.61378   1.61318  104.267
 6174.00    1.63754   1.62220  104.068
 6175.00    1.66260   1.62991   -1.000
 6176.00    1.65135   1.63612  103.274
 6177.00    1.65666   1.64109  102.898
 6178.00    1.66282   1.64523  102.570
 6179.00    1.67523   1.64882   -1.000
 6180.00    1.66092   1.65194  101.832
 6181.00    1.64880   1.65436  102.034
 6182.00    1.65768   1.65568  102.394
 6183.00    1.66135   1.65546  103.213
 6184.00    1.64899   1.65338  104.346
 6185.00    1.62737   1.64929  105.424
 6186.00    1.63367   1.64335  106.427
 6187.00    1.65211   1.63604  107.197
 6188.00    1.64914   1.62821   -1.000
 6189.00    1.63699   1.62098  109.303
 6190.00    1.62342   1.61566  108.087
 6191.00    1.63626   1.61342   -1.000
 6192.00    1.62763   1.61482  103.674
 6193.00    1.61338   1.61952  103.034
 6194.00    1.62822   1.62634  102.882
 6195.00    1.64226   1.63369  103.557
 6196.00    1.63738   1.63999  104.769
 6197.00    1.63799   1.64433  105.621
 6198.00    1.63239   1.64690  105.519
 6199.00    1.62095   1.64849  104.443
 6200.00    1.62115   1.65013  103.126
 6201.00    1.65193   1.65261  102.845
 6202.00    1.66059   1.65618  102.854
 6203.00    1.64789   1.66055  102.677
 6204.00    1.66995   1.66506  102.675
 6205.00    1.68296   1.66883  103.079
 6206.00    1.66815   1.67117  103.064
 6207.00    1.64152   1.67156  103.527
 6208.00    1.65382   1.66967  104.485
 6209.00    1.66048   1.66538  105.297
 6210.00    1.62862   1.65886  106.335
 6211.00    1.62828   1.65065  107.969
 6212.00    1.64438   1.64166  109.048
 6213.00    1.62377   1.63299  109.329
 6214.00    1.57683   1.62561   -1.000
 6215.00    1.56607   1.62012   -1.000
 6216.00    1.58427   1.61666  108.205
 6217.00    1.59523   1.61506  107.784
 6218.00    1.57551   1.61499   -1.000
 6219.00    1.59264   1.61615  107.669
 6220.00    1.53243   1.61833   -1.000
 6221.00    1.51086   1.62118   -1.000
 6222.00    1.65668   1.62420   -1.000
 6223.00    1.66442   1.62666   -1.000
 6224.00    1.65721   1.62772   -1.000
 6225.00    1.64488   1.62665  107.112
 6226.00    1.62245   1.62311  108.589
 6227.00    1.62926   1.61741  110.401
 6228.00    1.64310   1.61036   -1.000
 6229.00    1.60859   1.60341  111.308
 6230.00    1.57847   1.59819  109.693
 6231.00    1.57196   1.59599  107.608
 6232.00    1.58759   1.59725  105.863
 6233.00    1.57961   1.60132  105.388
 6234.00    1.62631   1.60667  106.109
 6235.00    1.65145   1.61148   -1.000
 6236.00    1.66958   1.61437   -1.000
 6237.00    1.61219   1.61482  109.436
 6238.00    1.62280   1.61303  109.880
 6239.00    1.62657   1.60967  109.835
 6240.00    1.59676   1.60536  110.656
 6241.00    1.61119   1.60063  111.381
 6242.00    1.63850   1.59591   -1.000
 6243.00    1.65527   1.59178   -1.000
 6244.00    1.61066   1.58900   -1.000
 6245.00    1.61043   1.58827   -1.000
 6246.00    1.60947   1.58989  106.957
 6247.00    1.59203   1.59339  106.860
 6248.00    1.60853   1.59750  107.865
 6249.00    1.61088   1.60059  109.882
 6250.00    1.59718   1.60133  111.225
 6251.00    1.58851   1.59921  111.981
 6252.00    1.57111   1.59478  112.289
 6253.00    1.53870   1.58938   -1.000
 6254.00    1.53311   1.58458   -1.000
 6255.00    1.51820   1.58153   -1.000
 6256.00    1.57333   1.58085  113.781
 6257.00    1.61602   1.58262   -1.000
 6258.00    1.62713   1.58665   -1.000
 6259.00    1.62425   1.59262   -1.000
 6260.00    1.60584   1.60003  107.181
 6261.00    1.60181   1.60820  106.661
 6262.00    1.60989   1.61627  107.524
 6263.00    1.60711   1.62345  108.235
 6264.00    1.61461   1.62923  107.738
 6265.00    1.60745   1.63345  106.950
 6266.00    1.61762   1.63618  107.342
 6267.00    1.62350   1.63767  107.887
 6268.00    1.63375   1.63812  107.738
 6269.00    1.62353   1.63758  107.364
 6270.00    1.61182   1.63596  107.113
 6271.00    1.61133   1.63306  107.401
 6272.00    1.61627   1.62865  108.190
 6273.00    1.61275   1.62257  109.064
 6274.00    1.57193   1.61486   -1.000
 6275.00    1.52443   1.60604   -1.000
 6276.00    1.50724   1.59718   -1.000
 6277.00    1.49474   1.58971   -1.000
 6278.00    1.53841   1.58506   -1.000
 6279.00    1.51550   1.58412   -1.000
 6280.00    1.49326   1.58711   -1.000
 6281.00    1.50516   1.59352   -1.000
 6282.00    1.52401   1.60229   -1.000
 6283.00    1.54093   1.61212   -1.000
 6284.00    1.55402   1.62158   -1.000
 6285.00    1.58530   1.62949   -1.000
 6286.00    1.61773   1.63514  106.256
 6287.00    1.63444   1.63831  106.833
 6288.00    1.64689   1.63922  107.748
 6289.00    1.62819   1.63837  108.548
 6290.00    1.61898   1.63636  108.753
 6291.00    1.60413   1.63367  108.870
 6292.00    1.59704   1.63064  109.065
 6293.00    1.59315   1.62741  109.922
 6294.00    1.57711   1.62387   -1.000
 6295.00    1.58054   1.61990   -1.000
 6296.00    1.63364   1.61559   -1.000
 6297.00    1.72496   1.61129   -1.000
 6298.00    1.80538   1.60755   -1.000
 6299.00    1.88292   1.60509   -1.000
 6300.00    1.84853   1.60458   -1.000
 6301.00    1.70118   1.60644   -1.000
 6302.00    1.62099   1.61071  109.164
 6303.00    1.58041   1.61703  107.831
 6304.00    1.57196   1.62470   -1.000
 6305.00    1.60234   1.63267  105.938
 6306.00    1.65992   1.63971   -1.000
 6307.00    1.66410   1.64490   -1.000
 6308.00    1.65472   1.64793  106.982
 6309.00    1.63088   1.64885  107.388
 6310.00    1.61500   1.64790  107.832
 6311.00    1.59880   1.64539   -1.000
 6312.00    1.60288   1.64170  108.943
 6313.00    1.58979   1.63724   -1.000
 6314.00    1.58397   1.63262   -1.000
 6315.00    1.58870   1.62858   -1.000
 6316.00    1.58782   1.62589  109.296
 6317.00    1.59174   1.62525  108.885
 6318.00    1.57118   1.62701   -1.000
 6319.00    1.59262   1.63107  106.504
 6320.00    1.63913   1.63697  106.103
 6321.00    1.64935   1.64397  105.748
 6322.00    1.62959   1.65120  105.170
 6323.00    1.64262   1.65782  104.844
 6324.00    1.65690   1.66331  104.791
 6325.00    1.65495   1.66756  104.255
 6326.00    1.62096   1.67051   -1.000
 6327.00    1.61704   1.67218   -1.000
 6328.00    1.61589   1.67272   -1.000
 6329.00    1.65337   1.67227  104.122
 6330.00    1.69750   1.67081   -1.000
 6331.00    1.70619   1.66814   -1.000
 6332.00    1.62407   1.66418  104.504
 6333.00    1.60505   1.65922   -1.000
 6334.00    1.63208   1.65401  107.204
 6335.00    1.64218   1.64957  106.287
 6336.00    1.63469   1.64697  105.201
 6337.00    1.62869   1.64694  104.038
 6338.00    1.64983   1.64946  103.541
 6339.00    1.64821   1.65372  103.032
 6340.00    1.65298   1.65833  103.121
 6341.00    1.65533   1.66212  104.073
 6342.00    1.65639   1.66459  104.208
 6343.00    1.66246   1.66587  103.915
 6344.00    1.67021   1.66663  103.346
 6345.00    1.65146   1.66780  102.616
 6346.00    1.64199   1.67003  102.232
 6347.00    1.67630   1.67347  102.261
 6348.00    1.70628   1.67762   -1.000
 6349.00    1.68396   1.68158  102.133
 6350.00    1.66984   1.68441  102.580
 6351.00    1.67417   1.68536  103.051
 6352.00    1.64320   1.68417  104.255
 6353.00    1.64575   1.68117  105.151
 6354.00    1.65348   1.67694  105.185
 6355.00    1.63396   1.67209  105.497
 6356.00    1.65073   1.66718  106.723
 6357.00    1.64627   1.66256  107.165
 6358.00    1.64304   1.65845  106.720
 6359.00    1.64376   1.65491  106.379
 6360.00    1.66167   1.65216  106.284
 6361.00    1.71588   1.65050   -1.000
 6362.00    1.74513   1.65014   -1.000
 6363.00    1.76007   1.65109   -1.000
 6364.00    1.74368   1.65329   -1.000
 6365.00    1.69794   1.65649   -1.000
 6366.00    1.67881   1.66023   -1.000
 6367.00    1.67505   1.66400  102.361
 6368.00    1.67332   1.66745  102.440
 6369.00    1.67522   1.67052  102.086
 6370.00    1.69651   1.67326   -1.000
 6371.00    1.69715   1.67575   -1.000
 6372.00    1.67609   1.67801  102.038
 6373.00    1.66980   1.67986  102.261
 6374.00    1.67080   1.68088  102.645
 6375.00    1.63764   1.68070  103.171
 6376.00    1.61116   1.67925   -1.000
 6377.00    1.64282   1.67682  104.271
 6378.00    1.64685   1.67396  104.335
 6379.00    1.64008   1.67122  104.540
 6380.00    1.64075   1.66911  104.508
 6381.00    1.61650   1.66791   -1.000
 6382.00    1.61467   1.66775   -1.000
 6383.00    1.62548   1.66855  104.959
 6384.00    1.62278   1.67006   -1.000
 6385.00    1.64665   1.67186  105.192
 6386.00    1.67276   1.67338  105.530
 6387.00    1.63823   1.67403  106.418
 6388.00    1.60739   1.67337   -1.000
 6389.00    1.60014   1.67122   -1.000
 6390.00    1.58869   1.66791   -1.000
 6391.00    1.58260   1.66413   -1.000
 6392.00    1.58700   1.66068   -1.000
 6393.00    1.58423   1.65815   -1.000
 6394.00    1.55604   1.65687   -1.000
 6395.00    1.54953   1.65675   -1.000
 6396.00    1.53369   1.65719   -1.000
 6397.00    1.53540   1.65753   -1.000
 6398.00    1.53949   1.65746   -1.000
 6399.00    1.51374   1.65740   -1.000
 6400.00    1.49473   1.65818   -1.000
 6401.00    1.51143   1.66043   -1.000
 6402.00    1.51590   1.66409   -1.000
 6403.00    1.52245   1.66817   -1.000
 6404.00    1.53084   1.67135   -1.000
 6405.00    1.49225   1.67270   -1.000
 6406.00    1.47103   1.67215   -1.000
 6407.00    1.47002   1.67033   -1.000
 6408.00    1.45267   1.66816   -1.000
 6409.00    1.43406   1.66653   -1.000
 6410.00    1.42927   1.66599   -1.000
 6411.00    1.43180   1.66652   -1.000
 6412.00    1.41347   1.66773   -1.000
 6413.00    1.38511   1.66932   -1.000
 6414.00    1.39572   1.67096   -1.000
 6415.00    1.40720   1.67205   -1.000
 6416.00    1.36785   1.67208   -1.000
 6417.00    1.37391   1.67105   -1.000
 6418.00    1.37048   1.66955   -1.000
 6419.00    1.35849   1.66839   -1.000
 6420.00    1.35113   1.66844   -1.000
 6421.00    1.33653   1.67047   -1.000
 6422.00    1.32137   1.67467   -1.000
 6423.00    1.31051   1.68041   -1.000
 6424.00    1.30680   1.68648   -1.000
 6425.00    1.29690   1.69113   -1.000
 6426.00    1.29619   1.69311   -1.000
 6427.00    1.28448   1.69226   -1.000
 6428.00    1.24930   1.68901   -1.000
