###################################################################
## OUTPUT of StarlightChains_v04.for    [Cid@UFSC - 01/Apr/2007] ##
###################################################################

## Some input info
NGC6342_a_1.cxt                          [arq_obs]
Base.BC03.N                              [arq_base]
NGC6342_a_1.msk                          [arq_masks]
StCv04.C99.config                        [arq_config]
   45                                    [N_base]
    0                                    [N_YAV_components = # of components with extra extinction!]
    0                                    [i_FitPowerLaw (1/0 = Yes/No)]
-9.99                                    [alpha_PowerLaw]
CCM                                      [red_law_option]
 1.458241                                [q_norm = A(l_norm)/A(V)]

## (Re)Sampling Parameters
 3359.00                                 [l_ini (A)]
 6428.00                                 [l_fin (A)]
    1.00                                 [dl    (A)]     (OBS: dl_cushion =    50.00 A)

## Normalization info
 4020.00                                 [l_norm (A) - for base]
 4010.00                                 [llow_norm (A) - window for f_obs]
 4060.00                                 [lupp_norm (A) - window for f_obs]
2.158412E-15                             [fobs_norm (in input units)]

## S/N
 4730.00                                 [llow_SN (A) - window for S/N]
 4780.00                                 [lupp_SN (A) - window for S/N]
  41.172                                 [S/N in S/N window]
  28.335                                 [S/N in norm. window]
 118.442                                 [S/N_err in S/N window]
  81.514                                 [S/N_err in norm. window]
  1.0000                                 [fscale_chi2]

## etc...
  2147483615                             [idum_orig]
  3068                                   [NOl_eff]
  1020                                   [Nl_eff]
  2048    NSIGMA                         [Ntot_cliped & clip_method]
  1580880                                [Nglobal_steps]
   7                                     [N_chains]
  10                                     [NEX0s_base = N_base in EX0s-fits]
 0   0   1      115   2.0   8.706E+02    [Clip-Bug, RC-Crash & Burn-In warning-flags, n_censored_weights, wei_nsig_threshold & wei_limit]
    23     22.771     22.767      0.004  [idt_all, wdt_TotTime, wdt_UsrTime & wdt_SysTime (sec)]

## Synthesis Results - Best model ##

 2.83574E+00                             [chi2/Nl_eff]
     1.43472                             [adev (%)]

    97.44665                             [sum-of-x (%)]
 8.83795E-15                             [Flux_tot (units of input spectrum!)]
 2.03073E-10                             [Mini_tot (???)]
 1.05228E-10                             [Mcor_tot (???)]

   1.37                                  [v0_min  (km/s)]
  74.85                                  [vd_min  (km/s)]
 1.0688                                  [AV_min  (mag)]
 0.0000                                  [YAV_min (mag)]

# j     x_j(%)      Mini_j(%)     Mcor_j(%)     age_j(yr)     Z_j      (L/M)_j    YAV?  Mstars   component_j        a/Fe...       SSP_chi2r SSP_adev(%)   SSP_AV   SSP_x(%)
  1      0.0000     0.0000E+00    0.0000E+00    1.000000E+06  0.00400  1.114E-02    0   1.0000   age020_m42            0.0000     1.7951E+03    25.8264   4.0000    82.7434
  2      1.6611     1.8215E-03    3.5148E-03    3.160000E+06  0.00400  4.073E-02    0   0.9999   age045_m42            0.0000     1.1422E+02     8.3391   3.9881    86.0782
  3      0.0000     0.0000E+00    0.0000E+00    5.010000E+06  0.00400  2.534E-02    0   0.9488   age055_m42            0.0000     4.4302E+02    13.9874   4.0000    86.6100
  4      0.0000     0.0000E+00    0.0000E+00    1.000000E+07  0.00400  1.271E-02    0   0.8862   age070_m42            0.0000     1.9574E+02    11.4988   3.6172    82.4423
  5      0.0000     0.0000E+00    0.0000E+00    2.512000E+07  0.00400  5.070E-03    0   0.8174   age090_m42            0.0000     1.8081E+02    11.0394   3.4893    84.0083
  6      0.0000     0.0000E+00    0.0000E+00    4.000000E+07  0.00400  3.505E-03    0   0.7851   age104_m42            0.0000     1.3584E+02     9.4638   3.1668    87.5721
  7      0.0000     0.0000E+00    0.0000E+00    1.015200E+08  0.00400  2.268E-03    0   0.7207   age116_m42            0.0000     2.5176E+02     9.5257   2.9823   105.9102
  8      0.0000     0.0000E+00    0.0000E+00    2.861200E+08  0.00400  1.079E-03    0   0.6613   age125_m42            0.0000     2.6012E+02     9.4809   2.4862   108.2924
  9      0.0000     0.0000E+00    0.0000E+00    6.405400E+08  0.00400  5.077E-04    0   0.6197   age132_m42            0.0000     2.9159E+02     9.6924   2.0984   113.6342
 10      6.2842     7.9395E-01    9.2300E-01    9.047900E+08  0.00400  3.535E-04    0   0.6024   age135_m42            0.0000     1.8385E+02     7.9236   1.8906   111.4008
 11      0.0000     0.0000E+00    0.0000E+00    1.434000E+09  0.00400  1.910E-04    0   0.5716   age139_m42            0.0000     7.7422E+01     5.3320   1.4132   108.4144
 12      8.5346     3.8823E+00    4.0930E+00    2.500000E+09  0.00400  9.818E-05    0   0.5463   age150_m42            0.0000     1.1301E+01     2.2810   1.2012   100.9940
 13     62.7204     5.9372E+01    5.9902E+01    5.000000E+09  0.00400  4.718E-05    0   0.5228   age161_m42            0.0000     3.1190E+00     1.5090   1.0637    96.4080
 14     14.0133     2.8383E+01    2.7278E+01    1.100000E+10  0.00400  2.205E-05    0   0.4980   age185_m42            0.0000     1.4181E+01     2.7664   0.8158    94.1692
 15      0.0000     0.0000E+00    0.0000E+00    1.300000E+10  0.00400  1.883E-05    0   0.4927   age193_m42            0.0000     1.7685E+01     3.0480   0.8020    93.8962
 16      0.0000     0.0000E+00    0.0000E+00    1.000000E+06  0.02000  1.989E-02    0   1.0000   age020_m62            0.0000     1.6835E+03    24.9052   4.0000    83.3226
 17      0.0000     0.0000E+00    0.0000E+00    3.160000E+06  0.02000  3.772E-02    0   0.9858   age045_m62            0.0000     1.2968E+03    22.2579   4.0000    84.9169
 18      0.0000     0.0000E+00    0.0000E+00    5.010000E+06  0.02000  3.227E-02    0   0.9342   age055_m62            0.0000     2.3554E+02    11.2495   4.0000    87.8839
 19      0.0000     0.0000E+00    0.0000E+00    1.000000E+07  0.02000  1.011E-02    0   0.8751   age070_m62            0.0000     3.9205E+02    15.0255   3.7014    75.8578
 20      0.0000     0.0000E+00    0.0000E+00    2.512000E+07  0.02000  4.206E-03    0   0.8099   age090_m62            0.0000     3.0637E+02    13.2816   3.6375    77.0541
 21      0.0000     0.0000E+00    0.0000E+00    4.000000E+07  0.02000  3.373E-03    0   0.7799   age104_m62            0.0000     1.3361E+02     9.3980   3.3591    89.8034
 22      0.0000     0.0000E+00    0.0000E+00    1.015200E+08  0.02000  1.878E-03    0   0.7221   age116_m62            0.0000     2.0722E+02     9.0899   3.0404   104.5929
 23      0.0000     0.0000E+00    0.0000E+00    2.861200E+08  0.02000  8.869E-04    0   0.6700   age125_m62            0.0000     4.5044E+02    11.6407   2.4560   115.7663
 24      0.0000     0.0000E+00    0.0000E+00    6.405400E+08  0.02000  3.657E-04    0   0.6322   age132_m62            0.0000     2.9872E+02     9.6656   1.8115   118.1199
 25      0.0000     0.0000E+00    0.0000E+00    9.047900E+08  0.02000  2.312E-04    0   0.6152   age135_m62            0.0000     1.6481E+02     7.3072   1.4744   115.4251
 26      0.0000     0.0000E+00    0.0000E+00    1.434000E+09  0.02000  1.168E-04    0   0.5865   age139_m62            0.0000     3.5834E+01     3.6888   1.1382   105.8097
 27      0.0000     0.0000E+00    0.0000E+00    2.500000E+09  0.02000  5.505E-05    0   0.5610   age150_m62            0.0000     2.1159E+01     3.3732   0.7933   102.0816
 28      0.3655     6.2883E-01    6.4961E-01    5.000000E+09  0.02000  2.596E-05    0   0.5353   age161_m62            0.0000     5.0482E+01     5.3221   0.4586   102.7321
 29      0.2479     9.4714E-01    9.3274E-01    1.100000E+10  0.02000  1.169E-05    0   0.5103   age185_m62            0.0000     1.0386E+02     7.3819   0.0822   105.2057
 30      0.4968     2.2895E+00    2.2300E+00    1.300000E+10  0.02000  9.691E-06    0   0.5047   age193_m62            0.0000     1.1455E+02     7.6955   0.0344   105.5941
 31      0.0000     0.0000E+00    0.0000E+00    1.000000E+06  0.05000  2.651E-02    0   0.9998   age020_m72            0.0000     1.6594E+03    24.6068   4.0000    84.4618
 32      0.0000     0.0000E+00    0.0000E+00    3.160000E+06  0.05000  4.817E-02    0   0.9577   age045_m72            0.0000     8.5106E+02    18.5661   4.0000    88.0865
 33      0.0000     0.0000E+00    0.0000E+00    5.010000E+06  0.05000  3.101E-02    0   0.9147   age055_m72            0.0000     3.5310E+02    12.7531   4.0000    85.0765
 34      0.0000     0.0000E+00    0.0000E+00    1.000000E+07  0.05000  8.954E-03    0   0.8524   age070_m72            0.0000     6.4129E+02    16.1435   4.0000    87.6195
 35      0.0000     0.0000E+00    0.0000E+00    2.512000E+07  0.05000  4.207E-03    0   0.7902   age090_m72            0.0000     1.5259E+02     9.2996   4.0000    86.2435
 36      0.0000     0.0000E+00    0.0000E+00    4.000000E+07  0.05000  3.198E-03    0   0.7618   age104_m72            0.0000     1.3700E+02     8.1081   3.4715    97.5529
 37      0.0000     0.0000E+00    0.0000E+00    1.015200E+08  0.05000  1.716E-03    0   0.7092   age116_m72            0.0000     2.4914E+02     9.6338   3.1142   105.5352
 38      0.0000     0.0000E+00    0.0000E+00    2.861200E+08  0.05000  7.047E-04    0   0.6618   age125_m72            0.0000     4.4710E+02    11.4825   2.2550   116.4876
 39      0.0000     0.0000E+00    0.0000E+00    6.405400E+08  0.05000  2.633E-04    0   0.6253   age132_m72            0.0000     2.2992E+02     8.3343   1.4530   117.1012
 40      0.0000     0.0000E+00    0.0000E+00    9.047900E+08  0.05000  1.484E-04    0   0.6088   age135_m72            0.0000     7.6660E+01     5.1444   1.0395   108.7901
 41      0.0151     8.6226E-03    9.7296E-03    1.434000E+09  0.05000  7.827E-05    0   0.5847   age139_m72            0.0000     4.7110E+01     4.6821   0.6891   103.8081
 42      3.1077     3.6923E+00    3.9782E+00    2.500000E+09  0.05000  3.759E-05    0   0.5583   age150_m72            0.0000     6.2650E+01     5.8452   0.3799   102.6488
 43      0.0000     0.0000E+00    0.0000E+00    5.000000E+09  0.05000  1.548E-05    0   0.5320   age161_m72            0.0000     1.1410E+02     7.5315  -0.0396   103.0820
 44      0.0000     0.0000E+00    0.0000E+00    1.100000E+10  0.05000  6.532E-06    0   0.5070   age185_m72            0.0000     1.9799E+02     9.5326  -0.4451   104.9173
 45      0.0000     0.0000E+00    0.0000E+00    1.300000E+10  0.05000  5.316E-06    0   0.5018   age193_m72            0.0000     2.3949E+02    10.3682  -0.5746   105.8214


## Synthesis Results - Average & Chains ##

# j      x_j: min, <> & last-chain-values for 1 ...  7 chains
  1      0.0000      0.0230      0.0000      0.0000      0.0000      0.0000      0.0000      0.0000      0.0000
  2      1.6611      0.0889      0.1356      0.3889      0.4157      0.0000      0.5054      0.0000      0.0000
  3      0.0000      0.1568      0.4733      0.1376      0.1435      0.3572      0.1663      0.1504      0.1348
  4      0.0000      0.1792      0.1526      0.2365      0.1946      0.3297      0.2134      0.2917      0.5127
  5      0.0000      0.2628      0.0000      0.2724      0.2261      0.5665      0.2994      0.5928      0.3184
  6      0.0000      0.0300      0.0000      0.0000      0.0000      0.0000      0.0000      0.1191      0.0303
  7      0.0000      0.0610      0.0000      0.0132      0.0535      0.0000      0.0000      0.0000      0.0070
  8      0.0000      0.0366      0.0000      0.0061      0.0000      0.2290      0.0000      0.0000      0.1682
  9      0.0000      0.0785      0.0297      0.0000      0.2057      0.1090      0.1707      0.0241      0.0000
 10      6.2842      6.0101      5.8225      6.3767      5.9358      5.9172      6.0663      6.0445      5.8415
 11      0.0000      0.1388      0.5617      0.0381      0.1951      0.0000      0.1445      0.3450      0.0000
 12      8.5346     12.4657     12.9860     13.1585     11.6724     12.3274     12.0339     12.5754     12.3866
 13     62.7204     54.7737     55.4651     54.3301     56.3097     55.4927     55.1788     55.2636     55.9567
 14     14.0133     18.8184     17.4452     18.3595     17.1774     18.5969     19.1286     18.6416     18.5277
 15      0.0000      0.2282      0.0000      0.3953      0.0000      0.1986      0.0000      0.0000      0.0000
 16      0.0000      0.0527      0.3304      0.0586      0.0000      0.0000      0.1071      0.0000      0.0000
 17      0.0000      0.0172      0.0000      0.0000      0.0000      0.0000      0.0000      0.0000      0.0000
 18      0.0000      0.0870      0.0000      0.0740      0.0740      0.0000      0.0000      0.0382      0.2123
 19      0.0000      0.0750      0.0478      0.0750      0.2853      0.0402      0.0159      0.1491      0.0485
 20      0.0000      0.0277      0.0000      0.0000      0.0000      0.0000      0.0000      0.0000      0.0000
 21      0.0000      0.0392      0.0000      0.0000      0.0000      0.0000      0.0000      0.0055      0.0101
 22      0.0000      0.0317      0.0031      0.0000      0.0000      0.0370      0.0151      0.0000      0.0000
 23      0.0000      0.0137      0.0000      0.0068      0.0000      0.0000      0.0000      0.0000      0.0194
 24      0.0000      0.0211      0.0000      0.0000      0.0000      0.0000      0.0000      0.0000      0.0000
 25      0.0000      0.0231      0.0000      0.0000      0.0000      0.0000      0.0000      0.0000      0.0245
 26      0.0000      0.0770      0.0000      0.0000      0.0000      0.0000      0.0696      0.0000      0.0000
 27      0.0000      0.3212      0.0000      0.0000      0.0000      0.1710      0.0000      0.0000      0.1040
 28      0.3655      0.7185      0.5444      0.5004      0.8028      0.7715      1.4044      0.9220      1.3749
 29      0.2479      0.3113      0.0000      0.7220      0.4460      0.0000      0.3398      0.3229      0.2636
 30      0.4968      0.6238      0.6453      0.8558      0.6465      0.9278      0.5501      0.4745      0.5153
 31      0.0000      0.0299      0.0000      0.0000      0.0000      0.0557      0.0000      0.0000      0.0000
 32      0.0000      0.0360      0.0000      0.0000      0.0000      0.0000      0.0047      0.0322      0.0000
 33      0.0000      0.0614      0.0000      0.1375      0.0000      0.0000      0.0505      0.0000      0.0304
 34      0.0000      0.0281      0.0000      0.0000      0.1443      0.0000      0.0000      0.0000      0.0220
 35      0.0000      0.0330      0.0000      0.0896      0.0000      0.0000      0.0000      0.0000      0.0000
 36      0.0000      0.0256      0.0000      0.0000      0.0000      0.0021      0.0000      0.0000      0.0000
 37      0.0000      0.0200      0.1807      0.0409      0.0054      0.0149      0.0000      0.0107      0.0128
 38      0.0000      0.0170      0.0000      0.0000      0.0000      0.0000      0.0000      0.0000      0.0000
 39      0.0000      0.0209      0.0000      0.0000      0.0000      0.0000      0.0000      0.0000      0.0000
 40      0.0000      0.0669      0.0000      0.0281      0.0223      0.0000      0.0000      0.0000      0.0000
 41      0.0151      0.2718      0.4564      0.0000      0.5242      0.1754      0.0290      0.3333      0.0455
 42      3.1077      0.8889      2.1588      1.1580      1.8509      1.0348      0.9407      1.1206      0.8577
 43      0.0000      0.0858      0.0000      0.0224      0.1304      0.0000      0.0000      0.0000      0.0215
 44      0.0000      0.0233      0.0000      0.0000      0.0000      0.0000      0.0000      0.0000      0.0000
 45      0.0000      0.0618      0.0000      0.0000      0.0000      0.0471      0.0000      0.0000      0.0000

# j      m_j: min, <> & last-chain-values for 1 ...  7 chains
  1  0.0000E+00  1.7054E-04  0.0000E+00  0.0000E+00  0.0000E+00  0.0000E+00  0.0000E+00  0.0000E+00  0.0000E+00
  2  3.5148E-03  1.8053E-04  2.8380E-04  7.8515E-04  8.5506E-04  0.0000E+00  1.0266E-03  0.0000E+00  0.0000E+00
  3  0.0000E+00  4.8556E-04  1.5110E-03  4.2380E-04  4.5005E-04  1.1088E-03  5.1518E-04  4.7236E-04  4.2101E-04
  4  0.0000E+00  1.0333E-03  9.0705E-04  1.3560E-03  1.1368E-03  1.9057E-03  1.2315E-03  1.7066E-03  2.9811E-03
  5  0.0000E+00  3.5044E-03  0.0000E+00  3.6121E-03  3.0536E-03  7.5706E-03  3.9943E-03  8.0183E-03  4.2800E-03
  6  0.0000E+00  5.5583E-04  0.0000E+00  0.0000E+00  0.0000E+00  0.0000E+00  0.0000E+00  2.2384E-03  5.6674E-04
  7  0.0000E+00  1.6039E-03  0.0000E+00  3.4499E-04  1.4238E-03  0.0000E+00  0.0000E+00  0.0000E+00  1.8586E-04
  8  0.0000E+00  1.8532E-03  0.0000E+00  3.0857E-04  0.0000E+00  1.1633E-02  0.0000E+00  0.0000E+00  8.5967E-03
  9  0.0000E+00  7.9284E-03  3.0950E-03  0.0000E+00  2.1031E-02  1.1029E-02  1.7240E-02  2.4638E-03  0.0000E+00
 10  9.2300E-01  8.4710E-01  8.4592E-01  8.9374E-01  8.4745E-01  8.3589E-01  8.5543E-01  8.6424E-01  8.3005E-01
 11  0.0000E+00  3.4359E-02  1.4332E-01  9.3841E-03  4.8910E-02  0.0000E+00  3.5785E-02  8.6619E-02  0.0000E+00
 12  4.0930E+00  5.7370E+00  6.1604E+00  6.0219E+00  5.4413E+00  5.6861E+00  5.5409E+00  5.8710E+00  5.7471E+00
 13  5.9902E+01  5.0200E+01  5.2399E+01  4.9515E+01  5.2276E+01  5.0974E+01  5.0596E+01  5.1380E+01  5.1703E+01
 14  2.7278E+01  3.5153E+01  3.3591E+01  3.4104E+01  3.2502E+01  3.4818E+01  3.5749E+01  3.5325E+01  3.4892E+01
 15  0.0000E+00  4.9392E-01  0.0000E+00  8.5065E-01  0.0000E+00  4.3087E-01  0.0000E+00  0.0000E+00  0.0000E+00
 16  0.0000E+00  2.1895E-04  1.4160E-03  2.4216E-04  0.0000E+00  0.0000E+00  4.4537E-04  0.0000E+00  0.0000E+00
 17  0.0000E+00  3.7147E-05  0.0000E+00  0.0000E+00  0.0000E+00  0.0000E+00  0.0000E+00  0.0000E+00  0.0000E+00
 18  0.0000E+00  2.0833E-04  0.0000E+00  1.7623E-04  1.7937E-04  0.0000E+00  0.0000E+00  9.2743E-05  5.1254E-04
 19  0.0000E+00  5.3673E-04  3.5264E-04  5.3359E-04  2.0687E-03  2.8809E-04  1.1408E-04  1.0828E-03  3.4989E-04
 20  0.0000E+00  4.4112E-04  0.0000E+00  0.0000E+00  0.0000E+00  0.0000E+00  0.0000E+00  0.0000E+00  0.0000E+00
 21  0.0000E+00  7.4970E-04  0.0000E+00  0.0000E+00  0.0000E+00  0.0000E+00  0.0000E+00  1.0581E-04  1.9378E-04
 22  0.0000E+00  1.0076E-03  1.0061E-04  0.0000E+00  0.0000E+00  1.1791E-03  4.7919E-04  0.0000E+00  0.0000E+00
 23  0.0000E+00  8.5533E-04  0.0000E+00  4.2228E-04  0.0000E+00  0.0000E+00  0.0000E+00  0.0000E+00  1.2234E-03
 24  0.0000E+00  3.0117E-03  0.0000E+00  0.0000E+00  0.0000E+00  0.0000E+00  0.0000E+00  0.0000E+00  0.0000E+00
 25  0.0000E+00  5.0921E-03  0.0000E+00  0.0000E+00  0.0000E+00  0.0000E+00  0.0000E+00  0.0000E+00  5.4352E-03
 26  0.0000E+00  3.1996E-02  0.0000E+00  0.0000E+00  0.0000E+00  0.0000E+00  2.8908E-02  0.0000E+00  0.0000E+00
 27  0.0000E+00  2.7074E-01  0.0000E+00  0.0000E+00  0.0000E+00  1.4448E-01  0.0000E+00  0.0000E+00  8.8398E-02
 28  6.4961E-01  1.2255E+00  9.5709E-01  8.4874E-01  1.3869E+00  1.3188E+00  2.3964E+00  1.5951E+00  2.3640E+00
 29  9.3274E-01  1.1240E+00  0.0000E+00  2.5920E+00  1.6310E+00  0.0000E+00  1.2276E+00  1.1825E+00  9.5956E-01
 30  2.2300E+00  2.6869E+00  2.8653E+00  3.6659E+00  2.8206E+00  4.0055E+00  2.3706E+00  2.0736E+00  2.2377E+00
 31  0.0000E+00  9.3297E-05  0.0000E+00  0.0000E+00  0.0000E+00  1.7426E-04  0.0000E+00  0.0000E+00  0.0000E+00
 32  0.0000E+00  5.9126E-05  0.0000E+00  0.0000E+00  0.0000E+00  0.0000E+00  7.6569E-06  5.3716E-05  0.0000E+00
 33  0.0000E+00  1.4978E-04  0.0000E+00  3.3365E-04  0.0000E+00  0.0000E+00  1.2327E-04  0.0000E+00  7.4833E-05
 34  0.0000E+00  2.2120E-04  0.0000E+00  0.0000E+00  1.1510E-03  0.0000E+00  0.0000E+00  0.0000E+00  1.7497E-04
 35  0.0000E+00  5.1301E-04  0.0000E+00  1.3843E-03  0.0000E+00  0.0000E+00  0.0000E+00  0.0000E+00  0.0000E+00
 36  0.0000E+00  5.0353E-04  0.0000E+00  0.0000E+00  0.0000E+00  4.1975E-05  0.0000E+00  0.0000E+00  0.0000E+00
 37  0.0000E+00  6.8325E-04  6.3687E-03  1.3909E-03  1.8721E-04  5.1041E-04  0.0000E+00  3.7058E-04  4.3952E-04
 38  0.0000E+00  1.3234E-03  0.0000E+00  0.0000E+00  0.0000E+00  0.0000E+00  0.0000E+00  0.0000E+00  0.0000E+00
 39  0.0000E+00  4.0993E-03  0.0000E+00  0.0000E+00  0.0000E+00  0.0000E+00  0.0000E+00  0.0000E+00  0.0000E+00
 40  0.0000E+00  2.2713E-02  0.0000E+00  9.4958E-03  7.6534E-03  0.0000E+00  0.0000E+00  0.0000E+00  0.0000E+00
 41  9.7296E-03  1.6795E-01  2.9067E-01  0.0000E+00  3.2806E-01  1.0863E-01  1.7916E-02  2.0890E-01  2.8324E-02
 42  3.9782E+00  1.0919E+00  2.7336E+00  1.4146E+00  2.3031E+00  1.2741E+00  1.1561E+00  1.3965E+00  1.0623E+00
 43  0.0000E+00  2.4401E-01  0.0000E+00  6.3249E-02  3.7537E-01  0.0000E+00  0.0000E+00  0.0000E+00  6.1593E-02
 44  0.0000E+00  1.4939E-01  0.0000E+00  0.0000E+00  0.0000E+00  0.0000E+00  0.0000E+00  0.0000E+00  0.0000E+00
 45  0.0000E+00  4.8221E-01  0.0000E+00  0.0000E+00  0.0000E+00  3.6837E-01  0.0000E+00  0.0000E+00  0.0000E+00

# AV, chi2 & Mass for <> & i_chain = 1 ...  7 solutions
AV       1.0688      1.0625      1.0672      1.0642      1.0621      1.0651      1.0628      1.0645      1.0630
chi2 2.8357E+00  2.8644E+00  2.8535E+00  2.8539E+00  2.8522E+00  2.8570E+00  2.8555E+00  2.8554E+00  2.8560E+00
Mass 1.0523E-10  1.0872E-10  1.0615E-10  1.0959E-10  1.0728E-10  1.0886E-10  1.0872E-10  1.0747E-10  1.0792E-10
   1.10                                  [v0_min (km/s) before EX0s...]
  75.18                                  [vd_min (km/s) before EX0s...]


## Synthetic spectrum (Best Model) ##l_obs f_obs f_syn wei
 3070    [Nl_obs]
 3359.00    0.17202   0.36509   -1.000
 3360.00    0.19475   0.33513   -1.000
 3361.00    0.20915   0.33006   -1.000
 3362.00    0.17931   0.35314   -1.000
 3363.00    0.19022   0.39010   -1.000
 3364.00    0.16368   0.41960   -1.000
 3365.00    0.20155   0.42810   -1.000
 3366.00    0.25227   0.41508   -1.000
 3367.00    0.23252   0.39035   -1.000
 3368.00    0.20804   0.36778   -1.000
 3369.00    0.21429   0.35450   -1.000
 3370.00    0.20145   0.34817   -1.000
 3371.00    0.18906   0.34493   -1.000
 3372.00    0.20634   0.34691   -1.000
 3373.00    0.22727   0.36075   -1.000
 3374.00    0.23553   0.38830   -1.000
 3375.00    0.25722   0.42193   -1.000
 3376.00    0.28201   0.44453   -1.000
 3377.00    0.29999   0.44288   -1.000
 3378.00    0.30344   0.42081   -1.000
 3379.00    0.29107   0.39380   -1.000
 3380.00    0.30034   0.37819   -1.000
 3381.00    0.31077   0.38137   -1.000
 3382.00    0.28340   0.39835   -1.000
 3383.00    0.26834   0.41693   -1.000
 3384.00    0.26314   0.43108   -1.000
 3385.00    0.27277   0.44226   -1.000
 3386.00    0.29822   0.44895   -1.000
 3387.00    0.31689   0.44902   -1.000
 3388.00    0.28701   0.44568   -1.000
 3389.00    0.25544   0.44235   -1.000
 3390.00    0.27849   0.43747   -1.000
 3391.00    0.31796   0.42773   -1.000
 3392.00    0.29031   0.41469   -1.000
 3393.00    0.26731   0.40801   -1.000
 3394.00    0.30226   0.41631   -1.000
 3395.00    0.36702   0.43742   -1.000
 3396.00    0.39477   0.46281   -1.000
 3397.00    0.39068   0.48509   -1.000
 3398.00    0.34415   0.49841   -1.000
 3399.00    0.36860   0.49979   -1.000
 3400.00    0.42750   0.49135   -1.000
 3401.00    0.41195   0.47728   -1.000
 3402.00    0.39877   0.46109   -1.000
 3403.00    0.38023   0.44756   -1.000
 3404.00    0.34395   0.43989   -1.000
 3405.00    0.33269   0.43515   -1.000
 3406.00    0.34161   0.42874   -1.000
 3407.00    0.34933   0.42141   -1.000
 3408.00    0.30788   0.41854   -1.000
 3409.00    0.33977   0.42385   -1.000
 3410.00    0.38618   0.43314   -1.000
 3411.00    0.38344   0.43680   -1.000
 3412.00    0.37309   0.43025   -1.000
 3413.00    0.38577   0.41868   -1.000
 3414.00    0.35450   0.41215   -1.000
 3415.00    0.34616   0.41606   -1.000
 3416.00    0.37343   0.42894   -1.000
 3417.00    0.41549   0.44628   -1.000
 3418.00    0.41445   0.46497   -1.000
 3419.00    0.45669   0.48148   -1.000
 3420.00    0.44280   0.49018   -1.000
 3421.00    0.42695   0.48791   -1.000
 3422.00    0.44678   0.47848   -1.000
 3423.00    0.45211   0.46875   -1.000
 3424.00    0.44303   0.46416   -1.000
 3425.00    0.44682   0.46531   -1.000
 3426.00    0.45512   0.47082   -1.000
 3427.00    0.41247   0.48210   -1.000
 3428.00    0.43235   0.49992   -1.000
 3429.00    0.45142   0.51546   -1.000
 3430.00    0.46914   0.51769   -1.000
 3431.00    0.46568   0.50456   -1.000
 3432.00    0.43273   0.48551   -1.000
 3433.00    0.42068   0.47279   -1.000
 3434.00    0.44765   0.47183   -1.000
 3435.00    0.46093   0.47814   -1.000
 3436.00    0.42434   0.48102   -1.000
 3437.00    0.41284   0.47343   -1.000
 3438.00    0.42016   0.45340   -1.000
 3439.00    0.41158   0.42354  264.325
 3440.00    0.37102   0.39041   -1.000
 3441.00    0.33087   0.36603   -1.000
 3442.00    0.32034   0.35928   -1.000
 3443.00    0.33953   0.36775   -1.000
 3444.00    0.38881   0.38358  242.398
 3445.00    0.41445   0.40239   -1.000
 3446.00    0.41551   0.42500  292.127
 3447.00    0.42736   0.45145   -1.000
 3448.00    0.43960   0.47648   -1.000
 3449.00    0.45158   0.49213   -1.000
 3450.00    0.45627   0.49297   -1.000
 3451.00    0.44181   0.48036   -1.000
 3452.00    0.43139   0.46296   -1.000
 3453.00    0.44854   0.45334  870.568
 3454.00    0.47012   0.45634   -1.000
 3455.00    0.45498   0.46534   -1.000
 3456.00    0.45539   0.46861   -1.000
 3457.00    0.48493   0.45959   -1.000
 3458.00    0.46564   0.44361   -1.000
 3459.00    0.45895   0.42793   -1.000
 3460.00    0.42504   0.41691  288.594
 3461.00    0.41493   0.41713  870.568
 3462.00    0.41391   0.43152   -1.000
 3463.00    0.44031   0.45014   -1.000
 3464.00    0.45979   0.46079  870.568
 3465.00    0.43858   0.46197   -1.000
 3466.00    0.48296   0.46137   -1.000
 3467.00    0.51752   0.46715   -1.000
 3468.00    0.51908   0.47848   -1.000
 3469.00    0.50839   0.48896   -1.000
 3470.00    0.48437   0.49296   -1.000
 3471.00    0.48859   0.48768  870.568
 3472.00    0.46594   0.47284   -1.000
 3473.00    0.44647   0.45034  637.558
 3474.00    0.42302   0.42440  222.820
 3475.00    0.38094   0.40567   -1.000
 3476.00    0.40435   0.40464  294.845
 3477.00    0.42103   0.42105  870.568
 3478.00    0.42056   0.44506   -1.000
 3479.00    0.45905   0.46600   -1.000
 3480.00    0.47033   0.47732   -1.000
 3481.00    0.49402   0.47812   -1.000
 3482.00    0.50316   0.47143   -1.000
 3483.00    0.48473   0.46316   -1.000
 3484.00    0.49635   0.46131   -1.000
 3485.00    0.47801   0.47129   -1.000
 3486.00    0.51228   0.48797   -1.000
 3487.00    0.55040   0.49534   -1.000
 3488.00    0.50779   0.48414   -1.000
 3489.00    0.47347   0.46098   -1.000
 3490.00    0.46590   0.44157   -1.000
 3491.00    0.47513   0.43596   -1.000
 3492.00    0.51046   0.44068   -1.000
 3493.00    0.52483   0.44604   -1.000
 3494.00    0.49060   0.44460   -1.000
 3495.00    0.44092   0.43695   -1.000
 3496.00    0.46297   0.43199   -1.000
 3497.00    0.46025   0.44044   -1.000
 3498.00    0.44330   0.46208   -1.000
 3499.00    0.48385   0.48265   -1.000
 3500.00    0.53842   0.49308   -1.000
 3501.00    0.50681   0.49780   -1.000
 3502.00    0.50828   0.50280   -1.000
 3503.00    0.51041   0.50737   -1.000
 3504.00    0.52791   0.50553   -1.000
 3505.00    0.54126   0.49722   -1.000
 3506.00    0.50585   0.48968   -1.000
 3507.00    0.51096   0.48685   -1.000
 3508.00    0.50436   0.48558   -1.000
 3509.00    0.48277   0.48054   -1.000
 3510.00    0.49969   0.47114   -1.000
 3511.00    0.49893   0.46121   -1.000
 3512.00    0.51230   0.45188   -1.000
 3513.00    0.48366   0.44334   -1.000
 3514.00    0.44302   0.44318  870.568
 3515.00    0.45798   0.45817  870.568
 3516.00    0.48671   0.48447   -1.000
 3517.00    0.51043   0.50860  870.568
 3518.00    0.52305   0.51701   -1.000
 3519.00    0.57795   0.50684   -1.000
 3520.00    0.55155   0.48477   -1.000
 3521.00    0.49053   0.46179   -1.000
 3522.00    0.44761   0.44238   -1.000
 3523.00    0.46345   0.42397   -1.000
 3524.00    0.46085   0.40842   -1.000
 3525.00    0.42816   0.40259   -1.000
 3526.00    0.44195   0.41295   -1.000
 3527.00    0.45663   0.43890   -1.000
 3528.00    0.45790   0.46951   -1.000
 3529.00    0.46270   0.49167   -1.000
 3530.00    0.48228   0.49998   -1.000
 3531.00    0.50853   0.49901   -1.000
 3532.00    0.50353   0.49814   -1.000
 3533.00    0.50169   0.50337  870.568
 3534.00    0.52384   0.51245   -1.000
 3535.00    0.56135   0.51957   -1.000
 3536.00    0.53659   0.52366   -1.000
 3537.00    0.52297   0.52894   -1.000
 3538.00    0.53899   0.53734  870.568
 3539.00    0.54459   0.54389  870.568
 3540.00    0.53847   0.54273   -1.000
 3541.00    0.53013   0.53773   -1.000
 3542.00    0.53474   0.53746  870.568
 3543.00    0.52433   0.54281   -1.000
 3544.00    0.53667   0.54900   -1.000
 3545.00    0.53857   0.55038   -1.000
 3546.00    0.52668   0.54622   -1.000
 3547.00    0.54517   0.54129   -1.000
 3548.00    0.55721   0.53980   -1.000
 3549.00    0.56807   0.54210   -1.000
 3550.00    0.56597   0.54450   -1.000
 3551.00    0.54757   0.54231   -1.000
 3552.00    0.53225   0.53365  870.568
 3553.00    0.53172   0.52320   -1.000
 3554.00    0.52793   0.51734   -1.000
 3555.00    0.53925   0.51820   -1.000
 3556.00    0.50580   0.52163   -1.000
 3557.00    0.49300   0.52116   -1.000
 3558.00    0.49191   0.51647   -1.000
 3559.00    0.50373   0.51386   -1.000
 3560.00    0.49252   0.51944   -1.000
 3561.00    0.46839   0.53218   -1.000
 3562.00    0.49399   0.54074   -1.000
 3563.00    0.52107   0.52975   -1.000
 3564.00    0.51630   0.49541   -1.000
 3565.00    0.49928   0.45829   -1.000
 3566.00    0.44213   0.43867  226.869
 3567.00    0.43668   0.43454  228.329
 3568.00    0.40064   0.43104   -1.000
 3569.00    0.42069   0.41921  235.753
 3570.00    0.42833   0.40842   -1.000
 3571.00    0.44757   0.41172   -1.000
 3572.00    0.45118   0.42635   -1.000
 3573.00    0.45419   0.44155   -1.000
 3574.00    0.46625   0.45082   -1.000
 3575.00    0.46478   0.45531   -1.000
 3576.00    0.46663   0.45857   -1.000
 3577.00    0.46422   0.45827   -1.000
 3578.00    0.46389   0.44799   -1.000
 3579.00    0.44540   0.42597   -1.000
 3580.00    0.41023   0.40029   -1.000
 3581.00    0.39342   0.38282   -1.000
 3582.00    0.39136   0.37924   -1.000
 3583.00    0.41501   0.38300   -1.000
 3584.00    0.45894   0.38102   -1.000
 3585.00    0.41577   0.37151   -1.000
 3586.00    0.37200   0.36489  263.179
 3587.00    0.39167   0.37012   -1.000
 3588.00    0.42305   0.38922   -1.000
 3589.00    0.45200   0.41776   -1.000
 3590.00    0.45358   0.44927   -1.000
 3591.00    0.46721   0.47542   -1.000
 3592.00    0.48961   0.48978  193.812
 3593.00    0.50093   0.49454  189.598
 3594.00    0.50134   0.49951  182.460
 3595.00    0.53311   0.51210   -1.000
 3596.00    0.57700   0.52907   -1.000
 3597.00    0.59065   0.54452   -1.000
 3598.00    0.60762   0.55625   -1.000
 3599.00    0.59910   0.56153   -1.000
 3600.00    0.59320   0.55584   -1.000
 3601.00    0.60000   0.53707   -1.000
 3602.00    0.57686   0.51029   -1.000
 3603.00    0.54931   0.48593   -1.000
 3604.00    0.50169   0.47283   -1.000
 3605.00    0.48159   0.47124  195.461
 3606.00    0.49837   0.47198   -1.000
 3607.00    0.52285   0.46631   -1.000
 3608.00    0.48172   0.45463   -1.000
 3609.00    0.45607   0.44746  204.236
 3610.00    0.47761   0.45387   -1.000
 3611.00    0.49283   0.46823   -1.000
 3612.00    0.50071   0.48146   -1.000
 3613.00    0.50275   0.49307  182.731
 3614.00    0.51521   0.50557  178.314
 3615.00    0.51367   0.51502  183.442
 3616.00    0.51694   0.50769  200.199
 3617.00    0.50384   0.47797   55.669
 3618.00    0.47966   0.44711   30.552
 3619.00    0.44971   0.43938  198.219
 3620.00    0.44699   0.45763  182.738
 3621.00    0.46800   0.48703   -1.000
 3622.00    0.52021   0.51229  170.926
 3623.00    0.55691   0.52942   -1.000
 3624.00    0.56147   0.54575  160.862
 3625.00    0.60653   0.56817   -1.000
 3626.00    0.65453   0.59260   -1.000
 3627.00    0.65483   0.60805   -1.000
 3628.00    0.62949   0.60077   -1.000
 3629.00    0.57599   0.56504  191.787
 3630.00    0.51539   0.51592  203.238
 3631.00    0.50706   0.47828   -1.000
 3632.00    0.49588   0.46735   -1.000
 3633.00    0.48723   0.47825  189.717
 3634.00    0.47806   0.49546   -1.000
 3635.00    0.48349   0.50857   -1.000
 3636.00    0.52274   0.51908  168.608
 3637.00    0.55218   0.53461  161.674
 3638.00    0.57959   0.55611   -1.000
 3639.00    0.59584   0.57659   -1.000
 3640.00    0.57087   0.58515  163.803
 3641.00    0.59124   0.57653  170.472
 3642.00    0.60698   0.55524   -1.000
 3643.00    0.56666   0.53131   -1.000
 3644.00    0.52004   0.51361  185.835
 3645.00    0.49100   0.50303  188.868
 3646.00    0.49721   0.49484  191.234
 3647.00    0.50113   0.48884  189.499
 3648.00    0.49239   0.48888  183.397
 3649.00    0.50110   0.49734  175.421
 3650.00    0.53732   0.51435   -1.000
 3651.00    0.59792   0.53774   -1.000
 3652.00    0.63139   0.56155   -1.000
 3653.00    0.59713   0.58034  156.324
 3654.00    0.60310   0.59208  155.375
 3655.00    0.64395   0.60005   -1.000
 3656.00    0.64910   0.60942   -1.000
 3657.00    0.63708   0.61936  150.006
 3658.00    0.65087   0.62614   -1.000
 3659.00    0.65418   0.62843   -1.000
 3660.00    0.65689   0.62587   -1.000
 3661.00    0.63886   0.61807   -1.000
 3662.00    0.60335   0.60677  156.524
 3663.00    0.56936   0.59575   -1.000
 3664.00    0.59967   0.58976  155.359
 3665.00    0.64377   0.58938   -1.000
 3666.00    0.65785   0.58962   -1.000
 3667.00    0.63340   0.58450   -1.000
 3668.00    0.59261   0.57367   -1.000
 3669.00    0.57085   0.56694  161.221
 3670.00    0.59388   0.57273   -1.000
 3671.00    0.61741   0.58844   -1.000
 3672.00    0.63836   0.60356   -1.000
 3673.00    0.65818   0.60978   -1.000
 3674.00    0.65838   0.60595   -1.000
 3675.00    0.66040   0.59348   -1.000
 3676.00    0.64718   0.57536   -1.000
 3677.00    0.60412   0.55622   -1.000
 3678.00    0.56338   0.54025   -1.000
 3679.00    0.56170   0.53143   -1.000
 3680.00    0.56673   0.53087   -1.000
 3681.00    0.57818   0.53784   -1.000
 3682.00    0.57350   0.54875   -1.000
 3683.00    0.57495   0.55581   -1.000
 3684.00    0.59139   0.55106   -1.000
 3685.00    0.58384   0.53319   -1.000
 3686.00    0.54223   0.51334   -1.000
 3687.00    0.51293   0.50554  173.034
 3688.00    0.53258   0.51689  161.463
 3689.00    0.58551   0.54385   -1.000
 3690.00    0.60882   0.57490   -1.000
 3691.00    0.62433   0.59537   -1.000
 3692.00    0.62994   0.59932   -1.000
 3693.00    0.62246   0.59352   -1.000
 3694.00    0.60656   0.58623   -1.000
 3695.00    0.62394   0.58158   -1.000
 3696.00    0.63889   0.58262   -1.000
 3697.00    0.64019   0.59310   -1.000
 3698.00    0.67274   0.61265   -1.000
 3699.00    0.70444   0.63295   -1.000
 3700.00    0.72173   0.64162   -1.000
 3701.00    0.72847   0.62888   -1.000
 3702.00    0.66158   0.59329   -1.000
 3703.00    0.59094   0.54651   -1.000
 3704.00    0.54229   0.50427   -1.000
 3705.00    0.55637   0.48016   -1.000
 3706.00    0.54405   0.47655   -1.000
 3707.00    0.53393   0.48461   -1.000
 3708.00    0.54855   0.49584   -1.000
 3709.00    0.54630   0.50758   -1.000
 3710.00    0.57584   0.52198   -1.000
 3711.00    0.61695   0.54403   -1.000
 3712.00    0.63082   0.57577   -1.000
 3713.00    0.69086   0.60960   -1.000
 3714.00    0.71768   0.63488   -1.000
 3715.00    0.70064   0.64405   -1.000
 3716.00    0.70809   0.63432   -1.000
 3717.00    0.69796   0.60586   -1.000
 3718.00    0.62088   0.55879   -1.000
 3719.00    0.52582   0.49812   52.228
 3720.00    0.48919   0.44584   32.691
 3721.00    0.46008   0.42418   -1.000
 3722.00    0.46309   0.44008   -1.000
 3723.00    0.52844   0.48395   -1.000
 3724.00    0.61427   0.53414   -1.000
 3725.00    0.63548   0.56682   -1.000
 3726.00    0.61760   0.57582   -1.000
 3727.00    0.61043   0.57520   -1.000
 3728.00    0.61813   0.57711   -1.000
 3729.00    0.65957   0.57899   -1.000
 3730.00    0.66883   0.56891   -1.000
 3731.00    0.62478   0.53675   -1.000
 3732.00    0.56822   0.48616   22.692
 3733.00    0.49507   0.43113   24.768
 3734.00    0.42772   0.38855   24.861
 3735.00    0.41757   0.37270   23.172
 3736.00    0.45195   0.38878   32.210
 3737.00    0.48292   0.43121   -1.000
 3738.00    0.50422   0.48889  169.305
 3739.00    0.57218   0.54435   -1.000
 3740.00    0.64198   0.58066   -1.000
 3741.00    0.65286   0.59045   -1.000
 3742.00    0.61184   0.57646   -1.000
 3743.00    0.60641   0.54709   -1.000
 3744.00    0.59001   0.51432   -1.000
 3745.00    0.52002   0.48560   50.881
 3746.00    0.49646   0.45905   22.617
 3747.00    0.46281   0.42976   23.638
 3748.00    0.42016   0.40027   35.439
 3749.00    0.42752   0.38829   -1.000
 3750.00    0.45704   0.40883   -1.000
 3751.00    0.51128   0.45850   -1.000
 3752.00    0.58186   0.52083   -1.000
 3753.00    0.63364   0.57976   -1.000
 3754.00    0.68422   0.62132   -1.000
 3755.00    0.69792   0.63464   -1.000
 3756.00    0.66481   0.61593   -1.000
 3757.00    0.60523   0.57719   -1.000
 3758.00    0.57386   0.54161   -1.000
 3759.00    0.58639   0.52794   -1.000
 3760.00    0.58565   0.53621   -1.000
 3761.00    0.59147   0.55179   -1.000
 3762.00    0.60793   0.56398   -1.000
 3763.00    0.61678   0.57095   -1.000
 3764.00    0.63895   0.57196   -1.000
 3765.00    0.64197   0.56529   -1.000
 3766.00    0.61185   0.55258   -1.000
 3767.00    0.58806   0.53767   -1.000
 3768.00    0.59539   0.52312   -1.000
 3769.00    0.59111   0.51140   -1.000
 3770.00    0.57500   0.50786   -1.000
 3771.00    0.58136   0.52074   -1.000
 3772.00    0.63115   0.55020   -1.000
 3773.00    0.67102   0.58245   -1.000
 3774.00    0.69736   0.60549   -1.000
 3775.00    0.69158   0.61997   -1.000
 3776.00    0.68741   0.63193   -1.000
 3777.00    0.69085   0.64670   -1.000
 3778.00    0.70155   0.66519   -1.000
 3779.00    0.72451   0.68470   -1.000
 3780.00    0.72273   0.70146  138.453
 3781.00    0.74019   0.71301   -1.000
 3782.00    0.76448   0.71932   -1.000
 3783.00    0.75802   0.71810   -1.000
 3784.00    0.74567   0.70376   -1.000
 3785.00    0.71966   0.67491   -1.000
 3786.00    0.66355   0.64018   -1.000
 3787.00    0.63629   0.61107   -1.000
 3788.00    0.63072   0.59442   -1.000
 3789.00    0.61394   0.58985   -1.000
 3790.00    0.60347   0.59196  167.262
 3791.00    0.61423   0.59214   -1.000
 3792.00    0.62449   0.58237   -1.000
 3793.00    0.60378   0.56175   -1.000
 3794.00    0.57402   0.53469   -1.000
 3795.00    0.56431   0.50587   -1.000
 3796.00    0.56204   0.47629   -1.000
 3797.00    0.54482   0.44964   -1.000
 3798.00    0.52788   0.44147   -1.000
 3799.00    0.54790   0.46516   -1.000
 3800.00    0.57187   0.51399   -1.000
 3801.00    0.61125   0.57129   -1.000
 3802.00    0.65533   0.61993   -1.000
 3803.00    0.66930   0.64994  154.437
 3804.00    0.67768   0.66013  158.252
 3805.00    0.67311   0.65403   -1.000
 3806.00    0.62268   0.64233   -1.000
 3807.00    0.60521   0.64155   -1.000
 3808.00    0.64303   0.65788  153.634
 3809.00    0.68669   0.68155  153.860
 3810.00    0.69445   0.69579  159.040
 3811.00    0.69210   0.68898  168.275
 3812.00    0.67126   0.66200  178.640
 3813.00    0.62326   0.62440  188.348
 3814.00    0.57241   0.59086   -1.000
 3815.00    0.55768   0.57526   -1.000
 3816.00    0.58444   0.57967  183.811
 3817.00    0.59924   0.58896  190.942
 3818.00    0.60896   0.58583   -1.000
 3819.00    0.60145   0.56692   -1.000
 3820.00    0.55136   0.54694  200.534
 3821.00    0.51765   0.54205   -1.000
 3822.00    0.56339   0.54674   -1.000
 3823.00    0.58357   0.54308   49.566
 3824.00    0.53957   0.52410   23.045
 3825.00    0.48593   0.49886   23.253
 3826.00    0.47568   0.48029   22.970
 3827.00    0.47329   0.47276   22.593
 3828.00    0.48918   0.47217   22.486
 3829.00    0.50593   0.47035   23.076
 3830.00    0.50792   0.46080   24.461
 3831.00    0.45743   0.44074   25.956
 3832.00    0.41973   0.41303   26.190
 3833.00    0.42615   0.38500   25.424
 3834.00    0.42500   0.36773   24.581
 3835.00    0.43647   0.36625   24.483
 3836.00    0.44860   0.37530   25.052
 3837.00    0.43864   0.38640   25.223
 3838.00    0.42385   0.39758   24.332
 3839.00    0.42310   0.41529   36.603
 3840.00    0.44451   0.44762  204.116
 3841.00    0.48123   0.49303  187.317
 3842.00    0.55446   0.54230  179.010
 3843.00    0.61893   0.58434   -1.000
 3844.00    0.62206   0.61205  177.166
 3845.00    0.61504   0.62886  177.244
 3846.00    0.63234   0.64191  179.227
 3847.00    0.63981   0.65211  184.779
 3848.00    0.61649   0.65478   -1.000
 3849.00    0.59993   0.65164   -1.000
 3850.00    0.61220   0.65054   -1.000
 3851.00    0.62248   0.65652   -1.000
 3852.00    0.64591   0.66629   -1.000
 3853.00    0.66121   0.66935  190.823
 3854.00    0.62736   0.66006   -1.000
 3855.00    0.59720   0.64358   -1.000
 3856.00    0.56595   0.62462   45.868
 3857.00    0.54158   0.60319   22.188
 3858.00    0.53820   0.58214   22.795
 3859.00    0.51982   0.57096   35.349
 3860.00    0.50698   0.58052   -1.000
 3861.00    0.53420   0.60989   -1.000
 3862.00    0.60352   0.64585   -1.000
 3863.00    0.65627   0.66995  175.548
 3864.00    0.67393   0.67646  178.737
 3865.00    0.66894   0.67378  181.755
 3866.00    0.64635   0.66988   -1.000
 3867.00    0.64008   0.66748   -1.000
 3868.00    0.61239   0.66324   -1.000
 3869.00    0.57257   0.65033   -1.000
 3870.00    0.53446   0.62698   -1.000
 3871.00    0.54194   0.60031   -1.000
 3872.00    0.56281   0.58488   -1.000
 3873.00    0.57518   0.59101  172.172
 3874.00    0.62370   0.61553  170.786
 3875.00    0.65522   0.63682   -1.000
 3876.00    0.64535   0.63604  194.195
 3877.00    0.59756   0.61665   -1.000
 3878.00    0.56591   0.59674   -1.000
 3879.00    0.57301   0.58862   -1.000
 3880.00    0.56644   0.58971   -1.000
 3881.00    0.54825   0.59131   -1.000
 3882.00    0.56107   0.58902   -1.000
 3883.00    0.59167   0.58237  174.915
 3884.00    0.60562   0.56788   -1.000
 3885.00    0.59684   0.54041   -1.000
 3886.00    0.55761   0.50220   -1.000
 3887.00    0.54624   0.46904   -1.000
 3888.00    0.56242   0.45561   -1.000
 3889.00    0.55606   0.46956   -1.000
 3890.00    0.58188   0.50721   -1.000
 3891.00    0.63742   0.55463   -1.000
 3892.00    0.67569   0.59120   -1.000
 3893.00    0.69779   0.60792   -1.000
 3894.00    0.69524   0.61358   -1.000
 3895.00    0.70085   0.62167   -1.000
 3896.00    0.73984   0.63636   -1.000
 3897.00    0.75722   0.65017   -1.000
 3898.00    0.76506   0.65752   -1.000
 3899.00    0.73764   0.66198   -1.000
 3900.00    0.72917   0.66889   -1.000
 3901.00    0.74915   0.67613   -1.000
 3902.00    0.73984   0.67690   -1.000
 3903.00    0.69872   0.66751   -1.000
 3904.00    0.66367   0.65370  158.714
 3905.00    0.66785   0.64726   -1.000
 3906.00    0.69442   0.65637   -1.000
 3907.00    0.72974   0.68118   -1.000
 3908.00    0.75659   0.71371   -1.000
 3909.00    0.77007   0.74093   -1.000
 3910.00    0.79205   0.75793   -1.000
 3911.00    0.81726   0.76718   -1.000
 3912.00    0.81309   0.77001   -1.000
 3913.00    0.79637   0.76639   -1.000
 3914.00    0.78036   0.75807  140.371
 3915.00    0.76385   0.74741  142.170
 3916.00    0.77040   0.73643   -1.000
 3917.00    0.78735   0.72400   -1.000
 3918.00    0.77388   0.70745   -1.000
 3919.00    0.74982   0.68796   -1.000
 3920.00    0.72788   0.67048   -1.000
 3921.00    0.68653   0.66240   -1.000
 3922.00    0.68257   0.66560  160.678
 3923.00    0.70335   0.67216   -1.000
 3924.00    0.68061   0.66952  176.636
 3925.00    0.64791   0.64985  195.762
 3926.00    0.62228   0.61297   48.400
 3927.00    0.57418   0.56197   25.852
 3928.00    0.51919   0.50299   30.288
 3929.00    0.44241   0.44073   35.602
 3930.00    0.36016   0.37570   41.949
 3931.00    0.30406   0.31294   47.698
 3932.00    0.26251   0.26035   49.168
 3933.00    0.23730   0.23098   44.929
 3934.00    0.23729   0.23501   38.051
 3935.00    0.27446   0.27217   31.341
 3936.00    0.33386   0.33203   26.028
 3937.00    0.40091   0.40342   38.782
 3938.00    0.47613   0.47348  202.638
 3939.00    0.53446   0.53326  191.168
 3940.00    0.56496   0.57802  186.466
 3941.00    0.59450   0.60486  185.546
 3942.00    0.62106   0.61735  181.179
 3943.00    0.61389   0.62404  168.374
 3944.00    0.60980   0.63492   -1.000
 3945.00    0.65850   0.65431  149.846
 3946.00    0.71452   0.67547   -1.000
 3947.00    0.73939   0.69039   -1.000
 3948.00    0.75517   0.70067   -1.000
 3949.00    0.75445   0.71160   -1.000
 3950.00    0.76226   0.72133   -1.000
 3951.00    0.80046   0.72594   -1.000
 3952.00    0.80992   0.72814   -1.000
 3953.00    0.79302   0.73204   -1.000
 3954.00    0.78026   0.73499   -1.000
 3955.00    0.78773   0.73045   -1.000
 3956.00    0.79341   0.72031   -1.000
 3957.00    0.77656   0.71303   -1.000
 3958.00    0.76017   0.70755   -1.000
 3959.00    0.74815   0.69107   -1.000
 3960.00    0.72109   0.65492   -1.000
 3961.00    0.66162   0.60506   -1.000
 3962.00    0.61513   0.55716   44.837
 3963.00    0.57143   0.51682   24.388
 3964.00    0.49288   0.47479   29.236
 3965.00    0.41690   0.41940   35.978
 3966.00    0.34725   0.34896   42.172
 3967.00    0.29118   0.28352   43.019
 3968.00    0.27682   0.24551   37.626
 3969.00    0.28504   0.24570   30.932
 3970.00    0.30615   0.28133   25.641
 3971.00    0.35410   0.34116   38.817
 3972.00    0.45313   0.41008   -1.000
 3973.00    0.55307   0.47964   -1.000
 3974.00    0.60666   0.54518   -1.000
 3975.00    0.67938   0.60340   -1.000
 3976.00    0.74472   0.65466   -1.000
 3977.00    0.77014   0.69954   -1.000
 3978.00    0.80306   0.74027   -1.000
 3979.00    0.83505   0.77226   -1.000
 3980.00    0.85932   0.78943   -1.000
 3981.00    0.87146   0.79229   -1.000
 3982.00    0.86168   0.78974   -1.000
 3983.00    0.85901   0.79192   -1.000
 3984.00    0.86218   0.80144   -1.000
 3985.00    0.88711   0.81430   -1.000
 3986.00    0.91507   0.82814   -1.000
 3987.00    0.91695   0.84260   -1.000
 3988.00    0.91145   0.85594   -1.000
 3989.00    0.92382   0.86653   -1.000
 3990.00    0.94308   0.87548   -1.000
 3991.00    0.93475   0.88566   -1.000
 3992.00    0.93805   0.89573   -1.000
 3993.00    0.95126   0.89903   -1.000
 3994.00    0.92818   0.89123   -1.000
 3995.00    0.89321   0.87503  119.068
 3996.00    0.87187   0.85921  118.280
 3997.00    0.88952   0.85343   -1.000
 3998.00    0.91038   0.86197   -1.000
 3999.00    0.93411   0.88118   -1.000
 4000.00    0.95990   0.90461   -1.000
 4001.00    0.96917   0.92262   -1.000
 4002.00    0.99352   0.92606   -1.000
 4003.00    0.98689   0.91023   -1.000
 4004.00    0.94001   0.88001   -1.000
 4005.00    0.90783   0.85169   -1.000
 4006.00    0.89653   0.84649   -1.000
 4007.00    0.90238   0.86784   -1.000
 4008.00    0.93807   0.90021   -1.000
 4009.00    0.97620   0.92664   -1.000
 4010.00    0.98312   0.94087   -1.000
 4011.00    0.99199   0.94624   -1.000
 4012.00    0.99695   0.94829   -1.000
 4013.00    0.97870   0.95056  104.345
 4014.00    0.98903   0.95287   -1.000
 4015.00    1.01833   0.95330   -1.000
 4016.00    1.01502   0.95199   -1.000
 4017.00    0.99947   0.95207   -1.000
 4018.00    0.97331   0.95686  103.726
 4019.00    0.99378   0.96418  104.624
 4020.00    1.02547   0.96968   -1.000
 4021.00    1.03024   0.97043   -1.000
 4022.00    1.02124   0.96765   -1.000
 4023.00    1.00557   0.96381   -1.000
 4024.00    1.00000   0.96231   -1.000
 4025.00    0.99999   0.96827  100.070
 4026.00    1.01245   0.98195   99.488
 4027.00    1.02935   0.99391   -1.000
 4028.00    1.04685   0.98863   -1.000
 4029.00    1.01785   0.96090   -1.000
 4030.00    0.96969   0.92184   -1.000
 4031.00    0.93692   0.88739   -1.000
 4032.00    0.90994   0.86993   -1.000
 4033.00    0.90758   0.87230   -1.000
 4034.00    0.95144   0.89240   -1.000
 4035.00    1.01250   0.92578   -1.000
 4036.00    1.05581   0.96690   -1.000
 4037.00    1.07752   1.00384   -1.000
 4038.00    1.07203   1.02223   -1.000
 4039.00    1.06900   1.01880   -1.000
 4040.00    1.06310   1.00563   -1.000
 4041.00    1.04702   0.99231   -1.000
 4042.00    1.04546   0.97358   -1.000
 4043.00    1.01851   0.93791   -1.000
 4044.00    0.91350   0.88768  125.931
 4045.00    0.82885   0.85155   -1.000
 4046.00    0.86313   0.85335  107.527
 4047.00    0.96660   0.89041   -1.000
 4048.00    1.00863   0.94131   -1.000
 4049.00    1.00215   0.98273  100.542
 4050.00    1.04538   1.00369   -1.000
 4051.00    1.06858   1.00511   -1.000
 4052.00    1.01701   0.99293  107.260
 4053.00    0.98346   0.97491  108.507
 4054.00    0.97143   0.95980  109.293
 4055.00    0.96504   0.94947  110.235
 4056.00    0.97746   0.94142   -1.000
 4057.00    0.97838   0.93835   -1.000
 4058.00    0.96716   0.94543  104.382
 4059.00    0.97577   0.96116  104.252
 4060.00    1.00515   0.97136   -1.000
 4061.00    1.01171   0.95877   -1.000
 4062.00    0.96906   0.92468   -1.000
 4063.00    0.91029   0.88824  115.904
 4064.00    0.89279   0.87053  111.572
 4065.00    0.91765   0.87580   -1.000
 4066.00    0.94815   0.89522   -1.000
 4067.00    0.96590   0.91952   -1.000
 4068.00    1.00788   0.94075   -1.000
 4069.00    1.05716   0.94766   -1.000
 4070.00    1.03619   0.93528   -1.000
 4071.00    0.97413   0.91555   -1.000
 4072.00    0.95501   0.90691   -1.000
 4073.00    0.95951   0.91306   -1.000
 4074.00    0.97633   0.91693   -1.000
 4075.00    0.98600   0.90293   -1.000
 4076.00    0.95514   0.87660   -1.000
 4077.00    0.90841   0.85722   -1.000
 4078.00    0.88979   0.86186  107.861
 4079.00    0.93267   0.89126   -1.000
 4080.00    1.00014   0.93089   -1.000
 4081.00    1.06659   0.95745   -1.000
 4082.00    1.07681   0.95985   -1.000
 4083.00    1.02292   0.94593   -1.000
 4084.00    0.98489   0.93433   -1.000
 4085.00    0.97834   0.93956   -1.000
 4086.00    1.01459   0.96174   -1.000
 4087.00    1.06896   0.99018   -1.000
 4088.00    1.07362   1.01017   -1.000
 4089.00    1.05216   1.01374   -1.000
 4090.00    1.04886   1.00340   -1.000
 4091.00    1.05583   0.98855   -1.000
 4092.00    1.04854   0.97574   -1.000
 4093.00    1.03063   0.96314   -1.000
 4094.00    1.01475   0.94554   -1.000
 4095.00    0.99318   0.92043   -1.000
 4096.00    0.97170   0.89170   -1.000
 4097.00    0.95672   0.86170   -1.000
 4098.00    0.94831   0.82601   -1.000
 4099.00    0.90792   0.77839   -1.000
 4100.00    0.81713   0.72393   -1.000
 4101.00    0.76272   0.68525   -1.000
 4102.00    0.78519   0.68428   -1.000
 4103.00    0.82763   0.72345   -1.000
 4104.00    0.88035   0.78567   -1.000
 4105.00    0.94323   0.84414   -1.000
 4106.00    0.99843   0.88382   -1.000
 4107.00    1.02695   0.90591   -1.000
 4108.00    1.01873   0.91570   -1.000
 4109.00    1.00568   0.91992   -1.000
 4110.00    0.99513   0.92551   -1.000
 4111.00    0.98381   0.93550   -1.000
 4112.00    0.99970   0.94983   -1.000
 4113.00    1.02200   0.96732   -1.000
 4114.00    1.03526   0.98602   -1.000
 4115.00    1.05346   0.99961   -1.000
 4116.00    1.05076   1.00254   -1.000
 4117.00    1.04426   0.99487   -1.000
 4118.00    1.03037   0.98288   -1.000
 4119.00    0.99682   0.97392  108.247
 4120.00    0.99175   0.97243  107.776
 4121.00    1.00354   0.97695  107.239
 4122.00    0.99689   0.98362  105.660
 4123.00    1.00141   0.99146  104.564
 4124.00    1.02051   0.99986  105.162
 4125.00    1.02197   1.00499  107.067
 4126.00    1.00848   1.00260  108.657
 4127.00    1.00210   0.99483  109.345
 4128.00    0.98369   0.98748  110.326
 4129.00    0.98047   0.98145  112.833
 4130.00    0.98715   0.97035  116.452
 4131.00    0.97133   0.95123  118.363
 4132.00    0.95546   0.93300  116.353
 4133.00    0.93931   0.92892  111.325
 4134.00    0.95418   0.94566  106.722
 4135.00    1.00429   0.97728  104.214
 4136.00    1.03116   1.01236  102.588
 4137.00    1.04601   1.04082  101.619
 4138.00    1.06311   1.05942  102.550
 4139.00    1.06066   1.06474  106.434
 4140.00    1.05477   1.05069  113.892
 4141.00    1.03115   1.01656  121.763
 4142.00    0.97510   0.97540  122.241
 4143.00    0.91814   0.94635   -1.000
 4144.00    0.91599   0.94552   -1.000
 4145.00    0.98891   0.96998  107.896
 4146.00    1.03812   0.99928   -1.000
 4147.00    1.03421   1.01609  111.167
 4148.00    1.04075   1.01855  113.389
 4149.00    1.02866   1.01658  113.567
 4150.00    1.00985   1.01717  112.791
 4151.00    1.01106   1.01723  113.057
 4152.00    1.00742   1.01073  114.585
 4153.00    0.98979   0.99749  113.902
 4154.00    0.95914   0.98543   -1.000
 4155.00    0.95530   0.98315   -1.000
 4156.00    0.97830   0.99241  110.369
 4157.00    1.05590   1.00891   -1.000
 4158.00    1.25488   1.02792   -1.000
 4159.00    1.24410   1.04538   -1.000
 4160.00    0.91422   1.05898   -1.000
 4161.00    0.84928   1.06958   -1.000
 4162.00    1.04088   1.07882   -1.000
 4163.00    1.08708   1.08537  107.217
 4164.00    1.05990   1.08502   -1.000
 4165.00    1.04188   1.07481   -1.000
 4166.00    1.01124   1.05875   -1.000
 4167.00    0.99835   1.04515   -1.000
 4168.00    0.99969   1.03815   -1.000
 4169.00    1.01151   1.03139  113.940
 4170.00    1.02520   1.01335  120.969
 4171.00    1.00952   0.98315  124.549
 4172.00    0.95570   0.95327  122.091
 4173.00    0.90895   0.94200   -1.000
 4174.00    0.92022   0.95395   -1.000
 4175.00    0.95291   0.97634   -1.000
 4176.00    0.96410   0.99441   -1.000
 4177.00    0.96116   1.00678   -1.000
 4178.00    0.95313   1.01911   -1.000
 4179.00    0.95329   1.03091   -1.000
 4180.00    0.97758   1.03485   -1.000
 4181.00    1.00430   1.02936   -1.000
 4182.00    0.99729   1.02344   -1.000
 4183.00    0.99709   1.02567   -1.000
 4184.00    1.01280   1.03237  109.720
 4185.00    1.01105   1.03204  113.216
 4186.00    1.00017   1.02145  114.102
 4187.00    0.98637   1.00918  112.122
 4188.00    0.96932   1.00557   -1.000
 4189.00    0.98272   1.01296   -1.000
 4190.00    1.01311   1.02633  107.497
 4191.00    1.02016   1.04165  105.647
 4192.00    1.02858   1.05617   -1.000
 4193.00    1.03245   1.06339   -1.000
 4194.00    1.02002   1.05635   -1.000
 4195.00    0.99917   1.03466   -1.000
 4196.00    0.97856   1.00545   -1.000
 4197.00    0.97265   0.97919  119.261
 4198.00    0.96876   0.96177  117.574
 4199.00    0.96480   0.95384  116.548
 4200.00    0.96034   0.95436  116.021
 4201.00    0.95685   0.96084  114.648
 4202.00    0.96625   0.97113  113.370
 4203.00    0.97507   0.98634  111.787
 4204.00    0.98678   1.00734  109.220
 4205.00    1.02719   1.03133  106.815
 4206.00    1.06986   1.05414  105.618
 4207.00    1.07290   1.07108  105.668
 4208.00    1.06971   1.07913  105.755
 4209.00    1.05928   1.07999  105.219
 4210.00    1.02843   1.07985   -1.000
 4211.00    1.02022   1.08330   -1.000
 4212.00    1.03753   1.08530   -1.000
 4213.00    1.02567   1.07562   -1.000
 4214.00    0.98716   1.05323   -1.000
 4215.00    0.97140   1.03022   -1.000
 4216.00    0.99155   1.02100   -1.000
 4217.00    1.00957   1.03228   99.559
 4218.00    1.04452   1.05807   97.783
 4219.00    1.07049   1.08292   97.857
 4220.00    1.09220   1.09461  100.550
 4221.00    1.10973   1.08645  106.401
 4222.00    1.09494   1.05484   -1.000
 4223.00    1.05762   0.99973   -1.000
 4224.00    0.97078   0.93090   -1.000
 4225.00    0.87274   0.86724  142.752
 4226.00    0.80440   0.83451   -1.000
 4227.00    0.82377   0.85056   -1.000
 4228.00    0.92218   0.90942  104.178
 4229.00    1.00387   0.97716  101.480
 4230.00    1.04223   1.02381  102.527
 4231.00    1.07089   1.04095   -1.000
 4232.00    1.05740   1.03708  106.927
 4233.00    1.03007   1.02466  108.781
 4234.00    1.02650   1.01142  111.049
 4235.00    1.01015   1.00041  111.415
 4236.00    0.99058   0.99425  109.484
 4237.00    0.98495   0.99641  107.465
 4238.00    0.98179   1.00848   -1.000
 4239.00    1.00223   1.02632  103.943
 4240.00    1.04416   1.04428  103.105
 4241.00    1.05735   1.05887  101.901
 4242.00    1.05767   1.07062   99.880
 4243.00    1.08082   1.08099   99.576
 4244.00    1.09994   1.08762  102.733
 4245.00    1.09327   1.08350  107.110
 4246.00    1.07818   1.06429  110.402
 4247.00    1.03868   1.03603  112.144
 4248.00    0.99495   1.01212  112.460
 4249.00    0.97885   1.00241  110.468
 4250.00    0.97073   1.00847   -1.000
 4251.00    1.00526   1.02188  106.335
 4252.00    1.04096   1.03111  108.365
 4253.00    1.02930   1.02828  108.833
 4254.00    1.02473   1.01978  105.620
 4255.00    1.01334   1.02116  103.330
 4256.00    1.04091   1.03398  105.337
 4257.00    1.08752   1.04166   -1.000
 4258.00    1.05502   1.02972  114.880
 4259.00    0.99267   1.00437  113.472
 4260.00    0.94573   0.98973   -1.000
 4261.00    0.95717   1.00279   -1.000
 4262.00    1.02849   1.03917   98.199
 4263.00    1.08402   1.07861   97.160
 4264.00    1.10085   1.10517   98.036
 4265.00    1.08772   1.11368  100.657
 4266.00    1.09180   1.10740  103.884
 4267.00    1.07924   1.08997  107.530
 4268.00    1.06002   1.06187  113.418
 4269.00    1.02425   1.02326  120.735
 4270.00    0.97203   0.98038  124.562
 4271.00    0.91658   0.94377   -1.000
 4272.00    0.90351   0.92455  120.233
 4273.00    0.93237   0.92675  115.771
 4274.00    0.93546   0.94665  109.096
 4275.00    0.95771   0.98007  103.160
 4276.00    1.03330   1.02226  101.200
 4277.00    1.10221   1.05925   -1.000
 4278.00    1.10334   1.07573   -1.000
 4279.00    1.04200   1.06913  109.788
 4280.00    1.00810   1.05335   -1.000
 4281.00    1.02034   1.04331  107.639
 4282.00    1.03538   1.04228  108.078
 4283.00    1.03616   1.04140  110.600
 4284.00    1.00921   1.03339  113.638
 4285.00    0.98578   1.01970   -1.000
 4286.00    0.98735   1.00234  119.031
 4287.00    0.97312   0.98095  124.519
 4288.00    0.94181   0.95446  127.238
 4289.00    0.90143   0.92942   -1.000
 4290.00    0.88870   0.92102   -1.000
 4291.00    0.90622   0.93655   -1.000
 4292.00    0.96737   0.96469  111.481
 4293.00    1.02114   0.98706   -1.000
 4294.00    1.01502   0.99147  115.389
 4295.00    0.98586   0.97813  119.949
 4296.00    0.95094   0.95109  128.672
 4297.00    0.90867   0.91283  139.093
 4298.00    0.86471   0.86689  144.275
 4299.00    0.80369   0.82564   -1.000
 4300.00    0.78187   0.80112  139.062
 4301.00    0.80132   0.79621  136.996
 4302.00    0.81149   0.80497  135.168
 4303.00    0.81263   0.81968  134.877
 4304.00    0.82581   0.83245  137.968
 4305.00    0.83038   0.83419  144.479
 4306.00    0.80943   0.82005  149.856
 4307.00    0.78588   0.79690  149.394
 4308.00    0.76132   0.78027  143.109
 4309.00    0.76380   0.78431  134.252
 4310.00    0.80406   0.81041  126.662
 4311.00    0.83344   0.84889  121.108
 4312.00    0.85592   0.89331   -1.000
 4313.00    0.91204   0.94593   -1.000
 4314.00    0.97503   1.00829   -1.000
 4315.00    1.06124   1.07707   92.620
 4316.00    1.13892   1.13902   91.419
 4317.00    1.15974   1.18035   92.361
 4318.00    1.18290   1.19501   94.242
 4319.00    1.18619   1.18790   97.045
 4320.00    1.16932   1.16542  101.275
 4321.00    1.14196   1.12736  107.825
 4322.00    1.08809   1.07227  116.938
 4323.00    1.00467   1.00867  124.036
 4324.00    0.91506   0.95649   -1.000
 4325.00    0.87418   0.93765   -1.000
 4326.00    0.91584   0.96140   -1.000
 4327.00    1.01924   1.01726   96.243
 4328.00    1.10628   1.07594   95.904
 4329.00    1.13414   1.11493   95.782
 4330.00    1.14369   1.13153   94.505
 4331.00    1.15223   1.13711   93.247
 4332.00    1.14369   1.14148   92.777
 4333.00    1.14975   1.14307   93.702
 4334.00    1.15117   1.13335   98.056
 4335.00    1.12803   1.10216   -1.000
 4336.00    1.09646   1.04362   -1.000
 4337.00    1.02695   0.96238   -1.000
 4338.00    0.93842   0.87963   -1.000
 4339.00    0.86321   0.82064   -1.000
 4340.00    0.82364   0.80562  115.701
 4341.00    0.87047   0.83887  106.946
 4342.00    0.94957   0.90418   -1.000
 4343.00    1.00179   0.97278   99.588
 4344.00    1.05042   1.02802   97.528
 4345.00    1.08518   1.06942   96.292
 4346.00    1.11913   1.10199   94.929
 4347.00    1.15737   1.12805   94.492
 4348.00    1.16647   1.14281   97.880
 4349.00    1.13434   1.13701  104.666
 4350.00    1.08266   1.10835  108.610
 4351.00    1.04158   1.07158   -1.000
 4352.00    1.01517   1.05144   -1.000
 4353.00    1.02921   1.06067   -1.000
 4354.00    1.07219   1.09178   95.345
 4355.00    1.10391   1.12514   94.658
 4356.00    1.12540   1.14785   96.027
 4357.00    1.12128   1.15845   -1.000
 4358.00    1.11815   1.16152   -1.000
 4359.00    1.12620   1.16441   -1.000
 4360.00    1.13810   1.17411   -1.000
 4361.00    1.16960   1.19109   91.866
 4362.00    1.18936   1.20867   91.082
 4363.00    1.18859   1.22211   90.637
 4364.00    1.19434   1.22963   -1.000
 4365.00    1.19667   1.22707   95.689
 4366.00    1.17614   1.21206   -1.000
 4367.00    1.14783   1.19116   -1.000
 4368.00    1.12423   1.17289   -1.000
 4369.00    1.13642   1.16022   96.336
 4370.00    1.14565   1.15087   96.931
 4371.00    1.14178   1.13980   99.824
 4372.00    1.12798   1.12252  103.941
 4373.00    1.10941   1.09978  105.477
 4374.00    1.06114   1.08076  102.566
 4375.00    1.02346   1.07841   -1.000
 4376.00    1.05304   1.09787   -1.000
 4377.00    1.10917   1.12820   94.567
 4378.00    1.14601   1.15255   95.908
 4379.00    1.16150   1.15755   99.442
 4380.00    1.15216   1.13559  108.177
 4381.00    1.11729   1.08508   -1.000
 4382.00    1.02630   1.01749  126.365
 4383.00    0.94023   0.95926  118.765
 4384.00    0.91691   0.94186   -1.000
 4385.00    0.96239   0.97286  101.530
 4386.00    1.01561   1.02625  100.544
 4387.00    1.07249   1.06977  101.354
 4388.00    1.11130   1.09080  101.982
 4389.00    1.10875   1.09764  100.786
 4390.00    1.11923   1.10316   98.563
 4391.00    1.12291   1.11351   98.198
 4392.00    1.13287   1.12580   99.926
 4393.00    1.11986   1.13314  100.510
 4394.00    1.09790   1.13634   -1.000
 4395.00    1.09320   1.14445   -1.000
 4396.00    1.12636   1.16098   -1.000
 4397.00    1.17215   1.17583   96.519
 4398.00    1.16572   1.17664   99.709
 4399.00    1.14141   1.16439   99.953
 4400.00    1.12492   1.14993   98.257
 4401.00    1.11675   1.14040   99.840
 4402.00    1.11439   1.13103  105.025
 4403.00    1.09238   1.11278  107.813
 4404.00    1.03797   1.08895   -1.000
 4405.00    1.03261   1.07447   -1.000
 4406.00    1.05503   1.07827  102.173
 4407.00    1.07411   1.09646   99.276
 4408.00    1.09660   1.12245   95.092
 4409.00    1.14416   1.15681   91.564
 4410.00    1.17575   1.19705   89.809
 4411.00    1.18503   1.22841   -1.000
 4412.00    1.20870   1.23546   95.455
 4413.00    1.18515   1.21527   -1.000
 4414.00    1.13526   1.17854   -1.000
 4415.00    1.10428   1.14665   -1.000
 4416.00    1.07934   1.14070   -1.000
 4417.00    1.10854   1.16564   -1.000
 4418.00    1.17942   1.20677   90.361
 4419.00    1.20970   1.24357   -1.000
 4420.00    1.20170   1.25973   -1.000
 4421.00    1.20424   1.25401   -1.000
 4422.00    1.16455   1.23881   -1.000
 4423.00    1.14622   1.22681   -1.000
 4424.00    1.15706   1.22134   -1.000
 4425.00    1.15063   1.21817   -1.000
 4426.00    1.14323   1.21527   -1.000
 4427.00    1.15124   1.21627   -1.000
 4428.00    1.17949   1.22181   -1.000
 4429.00    1.19187   1.22875   -1.000
 4430.00    1.18730   1.23389   -1.000
 4431.00    1.18512   1.23424   -1.000
 4432.00    1.18362   1.22594   -1.000
 4433.00    1.15870   1.20635   -1.000
 4434.00    1.11548   1.18198   -1.000
 4435.00    1.09990   1.17096   -1.000
 4436.00    1.13679   1.18741   -1.000
 4437.00    1.18065   1.22566   -1.000
 4438.00    1.23210   1.26383   89.445
 4439.00    1.25353   1.28099   93.347
 4440.00    1.21981   1.26972   -1.000
 4441.00    1.17733   1.23882   -1.000
 4442.00    1.15358   1.21039   -1.000
 4443.00    1.15617   1.20433   -1.000
 4444.00    1.16742   1.22470   -1.000
 4445.00    1.18573   1.25741   -1.000
 4446.00    1.21216   1.28419   -1.000
 4447.00    1.24386   1.29677   -1.000
 4448.00    1.25835   1.29871   -1.000
 4449.00    1.25584   1.29645   -1.000
 4450.00    1.25133   1.29168   -1.000
 4451.00    1.23322   1.28132   -1.000
 4452.00    1.21283   1.26014   -1.000
 4453.00    1.19075   1.22544   -1.000
 4454.00    1.15561   1.18601   -1.000
 4455.00    1.12207   1.15799   -1.000
 4456.00    1.12991   1.15091   98.006
 4457.00    1.15719   1.15986   98.415
 4458.00    1.15275   1.17255   99.289
 4459.00    1.15480   1.18180   -1.000
 4460.00    1.14571   1.18876   -1.000
 4461.00    1.14079   1.19772   -1.000
 4462.00    1.16033   1.21222   -1.000
 4463.00    1.18238   1.23265   -1.000
 4464.00    1.19035   1.25297   -1.000
 4465.00    1.20602   1.26510   -1.000
 4466.00    1.22082   1.26551   -1.000
 4467.00    1.19758   1.25764   -1.000
 4468.00    1.19321   1.24931   -1.000
 4469.00    1.18974   1.24932   -1.000
 4470.00    1.20007   1.26311   -1.000
 4471.00    1.23654   1.28889   -1.000
 4472.00    1.28366   1.31878   -1.000
 4473.00    1.29838   1.34326   -1.000
 4474.00    1.31555   1.35679   -1.000
 4475.00    1.31762   1.36118   -1.000
 4476.00    1.31461   1.36146   -1.000
 4477.00    1.32614   1.35872   86.971
 4478.00    1.30968   1.34781   -1.000
 4479.00    1.28342   1.32413   -1.000
 4480.00    1.24485   1.29205   -1.000
 4481.00    1.19190   1.26706   -1.000
 4482.00    1.20593   1.26337   -1.000
 4483.00    1.26315   1.28312   84.854
 4484.00    1.31101   1.31695   84.396
 4485.00    1.33177   1.34827   85.793
 4486.00    1.34338   1.36263   88.715
 4487.00    1.30975   1.35619   -1.000
 4488.00    1.26451   1.33722   -1.000
 4489.00    1.25000   1.31879   -1.000
 4490.00    1.24341   1.31224   -1.000
 4491.00    1.27782   1.31936   -1.000
 4492.00    1.31031   1.33076   90.169
 4493.00    1.29185   1.33428   -1.000
 4494.00    1.26692   1.32709   -1.000
 4495.00    1.24476   1.31942   -1.000
 4496.00    1.26852   1.32114   -1.000
 4497.00    1.29481   1.33221   -1.000
 4498.00    1.30166   1.34605   -1.000
 4499.00    1.30491   1.35655   -1.000
 4500.00    1.29619   1.36240   -1.000
 4501.00    1.27653   1.36924   -1.000
 4502.00    1.28530   1.38411   -1.000
 4503.00    1.33116   1.40608   -1.000
 4504.00    1.37108   1.42750   -1.000
 4505.00    1.39013   1.43984   -1.000
 4506.00    1.36119   1.44044   -1.000
 4507.00    1.33742   1.43373   -1.000
 4508.00    1.34870   1.42729   -1.000
 4509.00    1.35147   1.42506   -1.000
 4510.00    1.36563   1.42456   -1.000
 4511.00    1.36655   1.42049   -1.000
 4512.00    1.31533   1.41037   -1.000
 4513.00    1.30783   1.39722   -1.000
 4514.00    1.33083   1.38578   -1.000
 4515.00    1.32636   1.37862   -1.000
 4516.00    1.31216   1.37537   -1.000
 4517.00    1.28915   1.37289   -1.000
 4518.00    1.29442   1.37012   -1.000
 4519.00    1.32689   1.37062   -1.000
 4520.00    1.34823   1.37556   86.071
 4521.00    1.35283   1.37976   87.952
 4522.00    1.32848   1.37651   -1.000
 4523.00    1.28614   1.36402   -1.000
 4524.00    1.29394   1.34564   -1.000
 4525.00    1.30892   1.32363   95.392
 4526.00    1.26965   1.29733   97.003
 4527.00    1.21617   1.26882   -1.000
 4528.00    1.18464   1.24607   -1.000
 4529.00    1.18148   1.23771   -1.000
 4530.00    1.19061   1.24363   -1.000
 4531.00    1.22330   1.25493   -1.000
 4532.00    1.23197   1.25977   97.619
 4533.00    1.22584   1.25354   97.720
 4534.00    1.24296   1.24476   93.282
 4535.00    1.23949   1.24912   87.741
 4536.00    1.25946   1.27673   84.548
 4537.00    1.31006   1.32166   84.492
 4538.00    1.33381   1.36544   86.236
 4539.00    1.34290   1.39094   -1.000
 4540.00    1.33805   1.39609   -1.000
 4541.00    1.33731   1.39169   -1.000
 4542.00    1.33365   1.38811   -1.000
 4543.00    1.32007   1.38596   -1.000
 4544.00    1.31001   1.37977   -1.000
 4545.00    1.34498   1.36806   51.216
 4546.00    1.13129   1.35431   -1.000
 4547.00    0.35015   1.34009   -1.000
 4548.00   -0.02660   1.32518    0.000
 4549.00    0.15986   1.31367   -1.000
 4550.00    0.63661   1.31260   -1.000
 4551.00    0.44920   1.32200   -1.000
 4552.00    0.90936   1.33169   -1.000
 4553.00    1.27755   1.33279   -1.000
 4554.00    1.27276   1.32829   -1.000
 4555.00    1.26435   1.32895   -1.000
 4556.00    1.29893   1.34377   -1.000
 4557.00    1.33604   1.37182   -1.000
 4558.00    1.37908   1.40247   82.912
 4559.00    1.40004   1.42581   82.909
 4560.00    1.40670   1.43817   84.283
 4561.00    1.40388   1.43979   -1.000
 4562.00    1.37828   1.43145   -1.000
 4563.00    1.34428   1.41515   -1.000
 4564.00    1.31463   1.39735   -1.000
 4565.00    1.30074   1.38821   -1.000
 4566.00    1.32041   1.39436   -1.000
 4567.00    1.37293   1.41215   -1.000
 4568.00    1.40255   1.42848   84.597
 4569.00    1.37894   1.43177   -1.000
 4570.00    1.34792   1.42018   -1.000
 4571.00    1.33099   1.40308   -1.000
 4572.00    1.33038   1.39438   -1.000
 4573.00    1.33829   1.40143   -1.000
 4574.00    1.35682   1.41847   -1.000
 4575.00    1.37516   1.43316   -1.000
 4576.00    1.37134   1.43823   -1.000
 4577.00    1.35049   1.43262   -1.000
 4578.00    1.32496   1.41711   -1.000
 4579.00    1.31783   1.39399   -1.000
 4580.00    1.30718   1.36964   -1.000
 4581.00    1.29650   1.35217   -1.000
 4582.00    1.31032   1.34657   -1.000
 4583.00    1.31496   1.35049   -1.000
 4584.00    1.29262   1.35697   -1.000
 4585.00    1.28722   1.36204   -1.000
 4586.00    1.30986   1.36911   -1.000
 4587.00    1.34610   1.38273   -1.000
 4588.00    1.39509   1.40120   83.800
 4589.00    1.39597   1.41626   85.297
 4590.00    1.36996   1.41979   -1.000
 4591.00    1.35773   1.41115   -1.000
 4592.00    1.33299   1.39778   -1.000
 4593.00    1.30373   1.38928   -1.000
 4594.00    1.31436   1.38981   -1.000
 4595.00    1.35186   1.39648   -1.000
 4596.00    1.35506   1.40464   -1.000
 4597.00    1.35650   1.41115   -1.000
 4598.00    1.36435   1.41360   -1.000
 4599.00    1.33225   1.41038   -1.000
 4600.00    1.31038   1.40292   -1.000
 4601.00    1.31770   1.39547   -1.000
 4602.00    1.32314   1.39233   -1.000
 4603.00    1.32329   1.39472   -1.000
 4604.00    1.31558   1.40112   -1.000
 4605.00    1.35038   1.40969   -1.000
 4606.00    1.39042   1.42011   81.247
 4607.00    1.39420   1.43337   -1.000
 4608.00    1.41748   1.44916   80.084
 4609.00    1.44124   1.46363   81.007
 4610.00    1.44080   1.47035   81.983
 4611.00    1.42252   1.46650   -1.000
 4612.00    1.40317   1.45757   -1.000
 4613.00    1.37197   1.45046   -1.000
 4614.00    1.36006   1.44814   -1.000
 4615.00    1.37495   1.44913   -1.000
 4616.00    1.38850   1.44961   -1.000
 4617.00    1.39439   1.44745   -1.000
 4618.00    1.37026   1.44441   -1.000
 4619.00    1.36456   1.44473   -1.000
 4620.00    1.37516   1.45141   -1.000
 4621.00    1.40668   1.46282   -1.000
 4622.00    1.42088   1.47272   -1.000
 4623.00    1.43726   1.47591   -1.000
 4624.00    1.42201   1.47326   -1.000
 4625.00    1.40847   1.46867   -1.000
 4626.00    1.41866   1.46446   -1.000
 4627.00    1.43008   1.46216   82.165
 4628.00    1.40092   1.46212   -1.000
 4629.00    1.37894   1.46353   -1.000
 4630.00    1.38239   1.46612   -1.000
 4631.00    1.41295   1.46988   -1.000
 4632.00    1.42231   1.47198   -1.000
 4633.00    1.39757   1.46852   -1.000
 4634.00    1.38363   1.46043   -1.000
 4635.00    1.39859   1.45162   -1.000
 4636.00    1.39694   1.44392   -1.000
 4637.00    1.38982   1.43721   -1.000
 4638.00    1.36260   1.43291   -1.000
 4639.00    1.35422   1.43399   -1.000
 4640.00    1.39320   1.44246   -1.000
 4641.00    1.43269   1.45642   80.846
 4642.00    1.43870   1.46927   82.073
 4643.00    1.44291   1.47276   84.207
 4644.00    1.42592   1.46295   -1.000
 4645.00    1.39216   1.44262   -1.000
 4646.00    1.35815   1.41876   -1.000
 4647.00    1.35603   1.40145   -1.000
 4648.00    1.37472   1.39978   83.065
 4649.00    1.37460   1.41373   -1.000
 4650.00    1.38373   1.43363   -1.000
 4651.00    1.40228   1.44820   -1.000
 4652.00    1.40851   1.45252   -1.000
 4653.00    1.38608   1.44832   -1.000
 4654.00    1.35889   1.43951   -1.000
 4655.00    1.35299   1.43215   -1.000
 4656.00    1.36588   1.43405   -1.000
 4657.00    1.39994   1.45036   -1.000
 4658.00    1.43410   1.47853   -1.000
 4659.00    1.46334   1.50787   -1.000
 4660.00    1.46478   1.52537   -1.000
 4661.00    1.45374   1.52540   -1.000
 4662.00    1.44890   1.51144   -1.000
 4663.00    1.41975   1.49028   -1.000
 4664.00    1.40837   1.46583   -1.000
 4665.00    1.38010   1.43783   -1.000
 4666.00    1.32663   1.40612   -1.000
 4667.00    1.30351   1.37712   -1.000
 4668.00    1.28770   1.36318   -1.000
 4669.00    1.28971   1.37225   -1.000
 4670.00    1.34574   1.39920   -1.000
 4671.00    1.40694   1.43007   82.044
 4672.00    1.43932   1.45317   82.004
 4673.00    1.41461   1.46643   -1.000
 4674.00    1.40736   1.47495   -1.000
 4675.00    1.44384   1.48331   -1.000
 4676.00    1.45015   1.48911   -1.000
 4677.00    1.44493   1.48522   -1.000
 4678.00    1.39875   1.46962   -1.000
 4679.00    1.37222   1.44864   -1.000
 4680.00    1.36513   1.43142   -1.000
 4681.00    1.38044   1.42347   -1.000
 4682.00    1.39946   1.42535   81.596
 4683.00    1.43771   1.43498   81.563
 4684.00    1.44392   1.44804   81.677
 4685.00    1.45349   1.45932   82.035
 4686.00    1.43078   1.46586   -1.000
 4687.00    1.41158   1.46794   -1.000
 4688.00    1.43679   1.46723   82.612
 4689.00    1.42406   1.46527   -1.000
 4690.00    1.41212   1.46319   -1.000
 4691.00    1.39827   1.46206   -1.000
 4692.00    1.41087   1.46411   -1.000
 4693.00    1.42512   1.47066   -1.000
 4694.00    1.42930   1.47929   -1.000
 4695.00    1.45553   1.48579   80.017
 4696.00    1.47542   1.48667   82.449
 4697.00    1.42671   1.47920   -1.000
 4698.00    1.40254   1.46347   -1.000
 4699.00    1.38719   1.44398   -1.000
 4700.00    1.36568   1.42548   -1.000
 4701.00    1.37001   1.40995   -1.000
 4702.00    1.35775   1.39835   -1.000
 4703.00    1.34381   1.39428   -1.000
 4704.00    1.36764   1.40050   -1.000
 4705.00    1.38771   1.41200   85.456
 4706.00    1.39363   1.41831   86.502
 4707.00    1.37663   1.41510   -1.000
 4708.00    1.36550   1.40917   -1.000
 4709.00    1.37070   1.41056   -1.000
 4710.00    1.38877   1.42254   -1.000
 4711.00    1.41682   1.44048   81.147
 4712.00    1.43488   1.45633   82.538
 4713.00    1.43530   1.46325   82.915
 4714.00    1.41001   1.46222   -1.000
 4715.00    1.38961   1.46220   -1.000
 4716.00    1.41293   1.47071   -1.000
 4717.00    1.44459   1.48680   -1.000
 4718.00    1.46205   1.50311   -1.000
 4719.00    1.47933   1.51370   79.148
 4720.00    1.47049   1.51759   -1.000
 4721.00    1.43578   1.51752   -1.000
 4722.00    1.42633   1.51706   -1.000
 4723.00    1.45209   1.51819   -1.000
 4724.00    1.46326   1.51957   -1.000
 4725.00    1.45129   1.51657   -1.000
 4726.00    1.43738   1.50436   -1.000
 4727.00    1.42257   1.48290   -1.000
 4728.00    1.40066   1.45962   -1.000
 4729.00    1.37186   1.44433   -1.000
 4730.00    1.38224   1.44074   -1.000
 4731.00    1.39934   1.44572   -1.000
 4732.00    1.44482   1.45492   81.583
 4733.00    1.45832   1.46444   81.130
 4734.00    1.45287   1.47068   81.707
 4735.00    1.43060   1.47254   -1.000
 4736.00    1.44863   1.47199   81.186
 4737.00    1.44614   1.47231   80.962
 4738.00    1.45533   1.47629   81.356
 4739.00    1.47081   1.48364   81.551
 4740.00    1.45263   1.49057   -1.000
 4741.00    1.45455   1.49478   -1.000
 4742.00    1.48738   1.49854   80.139
 4743.00    1.49824   1.50394   80.247
 4744.00    1.49438   1.50973   79.790
 4745.00    1.49041   1.51414   79.016
 4746.00    1.47225   1.51803   -1.000
 4747.00    1.48275   1.52390   -1.000
 4748.00    1.52200   1.53221   78.847
 4749.00    1.51069   1.54054   79.307
 4750.00    1.49490   1.54602   -1.000
 4751.00    1.48371   1.54572   -1.000
 4752.00    1.46405   1.53769   -1.000
 4753.00    1.43054   1.52362   -1.000
 4754.00    1.41809   1.50924   -1.000
 4755.00    1.42068   1.50089   -1.000
 4756.00    1.42693   1.50087   -1.000
 4757.00    1.43068   1.50721   -1.000
 4758.00    1.44177   1.51629   -1.000
 4759.00    1.44626   1.52393   -1.000
 4760.00    1.44868   1.52487   -1.000
 4761.00    1.44128   1.51487   -1.000
 4762.00    1.42370   1.49459   -1.000
 4763.00    1.39388   1.47121   -1.000
 4764.00    1.38859   1.45377   -1.000
 4765.00    1.39274   1.44617   -1.000
 4766.00    1.37503   1.44830   -1.000
 4767.00    1.38844   1.46023   -1.000
 4768.00    1.43212   1.48060   -1.000
 4769.00    1.45539   1.50267   -1.000
 4770.00    1.45993   1.51744   -1.000
 4771.00    1.47853   1.52192   -1.000
 4772.00    1.47885   1.52184   -1.000
 4773.00    1.46023   1.52537   -1.000
 4774.00    1.47126   1.53551   -1.000
 4775.00    1.48505   1.54770   -1.000
 4776.00    1.48382   1.55538   -1.000
 4777.00    1.46983   1.55608   -1.000
 4778.00    1.48499   1.55143   -1.000
 4779.00    1.49439   1.54448   -1.000
 4780.00    1.48541   1.53737   -1.000
 4781.00    1.48483   1.53032   -1.000
 4782.00    1.48320   1.52237   -1.000
 4783.00    1.48909   1.51370   83.123
 4784.00    1.47863   1.50601   83.845
 4785.00    1.45527   1.50022   -1.000
 4786.00    1.41665   1.49627   -1.000
 4787.00    1.41562   1.49457   -1.000
 4788.00    1.42717   1.49625   -1.000
 4789.00    1.44013   1.50216   -1.000
 4790.00    1.45227   1.51268   -1.000
 4791.00    1.45585   1.52782   -1.000
 4792.00    1.48544   1.54661   -1.000
 4793.00    1.49853   1.56679   -1.000
 4794.00    1.51542   1.58488   -1.000
 4795.00    1.53658   1.59661   -1.000
 4796.00    1.55330   1.59827   -1.000
 4797.00    1.51392   1.58986   -1.000
 4798.00    1.48404   1.57585   -1.000
 4799.00    1.46808   1.56316   -1.000
 4800.00    1.47573   1.55855   -1.000
 4801.00    1.50350   1.56445   -1.000
 4802.00    1.49083   1.57582   -1.000
 4803.00    1.48689   1.58399   -1.000
 4804.00    1.48748   1.58404   -1.000
 4805.00    1.50422   1.57737   -1.000
 4806.00    1.50174   1.56883   -1.000
 4807.00    1.48928   1.56238   -1.000
 4808.00    1.48478   1.56011   -1.000
 4809.00    1.48447   1.56301   -1.000
 4810.00    1.49160   1.56969   -1.000
 4811.00    1.51783   1.57676   -1.000
 4812.00    1.51013   1.58245   -1.000
 4813.00    1.50820   1.58766   -1.000
 4814.00    1.53211   1.59392   -1.000
 4815.00    1.53153   1.60206   -1.000
 4816.00    1.53402   1.61122   -1.000
 4817.00    1.54421   1.61881   -1.000
 4818.00    1.53106   1.62271   -1.000
 4819.00    1.52799   1.62293   -1.000
 4820.00    1.53851   1.61940   -1.000
 4821.00    1.52160   1.60935   -1.000
 4822.00    1.50352   1.59062   -1.000
 4823.00    1.49540   1.56746   -1.000
 4824.00    1.49160   1.55072   -1.000
 4825.00    1.50953   1.54919   -1.000
 4826.00    1.51546   1.56021   -1.000
 4827.00    1.51104   1.57250   -1.000
 4828.00    1.50901   1.57776   -1.000
 4829.00    1.49892   1.57587   -1.000
 4830.00    1.49593   1.57020   -1.000
 4831.00    1.49166   1.56240   -1.000
 4832.00    1.48273   1.55472   -1.000
 4833.00    1.50168   1.55190   -1.000
 4834.00    1.51866   1.55643   79.359
 4835.00    1.51655   1.56528   -1.000
 4836.00    1.52968   1.57233   -1.000
 4837.00    1.54700   1.57279   82.051
 4838.00    1.50082   1.56566   -1.000
 4839.00    1.46268   1.55323   -1.000
 4840.00    1.46206   1.54020   -1.000
 4841.00    1.48228   1.53173   -1.000
 4842.00    1.49001   1.53023   -1.000
 4843.00    1.46884   1.53437   -1.000
 4844.00    1.49193   1.54216   -1.000
 4845.00    1.53037   1.55246   79.975
 4846.00    1.53840   1.56138   81.277
 4847.00    1.51951   1.56319   -1.000
 4848.00    1.50380   1.55806   -1.000
 4849.00    1.47245   1.55282   -1.000
 4850.00    1.47249   1.55212   -1.000
 4851.00    1.47500   1.55285   -1.000
 4852.00    1.48963   1.54784   -1.000
 4853.00    1.47078   1.53199   -1.000
 4854.00    1.44295   1.50530   -1.000
 4855.00    1.41464   1.47368   -1.000
 4856.00    1.40754   1.44501   -1.000
 4857.00    1.38898   1.41906   93.472
 4858.00    1.34418   1.38182   -1.000
 4859.00    1.27384   1.31789   -1.000
 4860.00    1.14985   1.23438   -1.000
 4861.00    1.06594   1.16556   -1.000
 4862.00    1.08762   1.14762   -1.000
 4863.00    1.18663   1.18908   86.944
 4864.00    1.28761   1.26578   84.896
 4865.00    1.34817   1.34486   83.946
 4866.00    1.38115   1.40736   83.521
 4867.00    1.41976   1.44940   84.051
 4868.00    1.45198   1.47208   86.137
 4869.00    1.43280   1.47544   -1.000
 4870.00    1.39100   1.46057   -1.000
 4871.00    1.35503   1.43659   -1.000
 4872.00    1.35018   1.42167   -1.000
 4873.00    1.37154   1.43043   -1.000
 4874.00    1.38621   1.45922   -1.000
 4875.00    1.42025   1.49010   -1.000
 4876.00    1.45991   1.50961   -1.000
 4877.00    1.46692   1.51966   -1.000
 4878.00    1.45513   1.53050   -1.000
 4879.00    1.47474   1.54649   -1.000
 4880.00    1.48947   1.56186   -1.000
 4881.00    1.48331   1.56853   -1.000
 4882.00    1.47502   1.56519   -1.000
 4883.00    1.46966   1.55674   -1.000
 4884.00    1.44002   1.54627   -1.000
 4885.00    1.42202   1.53375   -1.000
 4886.00    1.41860   1.52108   -1.000
 4887.00    1.45193   1.51136   -1.000
 4888.00    1.46582   1.50337   -1.000
 4889.00    1.41897   1.49178   -1.000
 4890.00    1.40388   1.47619   -1.000
 4891.00    1.39249   1.46808   -1.000
 4892.00    1.42695   1.48354   -1.000
 4893.00    1.50584   1.52712   76.014
 4894.00    1.56234   1.58412   75.466
 4895.00    1.58845   1.63235   -1.000
 4896.00    1.58205   1.65995   -1.000
 4897.00    1.58077   1.66805   -1.000
 4898.00    1.55536   1.66250   -1.000
 4899.00    1.53064   1.64966   -1.000
 4900.00    1.51196   1.63548   -1.000
 4901.00    1.51879   1.62348   -1.000
 4902.00    1.53102   1.61336   -1.000
 4903.00    1.52527   1.60479   -1.000
 4904.00    1.52836   1.60228   -1.000
 4905.00    1.55479   1.61077   -1.000
 4906.00    1.59392   1.62559   79.724
 4907.00    1.57577   1.63375   -1.000
 4908.00    1.51234   1.62601   -1.000
 4909.00    1.50080   1.60434   -1.000
 4910.00    1.48837   1.58015   -1.000
 4911.00    1.48950   1.56685   -1.000
 4912.00    1.49439   1.57106   -1.000
 4913.00    1.49842   1.58887   -1.000
 4914.00    1.54424   1.61025   -1.000
 4915.00    1.57019   1.62491   -1.000
 4916.00    1.55031   1.62268   -1.000
 4917.00    1.52247   1.59553   -1.000
 4918.00    1.47948   1.54501   -1.000
 4919.00    1.40383   1.48643   -1.000
 4920.00    1.35933   1.44297   -1.000
 4921.00    1.39057   1.43140   -1.000
 4922.00    1.43741   1.45041   83.250
 4923.00    1.47562   1.48359   82.362
 4924.00    1.49218   1.51521   80.378
 4925.00    1.48831   1.54201   -1.000
 4926.00    1.52446   1.56903   -1.000
 4927.00    1.57043   1.59878   77.405
 4928.00    1.58648   1.62744   76.927
 4929.00    1.58721   1.64874   -1.000
 4930.00    1.55743   1.65799   -1.000
 4931.00    1.55242   1.65215   -1.000
 4932.00    1.52615   1.63090   -1.000
 4933.00    1.49409   1.60119   -1.000
 4934.00    1.48181   1.57616   -1.000
 4935.00    1.50305   1.56436   -1.000
 4936.00    1.50131   1.56066   -1.000
 4937.00    1.47523   1.55227   -1.000
 4938.00    1.47079   1.53652   -1.000
 4939.00    1.46133   1.52712   -1.000
 4940.00    1.47337   1.53885   -1.000
 4941.00    1.54352   1.57158   77.653
 4942.00    1.57700   1.61036   77.586
 4943.00    1.62036   1.63894   78.065
 4944.00    1.59593   1.65117   -1.000
 4945.00    1.57144   1.65116   -1.000
 4946.00    1.56699   1.64788   -1.000
 4947.00    1.57592   1.64977   -1.000
 4948.00    1.59524   1.65968   -1.000
 4949.00    1.59236   1.67266   -1.000
 4950.00    1.58719   1.68087   -1.000
 4951.00    1.59795   1.68080   -1.000
 4952.00    1.57984   1.67444   -1.000
 4953.00    1.56247   1.66417   -1.000
 4954.00    1.56393   1.64757   -1.000
 4955.00    1.55277   1.61727   -1.000
 4956.00    1.51063   1.57033   -1.000
 4957.00    1.44470   1.52100   -1.000
 4958.00    1.46074   1.49636   79.519
 4959.00    1.51776   1.51257   78.575
 4960.00    1.56706   1.55860   78.798
 4961.00    1.57563   1.60665   79.393
 4962.00    1.60366   1.63646   80.287
 4963.00    1.62483   1.64494   81.880
 4964.00    1.59670   1.63776   -1.000
 4965.00    1.57763   1.62179   -1.000
 4966.00    1.56319   1.60395   -1.000
 4967.00    1.54732   1.59006   -1.000
 4968.00    1.53447   1.58317   -1.000
 4969.00    1.52899   1.58409   -1.000
 4970.00    1.53243   1.59236   -1.000
 4971.00    1.56741   1.60611   79.019
 4972.00    1.61923   1.62229   78.632
 4973.00    1.63328   1.63766   79.047
 4974.00    1.59707   1.64898   -1.000
 4975.00    1.60214   1.65349   -1.000
 4976.00    1.59562   1.65011   -1.000
 4977.00    1.57110   1.63949   -1.000
 4978.00    1.55309   1.62332   -1.000
 4979.00    1.53601   1.60256   -1.000
 4980.00    1.51212   1.57543   -1.000
 4981.00    1.46648   1.53915   -1.000
 4982.00    1.43268   1.49703   -1.000
 4983.00    1.41456   1.46286   -1.000
 4984.00    1.42413   1.45316   83.699
 4985.00    1.46241   1.47335   81.532
 4986.00    1.52049   1.51296   81.286
 4987.00    1.57677   1.55425   82.328
 4988.00    1.58785   1.58263   83.240
 4989.00    1.55048   1.59206   -1.000
 4990.00    1.51139   1.58673   -1.000
 4991.00    1.52263   1.57772   -1.000
 4992.00    1.52969   1.57443   -1.000
 4993.00    1.52015   1.57872   -1.000
 4994.00    1.56005   1.58703   81.492
 4995.00    1.59987   1.59580   81.852
 4996.00    1.58714   1.60257   82.866
 4997.00    1.54206   1.60354   -1.000
 4998.00    1.54071   1.59397   -1.000
 4999.00    1.49757   1.57303   -1.000
 5000.00    1.49620   1.54731   -1.000
 5001.00    1.49388   1.52757   84.538
 5002.00    1.49180   1.52052   85.492
 5003.00    1.48392   1.52248   -1.000
 5004.00    1.48797   1.52192   -1.000
 5005.00    1.48605   1.51099   86.511
 5006.00    1.46058   1.49583   -1.000
 5007.00    1.46727   1.49225   82.786
 5008.00    1.52077   1.50840   83.593
 5009.00    1.56614   1.53462   85.915
 5010.00    1.55136   1.55144   89.064
 5011.00    1.51824   1.54543   91.337
 5012.00    1.48184   1.51884   -1.000
 5013.00    1.44138   1.48664   -1.000
 5014.00    1.46532   1.46492   87.541
 5015.00    1.50869   1.46006   -1.000
 5016.00    1.50128   1.46761   86.938
 5017.00    1.48635   1.47964   86.088
 5018.00    1.48282   1.49234   85.339
 5019.00    1.49503   1.50599   85.569
 5020.00    1.53187   1.51925   85.791
 5021.00    1.53873   1.52831   85.393
 5022.00    1.53464   1.53248   84.539
 5023.00    1.53432   1.53708   83.924
 5024.00    1.52652   1.54744   84.195
 5025.00    1.54043   1.56018   84.605
 5026.00    1.53814   1.56669   83.990
 5027.00    1.51088   1.56546   -1.000
 5028.00    1.51095   1.56401   -1.000
 5029.00    1.54851   1.57006   79.973
 5030.00    1.58609   1.58543   78.999
 5031.00    1.61324   1.60623   78.990
 5032.00    1.62668   1.62518   81.208
 5033.00    1.60313   1.63376   84.377
 5034.00    1.60292   1.62519   86.047
 5035.00    1.55386   1.60056   -1.000
 5036.00    1.54158   1.57045   87.454
 5037.00    1.56075   1.54523   90.590
 5038.00    1.55713   1.52383   -1.000
 5039.00    1.50024   1.49659   94.835
 5040.00    1.42394   1.46305   -1.000
 5041.00    1.39197   1.44054   -1.000
 5042.00    1.44406   1.44906   81.589
 5043.00    1.52893   1.49145   79.675
 5044.00    1.60146   1.55046   -1.000
 5045.00    1.62572   1.60314   78.468
 5046.00    1.61668   1.63470   25.120
 5047.00    1.67108   1.64037   80.714
 5048.00    0.76383   1.62279   -1.000
 5049.00    0.02272   1.59177   -1.000
 5050.00   -0.02504   1.56224    0.000
 5051.00    0.24505   1.54793   -1.000
 5052.00    1.04100   1.55469   -1.000
 5053.00    1.57532   1.57801   78.996
 5054.00    1.61503   1.60637   78.684
 5055.00    1.63686   1.62949   78.782
 5056.00    1.63674   1.64488   78.931
 5057.00    1.63516   1.65543   78.921
 5058.00    1.64994   1.66367   78.441
 5059.00    1.64204   1.67003   78.413
 5060.00    1.64211   1.67388   79.354
 5061.00    1.66455   1.67367   81.528
 5062.00    1.67850   1.66553   84.391
 5063.00    1.62387   1.64511   85.612
 5064.00    1.56468   1.61512   -1.000
 5065.00    1.56930   1.58733   83.526
 5066.00    1.57490   1.57269   83.143
 5067.00    1.56769   1.57215   82.768
 5068.00    1.57788   1.57845   82.237
 5069.00    1.59905   1.58500   82.765
 5070.00    1.60639   1.58942   83.431
 5071.00    1.60125   1.59004   82.589
 5072.00    1.60210   1.58631   81.892
 5073.00    1.61396   1.58234   81.725
 5074.00    1.61200   1.58363   81.658
 5075.00    1.61716   1.58973   82.359
 5076.00    1.61435   1.59343   85.010
 5077.00    1.59675   1.58635   88.967
 5078.00    1.55615   1.56483   90.365
 5079.00    1.51646   1.53436   88.757
 5080.00    1.48649   1.50858   86.846
 5081.00    1.50686   1.49895   85.605
 5082.00    1.53309   1.50625   84.038
 5083.00    1.54359   1.52396   82.577
 5084.00    1.57563   1.54662   81.900
 5085.00    1.62802   1.57184   -1.000
 5086.00    1.63475   1.59615   -1.000
 5087.00    1.63614   1.61469   80.790
 5088.00    1.61983   1.62586   80.329
 5089.00    1.64670   1.63249   79.911
 5090.00    1.62317   1.63832   79.038
 5091.00    1.64638   1.64567   78.303
 5092.00    1.68233   1.65497   78.875
 5093.00    1.69581   1.66345   -1.000
 5094.00    1.65231   1.66457   82.181
 5095.00    1.68765   1.65167   -1.000
 5096.00    1.70389   1.62431   -1.000
 5097.00    1.59151   1.59047   86.378
 5098.00    1.52455   1.56214   84.479
 5099.00    1.53418   1.54931   82.047
 5100.00    1.55531   1.55587   81.164
 5101.00    1.60178   1.57684   81.533
 5102.00    1.64119   1.59964   -1.000
 5103.00    1.62472   1.61263   83.613
 5104.00    1.62587   1.61224   84.641
 5105.00    1.61059   1.60115   85.703
 5106.00    1.58182   1.58387   85.687
 5107.00    1.56775   1.56571   85.169
 5108.00    1.56231   1.55280   84.562
 5109.00    1.57735   1.55005   83.399
 5110.00    1.60162   1.55890   -1.000
 5111.00    1.61956   1.57692   -1.000
 5112.00    1.66559   1.59889   -1.000
 5113.00    1.65092   1.61981   80.138
 5114.00    1.64060   1.63774   79.328
 5115.00    1.63754   1.65301   78.646
 5116.00    1.65468   1.66550   78.800
 5117.00    1.68728   1.67368   79.767
 5118.00    1.71530   1.67567   -1.000
 5119.00    1.69237   1.66998   82.290
 5120.00    1.67650   1.65625   84.347
 5121.00    1.63972   1.63600   86.871
 5122.00    1.59606   1.61192   87.655
 5123.00    1.57999   1.58668   86.983
 5124.00    1.58777   1.56412   86.521
 5125.00    1.56842   1.54916   86.014
 5126.00    1.59654   1.54403   -1.000
 5127.00    1.59814   1.54569   -1.000
 5128.00    1.57964   1.54946   84.987
 5129.00    1.57890   1.55381   83.556
 5130.00    1.58278   1.56055   82.815
 5131.00    1.60038   1.57130   82.037
 5132.00    1.62058   1.58490   -1.000
 5133.00    1.66378   1.59821   -1.000
 5134.00    1.64238   1.60844   -1.000
 5135.00    1.65267   1.61320   -1.000
 5136.00    1.64348   1.60959   -1.000
 5137.00    1.59346   1.59645   85.989
 5138.00    1.55753   1.57729   85.278
 5139.00    1.54058   1.55947   85.799
 5140.00    1.53937   1.54911   87.151
 5141.00    1.55205   1.54687   86.795
 5142.00    1.55746   1.54962   85.390
 5143.00    1.56803   1.55501   85.003
 5144.00    1.60082   1.56194   -1.000
 5145.00    1.59425   1.56758   85.987
 5146.00    1.57796   1.56811   85.018
 5147.00    1.58981   1.56469   84.491
 5148.00    1.57767   1.56364   85.431
 5149.00    1.57222   1.56692   86.968
 5150.00    1.59275   1.56865   87.619
 5151.00    1.58866   1.56410   87.242
 5152.00    1.58235   1.55568   85.652
 5153.00    1.59965   1.54993   -1.000
 5154.00    1.60335   1.55304   -1.000
 5155.00    1.63622   1.56836   -1.000
 5156.00    1.66695   1.59389   -1.000
 5157.00    1.68828   1.62268   -1.000
 5158.00    1.66993   1.64691   79.366
 5159.00    1.68321   1.66201   79.811
 5160.00    1.69665   1.66705   80.685
 5161.00    1.69998   1.66226   -1.000
 5162.00    1.68313   1.64738   -1.000
 5163.00    1.63673   1.62109   91.712
 5164.00    1.61902   1.57890   -1.000
 5165.00    1.50788   1.51446  108.315
 5166.00    1.38089   1.43140   -1.000
 5167.00    1.30561   1.35212   -1.000
 5168.00    1.30356   1.30676   99.099
 5169.00    1.37562   1.30385   -1.000
 5170.00    1.41030   1.31661   -1.000
 5171.00    1.36017   1.31286   -1.000
 5172.00    1.26428   1.29326   96.903
 5173.00    1.28742   1.29107   88.735
 5174.00    1.42707   1.33481   -1.000
 5175.00    1.55245   1.41624   -1.000
 5176.00    1.59485   1.50124   -1.000
 5177.00    1.62942   1.56211   -1.000
 5178.00    1.66916   1.59095   -1.000
 5179.00    1.65423   1.59002   -1.000
 5180.00    1.61145   1.55821   -1.000
 5181.00    1.52664   1.49335   -1.000
 5182.00    1.37759   1.40600  108.335
 5183.00    1.26269   1.32745   -1.000
 5184.00    1.27354   1.29633   87.989
 5185.00    1.39539   1.32964   -1.000
 5186.00    1.53392   1.40808   -1.000
 5187.00    1.61834   1.49133   -1.000
 5188.00    1.65373   1.54946   -1.000
 5189.00    1.65161   1.57758   -1.000
 5190.00    1.62813   1.58265   -1.000
 5191.00    1.59138   1.57121   89.145
 5192.00    1.55463   1.55226   87.636
 5193.00    1.55286   1.53817   86.325
 5194.00    1.58345   1.53718   -1.000
 5195.00    1.61679   1.54878   -1.000
 5196.00    1.63244   1.56790   -1.000
 5197.00    1.65585   1.59167   -1.000
 5198.00    1.67740   1.61829   -1.000
 5199.00    1.69984   1.64278   -1.000
 5200.00    1.69136   1.65812   -1.000
 5201.00    1.69756   1.65872   -1.000
 5202.00    1.67930   1.64180   -1.000
 5203.00    1.65327   1.60855   -1.000
 5204.00    1.60224   1.56484   -1.000
 5205.00    1.55740   1.52050   -1.000
 5206.00    1.57545   1.48571   -1.000
 5207.00    1.56443   1.46610   -1.000
 5208.00    1.55877   1.46224   -1.000
 5209.00    1.56145   1.47455   -1.000
 5210.00    1.60097   1.50505   -1.000
 5211.00    1.64146   1.55235   -1.000
 5212.00    1.70978   1.60619   -1.000
 5213.00    1.75054   1.64936   -1.000
 5214.00    1.72572   1.66804   -1.000
 5215.00    1.67430   1.66234   82.266
 5216.00    1.62763   1.64757   80.516
 5217.00    1.62643   1.64276   79.272
 5218.00    1.68067   1.65692   78.644
 5219.00    1.72964   1.68481   -1.000
 5220.00    1.72620   1.71374   79.292
 5221.00    1.74233   1.73255   81.677
 5222.00    1.76523   1.73445   85.037
 5223.00    1.71168   1.71580   89.019
 5224.00    1.64652   1.67540   91.548
 5225.00    1.57700   1.61865   -1.000
 5226.00    1.53549   1.56330   84.800
 5227.00    1.52420   1.53379   81.284
 5228.00    1.57913   1.54398   79.785
 5229.00    1.66524   1.58433   -1.000
 5230.00    1.70844   1.62821   -1.000
 5231.00    1.71462   1.65324   -1.000
 5232.00    1.68121   1.65467   82.526
 5233.00    1.66101   1.64403   80.668
 5234.00    1.63332   1.63929   78.736
 5235.00    1.66520   1.65238   77.825
 5236.00    1.69574   1.68153   77.737
 5237.00    1.73927   1.71480   77.980
 5238.00    1.74935   1.74027   77.851
 5239.00    1.76202   1.75308   77.395
 5240.00    1.75418   1.75543   77.501
 5241.00    1.75213   1.75228   77.349
 5242.00    1.72577   1.74869   77.224
 5243.00    1.74836   1.74841   78.743
 5244.00    1.77878   1.75046   81.208
 5245.00    1.78026   1.74787   83.116
 5246.00    1.73281   1.73430   83.361
 5247.00    1.69078   1.71178   83.512
 5248.00    1.67331   1.68920   84.044
 5249.00    1.69500   1.67416   83.662
 5250.00    1.70220   1.66792   82.509
 5251.00    1.69590   1.66833   81.684
 5252.00    1.67946   1.67331   81.685
 5253.00    1.69662   1.68019   81.108
 5254.00    1.70101   1.68707   79.225
 5255.00    1.71717   1.69661   77.082
 5256.00    1.74470   1.71327   76.381
 5257.00    1.76129   1.73588   77.081
 5258.00    1.82021   1.75554   -1.000
 5259.00    1.79677   1.76013   -1.000
 5260.00    1.75363   1.74162   86.478
 5261.00    1.69888   1.69998   89.491
 5262.00    1.61633   1.64290   91.352
 5263.00    1.55652   1.58267   91.619
 5264.00    1.53943   1.53259   90.036
 5265.00    1.55973   1.50264   -1.000
 5266.00    1.58549   1.49412   -1.000
 5267.00    1.58574   1.49606   -1.000
 5268.00    1.55982   1.49299   -1.000
 5269.00    1.52302   1.48043   -1.000
 5270.00    1.52034   1.47272   -1.000
 5271.00    1.56481   1.48947   -1.000
 5272.00    1.64345   1.53086   -1.000
 5273.00    1.69726   1.57807   -1.000
 5274.00    1.68195   1.61505   -1.000
 5275.00    1.66352   1.64140   77.837
 5276.00    1.69846   1.66716   76.379
 5277.00    1.77379   1.69861   -1.000
 5278.00    1.79567   1.72997   -1.000
 5279.00    1.77409   1.74730   80.747
 5280.00    1.76129   1.74141   82.227
 5281.00    1.72506   1.71691   82.636
 5282.00    1.71018   1.68799   80.964
 5283.00    1.68885   1.66977   78.479
 5284.00    1.68659   1.67297   76.003
 5285.00    1.75448   1.69946   -1.000
 5286.00    1.78443   1.73922   -1.000
 5287.00    1.68454   1.77662   -1.000
 5288.00    1.80732   1.80110   75.375
 5289.00    1.84600   1.81287   75.215
 5290.00    1.83773   1.81720   75.660
 5291.00    1.82914   1.81737   76.379
 5292.00    1.79561   1.81456   77.397
 5293.00    1.82024   1.80848   79.507
 5294.00    1.82288   1.79569   82.580
 5295.00    1.77187   1.77132   84.795
 5296.00    1.73465   1.73458   84.252
 5297.00    1.66682   1.69438   82.096
 5298.00    1.65936   1.66702   80.571
 5299.00    1.67858   1.66280   80.063
 5300.00    1.72915   1.67781   -1.000
 5301.00    1.74729   1.70048   -1.000
 5302.00    1.76258   1.72350   -1.000
 5303.00    1.78713   1.74750   -1.000
 5304.00    1.80717   1.77220   -1.000
 5305.00    1.81268   1.79143   76.741
 5306.00    1.84024   1.80015   -1.000
 5307.00    1.83461   1.80081   -1.000
 5308.00    1.81747   1.80166   74.943
 5309.00    1.83496   1.80889   75.023
 5310.00    1.85093   1.82064   75.452
 5311.00    1.87280   1.83004   -1.000
 5312.00    1.89237   1.83147   -1.000
 5313.00    1.84547   1.82389   77.092
 5314.00    1.81564   1.80963   77.776
 5315.00    1.81290   1.79217   77.791
 5316.00    1.77789   1.77650   77.203
 5317.00    1.77691   1.76919   76.879
 5318.00    1.78072   1.77339   77.171
 5319.00    1.81987   1.78410   -1.000
 5320.00    1.84665   1.79054   -1.000
 5321.00    1.82148   1.78500   -1.000
 5322.00    1.80956   1.76691   -1.000
 5323.00    1.77211   1.74074   80.718
 5324.00    1.74532   1.71245   -1.000
 5325.00    1.71052   1.68409   88.424
 5326.00    1.69372   1.65136   -1.000
 5327.00    1.64477   1.61106   -1.000
 5328.00    1.57037   1.57468   82.262
 5329.00    1.59537   1.56511   79.661
 5330.00    1.72035   1.59335   -1.000
 5331.00    1.75969   1.64634   -1.000
 5332.00    1.76361   1.69819   -1.000
 5333.00    1.78537   1.73446   -1.000
 5334.00    1.80113   1.75738   -1.000
 5335.00    1.80258   1.77194   77.886
 5336.00    1.80540   1.77797   78.750
 5337.00    1.78905   1.77339   80.780
 5338.00    1.79251   1.75755   -1.000
 5339.00    1.76728   1.73301   -1.000
 5340.00    1.71929   1.70810   79.199
 5341.00    1.69402   1.69555   77.801
 5342.00    1.74235   1.70306   -1.000
 5343.00    1.81093   1.72485   -1.000
 5344.00    1.81215   1.74476   -1.000
 5345.00    1.78101   1.75131   79.245
 5346.00    1.76616   1.74506   79.973
 5347.00    1.79425   1.73403   -1.000
 5348.00    1.80499   1.72623   -1.000
 5349.00    1.77214   1.72638   -1.000
 5350.00    1.78695   1.73654   -1.000
 5351.00    1.81904   1.75559   -1.000
 5352.00    1.82911   1.77820   -1.000
 5353.00    1.81179   1.79808   74.265
 5354.00    1.83130   1.81403   73.722
 5355.00    1.87275   1.82876   -1.000
 5356.00    1.87708   1.84271   -1.000
 5357.00    1.87204   1.85322   74.201
 5358.00    1.86859   1.85761   75.096
 5359.00    1.88999   1.85540   -1.000
 5360.00    1.87937   1.84672   -1.000
 5361.00    1.83597   1.83138   78.010
 5362.00    1.83259   1.81081   78.460
 5363.00    1.82269   1.78845   -1.000
 5364.00    1.78883   1.76840   78.661
 5365.00    1.77598   1.75420   78.669
 5366.00    1.77784   1.74662   79.506
 5367.00    1.76948   1.74156   81.544
 5368.00    1.77748   1.73103   -1.000
 5369.00    1.73140   1.70921   84.207
 5370.00    1.71583   1.67922   -1.000
 5371.00    1.68970   1.65544   77.212
 5372.00    1.73067   1.65494   -1.000
 5373.00    1.78415   1.68415   -1.000
 5374.00    1.85387   1.73247   -1.000
 5375.00    1.90550   1.77942   -1.000
 5376.00    1.87261   1.81070   -1.000
 5377.00    1.85267   1.82408   75.774
 5378.00    1.84791   1.82518   76.542
 5379.00    1.82296   1.81983   77.295
 5380.00    1.83164   1.81090   77.654
 5381.00    1.82161   1.79968   77.582
 5382.00    1.81401   1.78823   77.198
 5383.00    1.83280   1.78080   -1.000
 5384.00    1.81370   1.78237   76.231
 5385.00    1.83319   1.79388   -1.000
 5386.00    1.85358   1.80942   -1.000
 5387.00    1.85849   1.81970   -1.000
 5388.00    1.81926   1.81899   79.439
 5389.00    1.82218   1.80758   79.764
 5390.00    1.80174   1.79010   79.787
 5391.00    1.78316   1.77185   80.045
 5392.00    1.76106   1.75614   80.661
 5393.00    1.79487   1.74405   -1.000
 5394.00    1.80048   1.73397   -1.000
 5395.00    1.76607   1.72149   -1.000
 5396.00    1.76931   1.70507   -1.000
 5397.00    1.76177   1.69093   -1.000
 5398.00    1.76619   1.68956   -1.000
 5399.00    1.77620   1.70589   -1.000
 5400.00    1.78176   1.73146   -1.000
 5401.00    1.80222   1.75137   -1.000
 5402.00    1.79808   1.75418   -1.000
 5403.00    1.77707   1.73573   -1.000
 5404.00    1.73094   1.70183   84.243
 5405.00    1.67416   1.66856   82.404
 5406.00    1.68116   1.65215   81.767
 5407.00    1.73663   1.65684   -1.000
 5408.00    1.77551   1.67282   -1.000
 5409.00    1.76396   1.68657   -1.000
 5410.00    1.73834   1.69644   -1.000
 5411.00    1.77267   1.71048   -1.000
 5412.00    1.82166   1.73252   -1.000
 5413.00    1.84683   1.75681   -1.000
 5414.00    1.81850   1.77491   -1.000
 5415.00    1.78528   1.78662   76.255
 5416.00    1.79059   1.79768   76.627
 5417.00    1.83199   1.80975   77.422
 5418.00    1.82996   1.81950   77.859
 5419.00    1.83323   1.82334   77.487
 5420.00    1.84683   1.82105   77.182
 5421.00    1.84516   1.81463   78.375
 5422.00    1.81738   1.80500   79.054
 5423.00    1.80249   1.79332   78.094
 5424.00    1.77627   1.78457   76.738
 5425.00    1.78991   1.78490   77.109
 5426.00    1.82139   1.79418   79.392
 5427.00    1.84715   1.80016   -1.000
 5428.00    1.81524   1.78944   81.912
 5429.00    1.76638   1.76416   80.324
 5430.00    1.75841   1.73966   80.412
 5431.00    1.78875   1.72932   -1.000
 5432.00    1.78512   1.73020   -1.000
 5433.00    1.78025   1.73017   -1.000
 5434.00    1.78478   1.72578   -1.000
 5435.00    1.76078   1.72533   -1.000
 5436.00    1.78217   1.73952   -1.000
 5437.00    1.82656   1.77004   -1.000
 5438.00    1.85988   1.80725   -1.000
 5439.00    1.89275   1.83925   -1.000
 5440.00    1.90203   1.86020   -1.000
 5441.00    1.88540   1.87135   75.727
 5442.00    1.86745   1.87303   77.859
 5443.00    1.83597   1.86174   81.183
 5444.00    1.82970   1.83379   83.801
 5445.00    1.80790   1.79204   82.898
 5446.00    1.72763   1.75004   80.060
 5447.00    1.72152   1.72533   77.865
 5448.00    1.77709   1.72882   -1.000
 5449.00    1.86272   1.75590   -1.000
 5450.00    1.87545   1.78970   -1.000
 5451.00    1.90128   1.81403   -1.000
 5452.00    1.91534   1.81959   -1.000
 5453.00    1.86341   1.80486   -1.000
 5454.00    1.81415   1.77597   -1.000
 5455.00    1.76783   1.74696   79.542
 5456.00    1.78630   1.73540   -1.000
 5457.00    1.83342   1.75040   -1.000
 5458.00    1.88612   1.78228   -1.000
 5459.00    1.90581   1.81156   -1.000
 5460.00    1.89566   1.82306   -1.000
 5461.00    1.86913   1.81467   -1.000
 5462.00    1.81816   1.79545   79.975
 5463.00    1.80253   1.77890   79.060
 5464.00    1.80453   1.77494   78.741
 5465.00    1.83697   1.78466   -1.000
 5466.00    1.89200   1.80173   -1.000
 5467.00    1.86893   1.81831   -1.000
 5468.00    1.85111   1.83032   79.196
 5469.00    1.86656   1.83621   79.419
 5470.00    1.86873   1.83531   -1.000
 5471.00    1.87053   1.82869   -1.000
 5472.00    1.88714   1.81800   -1.000
 5473.00    1.85815   1.80320   -1.000
 5474.00    1.84209   1.78297   -1.000
 5475.00    1.80413   1.75795   -1.000
 5476.00    1.76087   1.73453   81.220
 5477.00    1.74721   1.72363   79.793
 5478.00    1.77618   1.73136   -1.000
 5479.00    1.83369   1.75247   -1.000
 5480.00    1.82953   1.77304   -1.000
 5481.00    1.80366   1.78415   79.810
 5482.00    1.79896   1.79009   78.161
 5483.00    1.81225   1.79930   77.587
 5484.00    1.85038   1.81429   -1.000
 5485.00    1.88531   1.82863   -1.000
 5486.00    1.85675   1.83408   80.032
 5487.00    1.83025   1.82955   80.002
 5488.00    1.85022   1.82145   79.377
 5489.00    1.84291   1.81787   78.803
 5490.00    1.87336   1.82124   -1.000
 5491.00    1.89967   1.82819   -1.000
 5492.00    1.86921   1.83446   -1.000
 5493.00    1.85758   1.83780   78.767
 5494.00    1.88401   1.83795   -1.000
 5495.00    1.87194   1.83440   -1.000
 5496.00    1.83143   1.82705   79.411
 5497.00    1.84041   1.81840   78.481
 5498.00    1.86841   1.81223   -1.000
 5499.00    1.85886   1.80957   -1.000
 5500.00    1.84727   1.80660   -1.000
 5501.00    1.87721   1.79941   -1.000
 5502.00    1.88416   1.79118   -1.000
 5503.00    1.85799   1.78735   -1.000
 5504.00    1.85903   1.78656   -1.000
 5505.00    1.84460   1.78380   -1.000
 5506.00    1.84276   1.77763   -1.000
 5507.00    1.85885   1.77369   -1.000
 5508.00    1.86537   1.77838   -1.000
 5509.00    1.85110   1.78898   -1.000
 5510.00    1.85730   1.79631   -1.000
 5511.00    1.83311   1.79268   -1.000
 5512.00    1.83905   1.77899   -1.000
 5513.00    1.78496   1.76441   80.851
 5514.00    1.79701   1.75932   -1.000
 5515.00    1.86719   1.76818   -1.000
 5516.00    1.91003   1.78760   -1.000
 5517.00    1.91501   1.81137   -1.000
 5518.00    1.91747   1.83371   -1.000
 5519.00    1.91167   1.85070   -1.000
 5520.00    1.92173   1.86048   -1.000
 5521.00    1.90286   1.86412   -1.000
 5522.00    1.91639   1.86398   -1.000
 5523.00    1.91483   1.86101   -1.000
 5524.00    1.88282   1.85267   -1.000
 5525.00    1.88659   1.83521   -1.000
 5526.00    1.83979   1.80858   -1.000
 5527.00    1.78670   1.77907   81.347
 5528.00    1.78759   1.75909   79.187
 5529.00    1.80874   1.75911   -1.000
 5530.00    1.86094   1.77977   -1.000
 5531.00    1.89667   1.80822   -1.000
 5532.00    1.88616   1.82892   -1.000
 5533.00    1.86899   1.83551   -1.000
 5534.00    1.85226   1.83195   78.682
 5535.00    1.84349   1.82694   78.539
 5536.00    1.87431   1.82685   -1.000
 5537.00    1.88266   1.83253   -1.000
 5538.00    1.89106   1.84047   -1.000
 5539.00    1.92272   1.84833   -1.000
 5540.00    1.91081   1.85579   -1.000
 5541.00    1.91890   1.86083   -1.000
 5542.00    1.91496   1.86017   -1.000
 5543.00    1.90217   1.85444   -1.000
 5544.00    1.87685   1.84834   78.234
 5545.00    1.88926   1.84678   -1.000
 5546.00    1.90981   1.85078   -1.000
 5547.00    1.91320   1.85868   -1.000
 5548.00    1.91517   1.86907   -1.000
 5549.00    1.94496   1.87972   -1.000
 5550.00    1.91374   1.88692   77.353
 5551.00    1.93683   1.88844   -1.000
 5552.00    1.89799   1.88419   78.551
 5553.00    1.88440   1.87625   78.381
 5554.00    1.88119   1.86856   78.126
 5555.00    1.88955   1.86470   78.008
 5556.00    1.90303   1.86533   -1.000
 5557.00    1.90323   1.86830   -1.000
 5558.00    1.92764   1.87171   -1.000
 5559.00    1.93256   1.87422   -1.000
 5560.00    1.92256   1.87360   -1.000
 5561.00    1.91078   1.86796   -1.000
 5562.00    1.92097   1.85801   -1.000
 5563.00    1.91838   1.84716   -1.000
 5564.00    1.88202   1.83831   -1.000
 5565.00    1.88033   1.83195   -1.000
 5566.00    1.90586   1.82733   -1.000
 5567.00    1.89743   1.82374   -1.000
 5568.00    1.87708   1.82086   -1.000
 5569.00    1.86387   1.81834   -1.000
 5570.00    1.83822   1.81570   80.335
 5571.00    1.80368   1.81242   79.902
 5572.00    1.73535   1.80890   -1.000
 5573.00    1.56474   1.80732   -1.000
 5574.00    1.59720   1.81076   -1.000
 5575.00    2.07212   1.81887   -1.000
 5576.00    2.64024   1.82853   -1.000
 5577.00    2.59678   1.83879   -1.000
 5578.00    2.15880   1.84938   -1.000
 5579.00    2.03981   1.85834   -1.000
 5580.00    1.93660   1.86327   -1.000
 5581.00    1.92954   1.86393   -1.000
 5582.00    1.90289   1.86189   -1.000
 5583.00    1.92312   1.85772   -1.000
 5584.00    1.92761   1.84868   -1.000
 5585.00    1.88443   1.82973   -1.000
 5586.00    1.85369   1.79831   -1.000
 5587.00    1.79628   1.76125   -1.000
 5588.00    1.78499   1.73253   -1.000
 5589.00    1.81418   1.72232   -1.000
 5590.00    1.83024   1.73218   -1.000
 5591.00    1.86085   1.75402   -1.000
 5592.00    1.86899   1.77642   -1.000
 5593.00    1.85329   1.79141   -1.000
 5594.00    1.83785   1.79987   -1.000
 5595.00    1.88835   1.80673   -1.000
 5596.00    1.90251   1.81328   -1.000
 5597.00    1.90569   1.81527   -1.000
 5598.00    1.87083   1.80849   -1.000
 5599.00    1.88144   1.79601   -1.000
 5600.00    1.85099   1.78371   -1.000
 5601.00    1.83673   1.77425   -1.000
 5602.00    1.82930   1.77172   -1.000
 5603.00    1.85150   1.78256   -1.000
 5604.00    1.87524   1.80862   -1.000
 5605.00    1.92758   1.84420   -1.000
 5606.00    1.97199   1.87854   -1.000
 5607.00    1.97208   1.90323   -1.000
 5608.00    1.96825   1.91681   -1.000
 5609.00    1.96809   1.92234   -1.000
 5610.00    1.96399   1.92380   -1.000
 5611.00    1.96999   1.92189   -1.000
 5612.00    1.95720   1.91255   -1.000
 5613.00    1.91753   1.88995   -1.000
 5614.00    1.86097   1.85435   82.740
 5615.00    1.83057   1.81663   80.671
 5616.00    1.84316   1.79335   -1.000
 5617.00    1.85435   1.79509   -1.000
 5618.00    1.89198   1.81497   -1.000
 5619.00    1.92966   1.83933   -1.000
 5620.00    1.94113   1.85857   -1.000
 5621.00    1.97400   1.86915   -1.000
 5622.00    1.96372   1.87020   -1.000
 5623.00    1.90994   1.86209   -1.000
 5624.00    1.90201   1.84905   -1.000
 5625.00    1.88963   1.84034   -1.000
 5626.00    1.87592   1.84291   78.352
 5627.00    1.93455   1.85647   -1.000
 5628.00    1.97056   1.87475   -1.000
 5629.00    1.97155   1.89086   -1.000
 5630.00    1.97807   1.90187   -1.000
 5631.00    1.98973   1.90725   -1.000
 5632.00    1.95836   1.90719   -1.000
 5633.00    1.96087   1.90268   -1.000
 5634.00    1.95195   1.89493   -1.000
 5635.00    1.96021   1.88517   -1.000
 5636.00    1.95278   1.87556   -1.000
 5637.00    1.93505   1.86815   -1.000
 5638.00    1.91200   1.86420   -1.000
 5639.00    1.93063   1.86342   -1.000
 5640.00    1.90392   1.86359   -1.000
 5641.00    1.92797   1.86314   -1.000
 5642.00    1.92153   1.86357   -1.000
 5643.00    1.93366   1.86626   -1.000
 5644.00    1.95600   1.87075   -1.000
 5645.00    1.96468   1.87616   -1.000
 5646.00    1.95791   1.88136   -1.000
 5647.00    1.96546   1.88484   -1.000
 5648.00    1.95334   1.88583   -1.000
 5649.00    1.94700   1.88517   -1.000
 5650.00    1.95226   1.88489   -1.000
 5651.00    1.95428   1.88638   -1.000
 5652.00    1.96883   1.88792   -1.000
 5653.00    1.94539   1.88648   -1.000
 5654.00    1.92626   1.87991   -1.000
 5655.00    1.95622   1.86752   -1.000
 5656.00    1.91639   1.84954   -1.000
 5657.00    1.86759   1.82756   -1.000
 5658.00    1.82188   1.80745   81.723
 5659.00    1.82846   1.79784   81.629
 5660.00    1.89592   1.80148   -1.000
 5661.00    1.90262   1.81296   -1.000
 5662.00    1.90559   1.82599   -1.000
 5663.00    1.92380   1.83818   -1.000
 5664.00    1.93003   1.85111   -1.000
 5665.00    1.93631   1.86433   -1.000
 5666.00    1.92345   1.87327   -1.000
 5667.00    1.94381   1.87590   -1.000
 5668.00    1.94085   1.87508   -1.000
 5669.00    1.91220   1.87518   -1.000
 5670.00    1.95868   1.87900   -1.000
 5671.00    1.98483   1.88615   -1.000
 5672.00    1.98742   1.89476   -1.000
 5673.00    1.98789   1.90251   -1.000
 5674.00    1.95240   1.90800   -1.000
 5675.00    1.95280   1.91069   -1.000
 5676.00    1.96542   1.91190   -1.000
 5677.00    1.97039   1.91263   -1.000
 5678.00    1.96406   1.91192   -1.000
 5679.00    1.96660   1.90743   -1.000
 5680.00    1.96231   1.89744   -1.000
 5681.00    1.96762   1.88228   -1.000
 5682.00    1.92153   1.86524   -1.000
 5683.00    1.91601   1.85199   -1.000
 5684.00    1.92489   1.84664   -1.000
 5685.00    1.90281   1.84854   -1.000
 5686.00    1.88770   1.85181   -1.000
 5687.00    1.90411   1.85147   -1.000
 5688.00    1.92003   1.84920   -1.000
 5689.00    1.91346   1.85065   -1.000
 5690.00    1.94852   1.86005   -1.000
 5691.00    1.98786   1.87584   -1.000
 5692.00    1.98998   1.89226   -1.000
 5693.00    1.98431   1.90469   -1.000
 5694.00    1.97660   1.91170   -1.000
 5695.00    1.99703   1.91427   -1.000
 5696.00    1.97560   1.91302   -1.000
 5697.00    1.98062   1.90831   -1.000
 5698.00    1.96357   1.89987   -1.000
 5699.00    1.90294   1.88846   81.521
 5700.00    1.89392   1.87680   80.771
 5701.00    1.88762   1.86797   79.967
 5702.00    1.90428   1.86443   -1.000
 5703.00    1.92297   1.86552   -1.000
 5704.00    1.93414   1.86806   -1.000
 5705.00    1.91864   1.86688   -1.000
 5706.00    1.89239   1.85854   -1.000
 5707.00    1.87573   1.84320   -1.000
 5708.00    1.86838   1.82370   -1.000
 5709.00    1.84953   1.80559   -1.000
 5710.00    1.83686   1.79600   -1.000
 5711.00    1.86688   1.79938   -1.000
 5712.00    1.89754   1.81568   -1.000
 5713.00    1.90572   1.84108   -1.000
 5714.00    1.96156   1.86813   -1.000
 5715.00    1.98677   1.89006   -1.000
 5716.00    1.96823   1.90417   -1.000
 5717.00    1.97623   1.91306   -1.000
 5718.00    1.98103   1.92015   -1.000
 5719.00    2.01003   1.92777   -1.000
 5720.00    2.02665   1.93637   -1.000
 5721.00    2.03347   1.94500   -1.000
 5722.00    2.02523   1.95194   -1.000
 5723.00    2.04040   1.95593   -1.000
 5724.00    2.01389   1.95608   -1.000
 5725.00    2.00033   1.95183   -1.000
 5726.00    1.97860   1.94368   -1.000
 5727.00    1.96441   1.93508   77.826
 5728.00    1.98184   1.92988   -1.000
 5729.00    1.99431   1.92895   -1.000
 5730.00    1.99644   1.93022   -1.000
 5731.00    1.98588   1.93101   -1.000
 5732.00    1.97885   1.93221   -1.000
 5733.00    1.99554   1.93632   -1.000
 5734.00    1.98355   1.94347   -1.000
 5735.00    1.99739   1.95071   -1.000
 5736.00    2.01229   1.95461   -1.000
 5737.00    2.00977   1.95490   -1.000
 5738.00    1.98980   1.95351   -1.000
 5739.00    1.99139   1.95236   -1.000
 5740.00    1.99025   1.95162   -1.000
 5741.00    2.01192   1.95050   -1.000
 5742.00    1.98850   1.94913   -1.000
 5743.00    1.97304   1.94912   76.590
 5744.00    1.99502   1.95099   -1.000
 5745.00    2.00243   1.95346   -1.000
 5746.00    1.98186   1.95376   78.048
 5747.00    1.96786   1.95155   77.522
 5748.00    1.98612   1.94921   -1.000
 5749.00    2.01162   1.94842   -1.000
 5750.00    1.99146   1.94703   -1.000
 5751.00    1.97277   1.94063   -1.000
 5752.00    1.93283   1.92861   79.581
 5753.00    1.92319   1.91622   78.389
 5754.00    1.92317   1.91079   76.948
 5755.00    1.95921   1.91721   -1.000
 5756.00    1.98736   1.93264   -1.000
 5757.00    2.00643   1.94986   -1.000
 5758.00    2.02548   1.96109   -1.000
 5759.00    2.02629   1.96246   -1.000
 5760.00    1.99355   1.95430   -1.000
 5761.00    1.94707   1.94048   78.751
 5762.00    1.93747   1.92728   77.342
 5763.00    1.95849   1.92244   -1.000
 5764.00    1.98526   1.92938   -1.000
 5765.00    2.01019   1.94513   -1.000
 5766.00    2.01521   1.96199   -1.000
 5767.00    2.01124   1.97341   -1.000
 5768.00    2.01410   1.97813   -1.000
 5769.00    2.01130   1.97808   -1.000
 5770.00    2.00971   1.97531   -1.000
 5771.00    1.98525   1.97038   77.768
 5772.00    1.98176   1.96359   77.824
 5773.00    1.99372   1.95645   -1.000
 5774.00    1.95704   1.95153   77.223
 5775.00    1.92670   1.95008   77.235
 5776.00    1.93374   1.95140   77.624
 5777.00    1.95514   1.95224   78.948
 5778.00    1.91552   1.94780   80.713
 5779.00    1.88011   1.93567   -1.000
 5780.00    1.89187   1.91821   81.201
 5781.00    1.91308   1.90067   80.883
 5782.00    1.95060   1.88881   -1.000
 5783.00    1.96488   1.88456   -1.000
 5784.00    1.94051   1.88638   -1.000
 5785.00    1.92439   1.89183   78.219
 5786.00    1.96929   1.90039   -1.000
 5787.00    1.98379   1.91242   -1.000
 5788.00    2.00430   1.92469   -1.000
 5789.00    2.00448   1.93253   -1.000
 5790.00    1.97207   1.93490   -1.000
 5791.00    1.96521   1.93517   76.840
 5792.00    1.96205   1.93890   76.435
 5793.00    1.95212   1.94785   76.500
 5794.00    1.96056   1.95930   77.019
 5795.00    1.98011   1.96897   77.394
 5796.00    1.98336   1.97341   76.838
 5797.00    1.99396   1.97248   75.785
 5798.00    2.00944   1.97012   -1.000
 5799.00    2.03239   1.97148   -1.000
 5800.00    2.03606   1.97729   -1.000
 5801.00    2.03189   1.98422   -1.000
 5802.00    2.04214   1.98795   -1.000
 5803.00    2.04218   1.98604   -1.000
 5804.00    1.98851   1.97957   76.756
 5805.00    1.99206   1.97241   76.468
 5806.00    2.00694   1.96848   -1.000
 5807.00    1.99978   1.96888   -1.000
 5808.00    1.97491   1.97215   76.175
 5809.00    1.99504   1.97624   75.872
 5810.00    2.04570   1.98016   -1.000
 5811.00    2.04753   1.98292   -1.000
 5812.00    2.04781   1.98329   -1.000
 5813.00    2.05793   1.98044   -1.000
 5814.00    2.03318   1.97461   -1.000
 5815.00    2.00800   1.96746   -1.000
 5816.00    1.99244   1.96282   75.421
 5817.00    2.02534   1.96444   -1.000
 5818.00    2.07702   1.97220   -1.000
 5819.00    2.08109   1.98149   -1.000
 5820.00    2.09043   1.98813   -1.000
 5821.00    2.08449   1.99113   -1.000
 5822.00    2.05076   1.99191   -1.000
 5823.00    2.03138   1.99200   -1.000
 5824.00    2.04877   1.99192   -1.000
 5825.00    2.04369   1.99204   -1.000
 5826.00    2.04953   1.99310   -1.000
 5827.00    2.05984   1.99513   -1.000
 5828.00    2.06410   1.99740   -1.000
 5829.00    2.06825   1.99878   -1.000
 5830.00    2.07738   1.99903   -1.000
 5831.00    2.07358   1.99828   -1.000
 5832.00    2.04370   1.99656   -1.000
 5833.00    2.04919   1.99405   -1.000
 5834.00    2.08115   1.99139   -1.000
 5835.00    2.05717   1.99017   -1.000
 5836.00    2.04234   1.99129   -1.000
 5837.00    2.02885   1.99408   -1.000
 5838.00    2.04697   1.99665   -1.000
 5839.00    2.05305   1.99846   -1.000
 5840.00    2.05774   2.00015   -1.000
 5841.00    2.05519   2.00195   -1.000
 5842.00    2.03852   2.00289   -1.000
 5843.00    2.05326   2.00193   -1.000
 5844.00    2.06713   1.99877   -1.000
 5845.00    2.05059   1.99365   -1.000
 5846.00    2.04160   1.98747   -1.000
 5847.00    2.05703   1.98204   -1.000
 5848.00    2.04865   1.97871   -1.000
 5849.00    2.03231   1.97658   -1.000
 5850.00    2.04673   1.97260   -1.000
 5851.00    2.05025   1.96496   -1.000
 5852.00    2.04241   1.95399   -1.000
 5853.00    2.02917   1.94236   -1.000
 5854.00    2.00723   1.93125   -1.000
 5855.00    1.98442   1.91935   -1.000
 5856.00    1.99101   1.90493   -1.000
 5857.00    1.96410   1.88946   -1.000
 5858.00    1.98531   1.88100   -1.000
 5859.00    1.99181   1.88567   -1.000
 5860.00    1.99725   1.90056   -1.000
 5861.00    2.00611   1.91863   -1.000
 5862.00    2.02421   1.93362   -1.000
 5863.00    2.01615   1.94378   -1.000
 5864.00    2.03436   1.94964   -1.000
 5865.00    2.05308   1.95032   -1.000
 5866.00    2.03583   1.94716   -1.000
 5867.00    2.04687   1.94458   -1.000
 5868.00    2.06137   1.94695   -1.000
 5869.00    2.04389   1.95573   -1.000
 5870.00    2.02766   1.96715   -1.000
 5871.00    2.04647   1.97598   -1.000
 5872.00    2.07382   1.97924   -1.000
 5873.00    2.05913   1.97782   -1.000
 5874.00    2.03642   1.97432   -1.000
 5875.00    2.06213   1.97060   -1.000
 5876.00    2.07171   1.96674   -1.000
 5877.00    2.04380   1.96206   -1.000
 5878.00    2.03039   1.95605   -1.000
 5879.00    2.02327   1.94884   -1.000
 5880.00    2.01658   1.94108   -1.000
 5881.00    2.01279   1.93316   -1.000
 5882.00    2.01818   1.92448   -1.000
 5883.00    1.98513   1.91460   -1.000
 5884.00    1.93534   1.90305   -1.000
 5885.00    1.80978   1.88690   -1.000
 5886.00    1.66673   1.85883   -1.000
 5887.00    1.52806   1.80846   -1.000
 5888.00    1.51623   1.73404   -1.000
 5889.00    1.56267   1.65286   -1.000
 5890.00    1.61999   1.59352   88.106
 5891.00    1.61518   1.57881   -1.000
 5892.00    1.58892   1.59725   88.699
 5893.00    1.54181   1.62144   -1.000
 5894.00    1.56898   1.62958   -1.000
 5895.00    1.66181   1.62119   -1.000
 5896.00    1.76912   1.61544   -1.000
 5897.00    1.84799   1.63120   -1.000
 5898.00    1.90710   1.67421   -1.000
 5899.00    1.94395   1.73067   -1.000
 5900.00    1.98290   1.78632   -1.000
 5901.00    2.02034   1.83401   -1.000
 5902.00    2.04213   1.87054   -1.000
 5903.00    2.02584   1.89557   -1.000
 5904.00    2.02156   1.91086   -1.000
 5905.00    1.99670   1.91956   -1.000
 5906.00    2.00755   1.92559   -1.000
 5907.00    1.99636   1.93093   -1.000
 5908.00    2.01763   1.93606   -1.000
 5909.00    2.03843   1.94059   -1.000
 5910.00    2.04069   1.94353   -1.000
 5911.00    2.04538   1.94325   -1.000
 5912.00    2.02231   1.93842   -1.000
 5913.00    1.95791   1.92895   -1.000
 5914.00    1.95077   1.91830   -1.000
 5915.00    1.98284   1.91139   -1.000
 5916.00    2.00921   1.91105   -1.000
 5917.00    1.99655   1.91734   -1.000
 5918.00    1.98364   1.92745   -1.000
 5919.00    2.01785   1.93753   -1.000
 5920.00    2.02938   1.94421   -1.000
 5921.00    2.02846   1.94720   -1.000
 5922.00    2.03654   1.94776   -1.000
 5923.00    2.02995   1.94837   -1.000
 5924.00    2.02485   1.95055   -1.000
 5925.00    2.03944   1.95410   -1.000
 5926.00    2.06928   1.95682   -1.000
 5927.00    2.06949   1.95568   -1.000
 5928.00    2.02392   1.94966   -1.000
 5929.00    1.99607   1.94146   -1.000
 5930.00    2.00522   1.93607   -1.000
 5931.00    2.01399   1.93625   -1.000
 5932.00    2.03318   1.94086   -1.000
 5933.00    2.04518   1.94544   -1.000
 5934.00    2.04582   1.94834   -1.000
 5935.00    2.03664   1.95177   -1.000
 5936.00    2.03785   1.95685   -1.000
 5937.00    2.04876   1.96234   -1.000
 5938.00    2.00925   1.96548   -1.000
 5939.00    2.02672   1.96415   -1.000
 5940.00    2.00974   1.95927   -1.000
 5941.00    2.01967   1.95363   -1.000
 5942.00    2.01764   1.95088   -1.000
 5943.00    2.00313   1.95204   -1.000
 5944.00    2.01796   1.95575   -1.000
 5945.00    2.02624   1.95898   -1.000
 5946.00    2.00976   1.95916   -1.000
 5947.00    2.01437   1.95565   -1.000
 5948.00    2.01460   1.95042   -1.000
 5949.00    2.01005   1.94679   -1.000
 5950.00    2.02000   1.94571   -1.000
 5951.00    2.01829   1.94591   -1.000
 5952.00    2.03684   1.94492   -1.000
 5953.00    2.01924   1.94316   -1.000
 5954.00    2.01220   1.94271   -1.000
 5955.00    2.02925   1.94279   -1.000
 5956.00    2.03862   1.94223   -1.000
 5957.00    1.99566   1.94277   -1.000
 5958.00    2.04038   1.94634   -1.000
 5959.00    2.04395   1.95389   -1.000
 5960.00    2.04272   1.96368   -1.000
 5961.00    2.04176   1.97225   -1.000
 5962.00    2.04434   1.97742   -1.000
 5963.00    2.03997   1.97855   -1.000
 5964.00    2.02785   1.97631   -1.000
 5965.00    2.01500   1.97249   -1.000
 5966.00    2.02062   1.96940   -1.000
 5967.00    2.05112   1.96884   -1.000
 5968.00    2.04618   1.97136   -1.000
 5969.00    2.02033   1.97594   -1.000
 5970.00    2.02938   1.98140   -1.000
 5971.00    2.04357   1.98580   -1.000
 5972.00    2.03958   1.98719   -1.000
 5973.00    2.01953   1.98444   -1.000
 5974.00    2.00607   1.97717   -1.000
 5975.00    2.01505   1.96663   -1.000
 5976.00    2.01717   1.95617   -1.000
 5977.00    2.01980   1.94994   -1.000
 5978.00    2.02879   1.95075   -1.000
 5979.00    2.04130   1.95717   -1.000
 5980.00    2.04069   1.96487   -1.000
 5981.00    2.04499   1.96826   -1.000
 5982.00    2.02521   1.96447   -1.000
 5983.00    2.01625   1.95498   -1.000
 5984.00    2.01626   1.94523   -1.000
 5985.00    2.00419   1.94094   -1.000
 5986.00    2.01278   1.94378   -1.000
 5987.00    2.00714   1.95151   -1.000
 5988.00    2.00674   1.96023   -1.000
 5989.00    2.02810   1.96744   -1.000
 5990.00    2.03546   1.97230   -1.000
 5991.00    2.04283   1.97622   -1.000
 5992.00    2.02627   1.98093   -1.000
 5993.00    2.03002   1.98717   -1.000
 5994.00    2.05939   1.99215   -1.000
 5995.00    2.06152   1.99234   -1.000
 5996.00    2.04532   1.98810   -1.000
 5997.00    2.01963   1.98197   -1.000
 5998.00    2.03709   1.97760   -1.000
 5999.00    2.04159   1.97594   -1.000
 6000.00    2.02835   1.97544   -1.000
 6001.00    2.01879   1.97371   -1.000
 6002.00    2.01872   1.97006   -1.000
 6003.00    2.02729   1.96606   -1.000
 6004.00    2.01160   1.96321   -1.000
 6005.00    2.01696   1.96038   -1.000
 6006.00    2.02807   1.95486   -1.000
 6007.00    2.00575   1.94704   -1.000
 6008.00    1.99329   1.94206   -1.000
 6009.00    2.00486   1.94420   -1.000
 6010.00    2.03014   1.95279   -1.000
 6011.00    2.01775   1.96199   -1.000
 6012.00    2.01203   1.96612   -1.000
 6013.00    2.00836   1.96538   -1.000
 6014.00    2.01483   1.96199   -1.000
 6015.00    2.01570   1.95879   -1.000
 6016.00    2.03605   1.95637   -1.000
 6017.00    2.02647   1.95401   -1.000
 6018.00    2.03646   1.95071   -1.000
 6019.00    1.98241   1.94587   -1.000
 6020.00    1.97259   1.94055   -1.000
 6021.00    1.96652   1.93705   -1.000
 6022.00    1.98099   1.93756   -1.000
 6023.00    2.01678   1.94163   -1.000
 6024.00    2.00281   1.94855   -1.000
 6025.00    2.01455   1.95867   -1.000
 6026.00    2.02201   1.97074   -1.000
 6027.00    2.04004   1.98198   -1.000
 6028.00    2.05180   1.99161   -1.000
 6029.00    2.06646   1.99961   -1.000
 6030.00    2.06534   2.00561   -1.000
 6031.00    2.06227   2.00971   -1.000
 6032.00    2.05382   2.01285   -1.000
 6033.00    2.06969   2.01588   -1.000
 6034.00    2.08729   2.01871   -1.000
 6035.00    2.06708   2.02040   -1.000
 6036.00    2.07053   2.02017   -1.000
 6037.00    2.08896   2.01820   -1.000
 6038.00    2.06150   2.01470   -1.000
 6039.00    2.03448   2.01019   78.217
 6040.00    2.01913   2.00581   78.058
 6041.00    2.03085   2.00305   -1.000
 6042.00    2.04208   2.00315   -1.000
 6043.00    2.07127   2.00617   -1.000
 6044.00    2.07472   2.01119   -1.000
 6045.00    2.05648   2.01689   -1.000
 6046.00    2.07046   2.02202   -1.000
 6047.00    2.07468   2.02677   -1.000
 6048.00    2.06097   2.03092   -1.000
 6049.00    2.05643   2.03381   77.711
 6050.00    2.06833   2.03473   -1.000
 6051.00    2.07550   2.03314   -1.000
 6052.00    2.08651   2.02913   -1.000
 6053.00    2.09221   2.02244   -1.000
 6054.00    2.05758   2.01421   -1.000
 6055.00    2.03110   2.00650   78.792
 6056.00    2.02491   2.00226   78.347
 6057.00    2.03870   2.00282   -1.000
 6058.00    2.05625   2.00751   -1.000
 6059.00    2.06684   2.01347   -1.000
 6060.00    2.09221   2.01777   -1.000
 6061.00    2.08240   2.01785   -1.000
 6062.00    2.04067   2.01162   -1.000
 6063.00    2.02219   1.99932   66.575
 6064.00    1.89990   1.98442   27.642
 6065.00    1.74581   1.97340   -1.000
 6066.00    0.98300   1.97306   -1.000
 6067.00    0.89862   1.98385   -1.000
 6068.00    1.97750   2.00000   75.782
 6069.00    2.03726   2.01581   75.580
 6070.00    1.89230   2.02732   -1.000
 6071.00    1.77606   2.03431   -1.000
 6072.00    1.10490   2.03818   -1.000
 6073.00    0.93763   2.04026   -1.000
 6074.00    2.13015   2.04074   -1.000
 6075.00    2.04971   2.03861   78.823
 6076.00    2.02987   2.03311   79.423
 6077.00    2.03048   2.02466   79.776
 6078.00    2.02903   2.01480   79.778
 6079.00    2.02248   2.00624   79.903
 6080.00    2.01701   2.00049   80.090
 6081.00    2.02004   1.99644   80.039
 6082.00    2.03697   1.99321   -1.000
 6083.00    2.02989   1.99096   -1.000
 6084.00    2.03698   1.99016   -1.000
 6085.00    2.03918   1.99177   -1.000
 6086.00    2.01858   1.99577   79.665
 6087.00    2.00980   2.00066   80.143
 6088.00    2.02359   2.00360   80.362
 6089.00    2.02160   2.00319   80.156
 6090.00    2.01469   2.00055   79.621
 6091.00    2.01821   1.99807   79.231
 6092.00    2.03022   1.99844   -1.000
 6093.00    2.03028   2.00221   78.568
 6094.00    2.06249   2.00850   -1.000
 6095.00    2.06297   2.01527   -1.000
 6096.00    2.04287   2.02109   78.873
 6097.00    2.04002   2.02463   79.121
 6098.00    2.03602   2.02387   80.440
 6099.00    2.04300   2.01593   -1.000
 6100.00    2.01125   1.99799   83.064
 6101.00    1.98073   1.97184   82.000
 6102.00    1.97667   1.94580   -1.000
 6103.00    1.96450   1.93141   -1.000
 6104.00    1.97751   1.93608   -1.000
 6105.00    2.00906   1.95460   -1.000
 6106.00    2.01017   1.97733   -1.000
 6107.00    2.02776   1.99686   -1.000
 6108.00    2.02311   2.01056   79.611
 6109.00    2.01098   2.01955   79.331
 6110.00    2.02891   2.02475   79.246
 6111.00    2.02394   2.02734   78.834
 6112.00    2.01123   2.02936   78.810
 6113.00    2.00849   2.03181   79.225
 6114.00    2.04481   2.03443   79.657
 6115.00    2.05230   2.03593   79.793
 6116.00    2.03884   2.03492   80.425
 6117.00    2.02718   2.03098   81.645
 6118.00    2.02437   2.02227   82.603
 6119.00    2.01008   2.00594   83.169
 6120.00    1.98648   1.98171   82.771
 6121.00    1.95300   1.95379   81.363
 6122.00    1.93943   1.93197   80.643
 6123.00    1.99208   1.92495   -1.000
 6124.00    2.02803   1.93334   -1.000
 6125.00    2.02480   1.95190   -1.000
 6126.00    2.01196   1.97177   -1.000
 6127.00    2.01581   1.98823   -1.000
 6128.00    2.01896   2.00046   79.370
 6129.00    2.01469   2.01085   79.356
 6130.00    2.02081   2.02068   79.700
 6131.00    2.01870   2.02918   80.806
 6132.00    2.01344   2.03318   82.904
 6133.00    2.00324   2.02770   85.318
 6134.00    2.00426   2.00830   86.891
 6135.00    1.97494   1.97590   86.259
 6136.00    1.90281   1.93966   83.790
 6137.00    1.87314   1.91243   81.822
 6138.00    1.90810   1.90360   81.358
 6139.00    1.94980   1.91015   -1.000
 6140.00    1.96146   1.92460   -1.000
 6141.00    1.97712   1.94414   -1.000
 6142.00    1.98624   1.96601   79.739
 6143.00    1.97707   1.98816   79.847
 6144.00    2.00367   2.00651   80.295
 6145.00    2.02304   2.01728   80.837
 6146.00    2.00259   2.02035   81.398
 6147.00    2.00100   2.01713   81.727
 6148.00    2.00611   2.01005   81.597
 6149.00    1.99018   2.00182   81.192
 6150.00    1.98822   1.99516   80.731
 6151.00    1.98410   1.99276   80.911
 6152.00    1.99191   1.99479   81.602
 6153.00    2.00468   1.99704   81.875
 6154.00    1.95911   1.99604   81.982
 6155.00    1.95403   1.99230   82.512
 6156.00    1.97175   1.98752   83.643
 6157.00    1.96214   1.98136   85.584
 6158.00    1.93671   1.96917   88.254
 6159.00    1.92792   1.94543   90.298
 6160.00    1.90995   1.90819   90.338
 6161.00    1.84183   1.86488   88.449
 6162.00    1.82301   1.82924   86.225
 6163.00    1.85950   1.81391   -1.000
 6164.00    1.90735   1.82137   -1.000
 6165.00    1.93878   1.84234   -1.000
 6166.00    1.95648   1.86453   -1.000
 6167.00    1.93427   1.87721   -1.000
 6168.00    1.89389   1.87877   86.149
 6169.00    1.89354   1.87526   84.523
 6170.00    1.90733   1.87831   -1.000
 6171.00    1.93223   1.89181   -1.000
 6172.00    1.95132   1.91217   -1.000
 6173.00    1.95699   1.93317   83.727
 6174.00    1.95649   1.94986   83.557
 6175.00    1.93109   1.96112   83.265
 6176.00    1.95399   1.96814   82.865
 6177.00    1.99469   1.97353   82.592
 6178.00    1.98401   1.97842   82.293
 6179.00    1.98288   1.98319   81.947
 6180.00    1.99402   1.98832   81.874
 6181.00    2.00173   1.99411   82.115
 6182.00    1.98022   1.99943   82.523
 6183.00    1.98693   2.00207   83.300
 6184.00    1.99044   2.00028   84.221
 6185.00    1.98020   1.99413   85.061
 6186.00    1.98434   1.98462   85.805
 6187.00    1.98427   1.97305   86.557
 6188.00    1.98573   1.95977   87.584
 6189.00    1.97378   1.94424   -1.000
 6190.00    1.93745   1.92802   86.080
 6191.00    1.93233   1.91637   84.054
 6192.00    1.92078   1.91648   83.046
 6193.00    1.93947   1.92888   82.733
 6194.00    1.95627   1.94731   82.845
 6195.00    1.97248   1.96560   83.590
 6196.00    1.97693   1.97859   84.515
 6197.00    1.96522   1.98444   84.924
 6198.00    1.96861   1.98356   84.519
 6199.00    1.94867   1.97908   83.520
 6200.00    1.92041   1.97561   -1.000
 6201.00    1.92963   1.97731   -1.000
 6202.00    1.96002   1.98414   82.623
 6203.00    2.00742   1.99406   82.505
 6204.00    2.01009   2.00388   82.624
 6205.00    1.99523   2.01162   82.877
 6206.00    1.98493   2.01657   82.941
 6207.00    2.00478   2.01899   83.485
 6208.00    2.02605   2.01851   84.256
 6209.00    2.00246   2.01407   84.945
 6210.00    1.98307   2.00436   85.950
 6211.00    1.96889   1.98925   87.177
 6212.00    1.97499   1.97052   87.787
 6213.00    1.97413   1.95215   87.511
 6214.00    1.94776   1.93832   86.445
 6215.00    1.93953   1.93081   86.480
 6216.00    1.94672   1.92790   86.935
 6217.00    1.92975   1.92679   86.376
 6218.00    1.94581   1.92523   86.094
 6219.00    1.95474   1.92480   -1.000
 6220.00    1.95602   1.92744   -1.000
 6221.00    1.95212   1.93402   88.131
 6222.00    1.95359   1.94226   85.306
 6223.00    1.89371   1.94912   -1.000
 6224.00    1.72247   1.95384   -1.000
 6225.00    1.89106   1.95555   -1.000
 6226.00    2.00292   1.95366   -1.000
 6227.00    1.94653   1.94621   89.221
 6228.00    1.92750   1.93188   89.828
 6229.00    1.92889   1.91276   88.987
 6230.00    1.91473   1.89500   87.500
 6231.00    1.88880   1.88626   85.885
 6232.00    1.90716   1.89050   84.842
 6233.00    1.94189   1.90523   -1.000
 6234.00    1.96558   1.92383   -1.000
 6235.00    1.95519   1.93860   86.506
 6236.00    1.95227   1.94598   87.397
 6237.00    1.97178   1.94557   -1.000
 6238.00    1.97033   1.94068   -1.000
 6239.00    1.95614   1.93401   88.478
 6240.00    1.94030   1.92716   89.189
 6241.00    1.94921   1.91989   -1.000
 6242.00    1.94276   1.91129   -1.000
 6243.00    1.91114   1.90124   88.535
 6244.00    1.89338   1.89181   87.547
 6245.00    1.91084   1.88669   86.474
 6246.00    1.91687   1.88952   85.863
 6247.00    1.92193   1.90158   86.146
 6248.00    1.93816   1.91823   87.290
 6249.00    1.95349   1.93214   88.809
 6250.00    1.96761   1.93568   -1.000
 6251.00    1.94213   1.92754   90.127
 6252.00    1.91114   1.91163   90.251
 6253.00    1.88517   1.89538   90.471
 6254.00    1.86703   1.88418   91.385
 6255.00    1.87285   1.87874   91.785
 6256.00    1.88992   1.87736   90.942
 6257.00    1.89087   1.87772   89.490
 6258.00    1.89145   1.88078   88.201
 6259.00    1.91154   1.88810   86.958
 6260.00    1.93740   1.90103   -1.000
 6261.00    1.95896   1.91788   -1.000
 6262.00    1.96272   1.93502   -1.000
 6263.00    1.96270   1.94856   86.901
 6264.00    1.96632   1.95699   86.338
 6265.00    1.96919   1.96232   86.007
 6266.00    1.92355   1.96664   -1.000
 6267.00    1.91373   1.97040   -1.000
 6268.00    1.94203   1.97224   86.475
 6269.00    1.94734   1.97167   86.197
 6270.00    1.94737   1.97044   86.149
 6271.00    1.95069   1.97018   86.550
 6272.00    1.96018   1.96991   87.239
 6273.00    1.94419   1.96666   88.177
 6274.00    1.89544   1.95692   -1.000
 6275.00    1.86324   1.94153   -1.000
 6276.00    1.84305   1.92331   -1.000
 6277.00    1.84194   1.90700   -1.000
 6278.00    1.83898   1.89567   -1.000
 6279.00    1.80688   1.89078   -1.000
 6280.00    1.78584   1.89354   -1.000
 6281.00    1.80999   1.90428   -1.000
 6282.00    1.84078   1.92079   -1.000
 6283.00    1.85779   1.94010   -1.000
 6284.00    1.88961   1.95773   -1.000
 6285.00    1.94331   1.97133   85.465
 6286.00    1.95568   1.97989   85.545
 6287.00    1.94518   1.98386   86.148
 6288.00    1.95052   1.98388   86.871
 6289.00    1.95047   1.98043   87.344
 6290.00    1.95616   1.97519   87.444
 6291.00    1.94813   1.97027   87.559
 6292.00    1.94191   1.96672   87.899
 6293.00    1.94659   1.96441   88.597
 6294.00    1.95013   1.96162   89.011
 6295.00    1.94655   1.95659   89.014
 6296.00    1.98736   1.94873   -1.000
 6297.00    2.01435   1.93987   -1.000
 6298.00    2.04451   1.93230   -1.000
 6299.00    2.05368   1.92662   -1.000
 6300.00    2.00666   1.92228   -1.000
 6301.00    1.93464   1.92036   88.600
 6302.00    1.90510   1.92397   87.265
 6303.00    1.91618   1.93533   86.340
 6304.00    1.93471   1.95198   85.609
 6305.00    1.93855   1.96911   85.043
 6306.00    1.95080   1.98273   85.141
 6307.00    1.96809   1.99136   85.626
 6308.00    1.97354   1.99543   86.136
 6309.00    1.97727   1.99649   86.451
 6310.00    1.96026   1.99567   86.717
 6311.00    1.93617   1.99274   -1.000
 6312.00    1.92954   1.98755   -1.000
 6313.00    1.91422   1.97963   -1.000
 6314.00    1.89355   1.96984   -1.000
 6315.00    1.90906   1.96016   -1.000
 6316.00    1.90054   1.95220   -1.000
 6317.00    1.87285   1.94790   -1.000
 6318.00    1.86742   1.94887   -1.000
 6319.00    1.91276   1.95592   -1.000
 6320.00    1.93935   1.96733   85.159
 6321.00    1.94944   1.97978   84.810
 6322.00    1.94712   1.99122   84.403
 6323.00    1.96874   2.00186   84.233
 6324.00    1.98437   2.01137   84.070
 6325.00    1.98644   2.01839   83.789
 6326.00    1.96024   2.02241   -1.000
 6327.00    1.96983   2.02358   -1.000
 6328.00    1.96971   2.02372   -1.000
 6329.00    2.00390   2.02401   83.613
 6330.00    1.98722   2.02479   83.622
 6331.00    1.96994   2.02510   -1.000
 6332.00    1.95075   2.02247   -1.000
 6333.00    1.94094   2.01437   -1.000
 6334.00    1.94485   2.00091   -1.000
 6335.00    1.99106   1.98617   85.065
 6336.00    2.05654   1.97590   -1.000
 6337.00    1.96124   1.97443   83.416
 6338.00    1.94918   1.98144   83.051
 6339.00    1.95461   1.99365   82.806
 6340.00    1.97226   2.00675   83.154
 6341.00    1.97276   2.01630   83.736
 6342.00    1.94806   2.02010   -1.000
 6343.00    1.95266   2.01912   -1.000
 6344.00    1.94970   2.01668   -1.000
 6345.00    1.94742   2.01656   -1.000
 6346.00    1.98248   2.02082   82.156
 6347.00    2.00046   2.02928   82.126
 6348.00    1.96690   2.03975   -1.000
 6349.00    1.97014   2.04890   -1.000
 6350.00    1.97600   2.05425   -1.000
 6351.00    1.95900   2.05470   -1.000
 6352.00    1.96362   2.05035   -1.000
 6353.00    1.96905   2.04244   -1.000
 6354.00    1.96028   2.03305   -1.000
 6355.00    1.94302   2.02410   -1.000
 6356.00    1.94431   2.01651   -1.000
 6357.00    1.95061   2.00935   -1.000
 6358.00    1.94583   2.00224   -1.000
 6359.00    1.95162   1.99558   -1.000
 6360.00    1.95991   1.98960   85.310
 6361.00    1.97252   1.98465   84.898
 6362.00    1.99401   1.98189   84.325
 6363.00    1.96788   1.98261   83.822
 6364.00    1.94024   1.98728   -1.000
 6365.00    1.96128   1.99521   82.799
 6366.00    1.96383   2.00465   82.369
 6367.00    1.97437   2.01368   82.281
 6368.00    1.97456   2.02057   82.234
 6369.00    1.97105   2.02495   -1.000
 6370.00    1.98289   2.02817   81.783
 6371.00    1.99959   2.03193   81.985
 6372.00    1.99716   2.03666   82.075
 6373.00    1.96716   2.04114   -1.000
 6374.00    1.95476   2.04362   -1.000
 6375.00    1.93251   2.04298   -1.000
 6376.00    1.92026   2.03956   -1.000
 6377.00    1.96164   2.03414   -1.000
 6378.00    1.95318   2.02813   -1.000
 6379.00    1.93849   2.02201   -1.000
 6380.00    1.94495   2.01644   -1.000
 6381.00    1.95984   2.01193   -1.000
 6382.00    1.95627   2.00943   -1.000
 6383.00    1.95214   2.00955   -1.000
 6384.00    1.94671   2.01250   -1.000
 6385.00    1.94630   2.01727   -1.000
 6386.00    1.95304   2.02213   -1.000
 6387.00    1.91990   2.02505   -1.000
 6388.00    1.92740   2.02551   -1.000
 6389.00    1.94429   2.02305   -1.000
 6390.00    1.92794   2.01724   -1.000
 6391.00    1.89323   2.00791   -1.000
 6392.00    1.88616   1.99731   -1.000
 6393.00    1.86346   1.99042   -1.000
 6394.00    1.84155   1.99070   -1.000
 6395.00    1.83337   1.99767   -1.000
 6396.00    1.86563   2.00542   -1.000
 6397.00    1.87996   2.00757   -1.000
 6398.00    1.84149   2.00188   -1.000
 6399.00    1.80296   1.99239   -1.000
 6400.00    1.77126   1.98741   -1.000
 6401.00    1.77868   1.99169   -1.000
 6402.00    1.80569   2.00468   -1.000
 6403.00    1.82450   2.02025   -1.000
 6404.00    1.81730   2.03180   -1.000
 6405.00    1.81594   2.03537   -1.000
 6406.00    1.80743   2.03163   -1.000
 6407.00    1.78199   2.02507   -1.000
 6408.00    1.74614   2.01966   -1.000
 6409.00    1.71021   2.01700   -1.000
 6410.00    1.70360   2.01555   -1.000
 6411.00    1.71945   2.01521   -1.000
 6412.00    1.72735   2.01703   -1.000
 6413.00    1.70777   2.02135   -1.000
 6414.00    1.70838   2.02686   -1.000
 6415.00    1.71486   2.03158   -1.000
 6416.00    1.70129   2.03354   -1.000
 6417.00    1.70114   2.03150   -1.000
 6418.00    1.68716   2.02485   -1.000
 6419.00    1.64192   2.01532   -1.000
 6420.00    1.60696   2.00765   -1.000
 6421.00    1.58881   2.00662   -1.000
 6422.00    1.58573   2.01485   -1.000
 6423.00    1.59434   2.02969   -1.000
 6424.00    1.60854   2.04567   -1.000
 6425.00    1.59035   2.05899   -1.000
 6426.00    1.58725   2.06630   -1.000
 6427.00    1.58234   2.06608   -1.000
 6428.00    1.00453   2.05761   -1.000
