###################################################################
## OUTPUT of StarlightChains_v04.for    [Cid@UFSC - 01/Apr/2007] ##
###################################################################

## Some input info
NGC6316_b_1.cxt                          [arq_obs]
Base.BC03.N                              [arq_base]
NGC6316_b_1.msk                          [arq_masks]
StCv04.C99.config                        [arq_config]
   45                                    [N_base]
    0                                    [N_YAV_components = # of components with extra extinction!]
    0                                    [i_FitPowerLaw (1/0 = Yes/No)]
-9.99                                    [alpha_PowerLaw]
CCM                                      [red_law_option]
 1.458241                                [q_norm = A(l_norm)/A(V)]

## (Re)Sampling Parameters
 3359.00                                 [l_ini (A)]
 6428.00                                 [l_fin (A)]
    1.00                                 [dl    (A)]     (OBS: dl_cushion =    50.00 A)

## Normalization info
 4020.00                                 [l_norm (A) - for base]
 4010.00                                 [llow_norm (A) - window for f_obs]
 4060.00                                 [lupp_norm (A) - window for f_obs]
4.941922E-15                             [fobs_norm (in input units)]

## S/N
 4730.00                                 [llow_SN (A) - window for S/N]
 4780.00                                 [lupp_SN (A) - window for S/N]
  40.026                                 [S/N in S/N window]
  23.956                                 [S/N in norm. window]
 311.877                                 [S/N_err in S/N window]
 186.662                                 [S/N_err in norm. window]
  1.0000                                 [fscale_chi2]

## etc...
  2147483617                             [idum_orig]
  3069                                   [NOl_eff]
  1308                                   [Nl_eff]
  1761    NSIGMA                         [Ntot_cliped & clip_method]
  2377200                                [Nglobal_steps]
   7                                     [N_chains]
  15                                     [NEX0s_base = N_base in EX0s-fits]
 0   0   1      129   2.0   4.321E+02    [Clip-Bug, RC-Crash & Burn-In warning-flags, n_censored_weights, wei_nsig_threshold & wei_limit]
    28     28.013     28.009      0.004  [idt_all, wdt_TotTime, wdt_UsrTime & wdt_SysTime (sec)]

## Synthesis Results - Best model ##

 2.70340E+00                             [chi2/Nl_eff]
     2.08686                             [adev (%)]

    95.08218                             [sum-of-x (%)]
 7.12781E-14                             [Flux_tot (units of input spectrum!)]
 2.06845E-09                             [Mini_tot (???)]
 1.04842E-09                             [Mcor_tot (???)]

 -15.40                                  [v0_min  (km/s)]
  40.20                                  [vd_min  (km/s)]
 2.0246                                  [AV_min  (mag)]
 0.0000                                  [YAV_min (mag)]

# j     x_j(%)      Mini_j(%)     Mcor_j(%)     age_j(yr)     Z_j      (L/M)_j    YAV?  Mstars   component_j        a/Fe...       SSP_chi2r SSP_adev(%)   SSP_AV   SSP_x(%)
  1      7.6189     2.4787E-02    4.8902E-02    1.000000E+06  0.00400  1.114E-02    0   1.0000   age020_m42            0.0000     2.2055E+03    35.1533   4.0000    97.0464
  2      9.3003     8.2755E-03    1.6325E-02    3.160000E+06  0.00400  4.073E-02    0   0.9999   age045_m42            0.0000     3.6106E+02    13.6428   4.0000   101.9289
  3      1.6712     2.3902E-03    4.4742E-03    5.010000E+06  0.00400  2.534E-02    0   0.9488   age055_m42            0.0000     9.1279E+02    22.7592   4.0000   101.2510
  4      3.5367     1.0085E-02    1.7632E-02    1.000000E+07  0.00400  1.271E-02    0   0.8862   age070_m42            0.0000     2.3848E+02     6.8406   4.0000    95.5870
  5      0.0000     0.0000E+00    0.0000E+00    2.512000E+07  0.00400  5.070E-03    0   0.8174   age090_m42            0.0000     1.8369E+02     6.3441   4.0000    94.8152
  6      0.0000     0.0000E+00    0.0000E+00    4.000000E+07  0.00400  3.505E-03    0   0.7851   age104_m42            0.0000     1.3932E+02     5.1987   3.6967    96.4435
  7      0.0000     0.0000E+00    0.0000E+00    1.015200E+08  0.00400  2.268E-03    0   0.7207   age116_m42            0.0000     5.3280E+02    11.2153   3.5254   105.2498
  8      0.0000     0.0000E+00    0.0000E+00    2.861200E+08  0.00400  1.079E-03    0   0.6613   age125_m42            0.0000     5.6582E+02    12.0241   3.0252   106.5443
  9      0.0000     0.0000E+00    0.0000E+00    6.405400E+08  0.00400  5.077E-04    0   0.6197   age132_m42            0.0000     6.0768E+02    12.1487   2.6762   110.8107
 10      1.5670     1.6065E-01    1.9093E-01    9.047900E+08  0.00400  3.535E-04    0   0.6024   age135_m42            0.0000     4.4609E+02    11.0876   2.4428   110.0423
 11      0.0000     0.0000E+00    0.0000E+00    1.434000E+09  0.00400  1.910E-04    0   0.5716   age139_m42            0.0000     2.6260E+02    10.6444   1.9038   108.0151
 12      0.0000     0.0000E+00    0.0000E+00    2.500000E+09  0.00400  9.818E-05    0   0.5463   age150_m42            0.0000     1.1769E+02     9.2896   1.6247   103.2785
 13     28.9397     2.2230E+01    2.2929E+01    5.000000E+09  0.00400  4.718E-05    0   0.5228   age161_m42            0.0000     7.0460E+01     8.2479   1.4716    99.8604
 14     22.6776     3.7273E+01    3.6622E+01    1.100000E+10  0.00400  2.205E-05    0   0.4980   age185_m42            0.0000     9.9046E+01     9.6762   1.1862    97.3816
 15      9.2512     1.7806E+01    1.7308E+01    1.300000E+10  0.00400  1.883E-05    0   0.4927   age193_m42            0.0000     1.0582E+02     9.7582   1.1707    97.1776
 16      3.2373     5.8987E-03    1.1638E-02    1.000000E+06  0.02000  1.989E-02    0   1.0000   age020_m62            0.0000     2.1551E+03    34.3250   4.0000    97.6795
 17      0.0000     0.0000E+00    0.0000E+00    3.160000E+06  0.02000  3.772E-02    0   0.9858   age045_m62            0.0000     1.8254E+03    31.4392   4.0000    99.4973
 18      0.0000     0.0000E+00    0.0000E+00    5.010000E+06  0.02000  3.227E-02    0   0.9342   age055_m62            0.0000     6.7822E+02    19.5064   4.0000   102.6966
 19      0.7287     2.6121E-03    4.5097E-03    1.000000E+07  0.02000  1.011E-02    0   0.8751   age070_m62            0.0000     3.8738E+02     9.9018   4.0000    94.2849
 20      0.0000     0.0000E+00    0.0000E+00    2.512000E+07  0.02000  4.206E-03    0   0.8099   age090_m62            0.0000     2.7503E+02     8.3016   4.0000    92.9800
 21      0.0000     0.0000E+00    0.0000E+00    4.000000E+07  0.02000  3.373E-03    0   0.7799   age104_m62            0.0000     2.0643E+02     5.6161   3.8936    98.0048
 22      0.0000     0.0000E+00    0.0000E+00    1.015200E+08  0.02000  1.878E-03    0   0.7221   age116_m62            0.0000     4.7879E+02     9.6317   3.5957   105.6004
 23      0.0000     0.0000E+00    0.0000E+00    2.861200E+08  0.02000  8.869E-04    0   0.6700   age125_m62            0.0000     8.2866E+02    13.7472   3.0385   111.2418
 24      0.0000     0.0000E+00    0.0000E+00    6.405400E+08  0.02000  3.657E-04    0   0.6322   age132_m62            0.0000     6.2153E+02    14.4369   2.3200   113.9531
 25      0.0000     0.0000E+00    0.0000E+00    9.047900E+08  0.02000  2.312E-04    0   0.6152   age135_m62            0.0000     4.1816E+02    13.4055   1.9445   113.0479
 26      0.0000     0.0000E+00    0.0000E+00    1.434000E+09  0.02000  1.168E-04    0   0.5865   age139_m62            0.0000     1.8866E+02    11.0558   1.5448   107.1562
 27      0.0000     0.0000E+00    0.0000E+00    2.500000E+09  0.02000  5.505E-05    0   0.5610   age150_m62            0.0000     1.5553E+02    11.2040   1.1642   104.1525
 28      0.0013     1.8744E-03    1.9795E-03    5.000000E+09  0.02000  2.596E-05    0   0.5353   age161_m62            0.0000     2.3435E+02    13.5282   0.7924   103.8033
 29      1.7213     5.3366E+00    5.3727E+00    1.100000E+10  0.02000  1.169E-05    0   0.5103   age185_m62            0.0000     3.7280E+02    16.1260   0.3796   105.0635
 30      0.0000     0.0000E+00    0.0000E+00    1.300000E+10  0.02000  9.691E-06    0   0.5047   age193_m62            0.0000     4.0288E+02    16.5435   0.3266   105.2426
 31      0.0000     0.0000E+00    0.0000E+00    1.000000E+06  0.05000  2.651E-02    0   0.9998   age020_m72            0.0000     2.1092E+03    34.2543   4.0000    98.7569
 32      0.0000     0.0000E+00    0.0000E+00    3.160000E+06  0.05000  4.817E-02    0   0.9577   age045_m72            0.0000     1.3741E+03    28.0344   4.0000   102.1572
 33      0.0000     0.0000E+00    0.0000E+00    5.010000E+06  0.05000  3.101E-02    0   0.9147   age055_m72            0.0000     8.1873E+02    19.9109   4.0000   101.7217
 34      0.0000     0.0000E+00    0.0000E+00    1.000000E+07  0.05000  8.954E-03    0   0.8524   age070_m72            0.0000     1.1258E+03    25.0991   4.0000   102.4474
 35      0.0000     0.0000E+00    0.0000E+00    2.512000E+07  0.05000  4.207E-03    0   0.7902   age090_m72            0.0000     4.3703E+02    15.2544   4.0000   102.5606
 36      0.0000     0.0000E+00    0.0000E+00    4.000000E+07  0.05000  3.198E-03    0   0.7618   age104_m72            0.0000     3.4146E+02     8.3949   3.9521   101.8046
 37      0.0000     0.0000E+00    0.0000E+00    1.015200E+08  0.05000  1.716E-03    0   0.7092   age116_m72            0.0000     5.4890E+02    10.4070   3.6653   105.7657
 38      0.0000     0.0000E+00    0.0000E+00    2.861200E+08  0.05000  7.047E-04    0   0.6618   age125_m72            0.0000     8.0090E+02    14.4519   2.8064   111.5782
 39      0.0000     0.0000E+00    0.0000E+00    6.405400E+08  0.05000  2.633E-04    0   0.6253   age132_m72            0.0000     5.1729E+02    14.3955   1.9386   113.0060
 40      0.0000     0.0000E+00    0.0000E+00    9.047900E+08  0.05000  1.484E-04    0   0.6088   age135_m72            0.0000     2.8535E+02    13.1584   1.4516   107.6885
 41      0.0000     0.0000E+00    0.0000E+00    1.434000E+09  0.05000  7.827E-05    0   0.5847   age139_m72            0.0000     2.2947E+02    13.4021   1.0386   104.2305
 42      0.0000     0.0000E+00    0.0000E+00    2.500000E+09  0.05000  3.759E-05    0   0.5583   age150_m72            0.0000     2.6293E+02    14.1813   0.7024   103.3998
 43      3.3153     7.7619E+00    8.1468E+00    5.000000E+09  0.05000  1.548E-05    0   0.5320   age161_m72            0.0000     4.0276E+02    15.9577   0.2749   102.2997
 44      0.7544     4.1855E+00    4.1866E+00    1.100000E+10  0.05000  6.532E-06    0   0.5070   age185_m72            0.0000     6.2275E+02    19.7038  -0.1982   102.0985
 45      0.7613     5.1899E+00    5.1381E+00    1.300000E+10  0.05000  5.316E-06    0   0.5018   age193_m72            0.0000     7.1941E+02    21.1840  -0.3588   102.3307


## Synthesis Results - Average & Chains ##

# j      x_j: min, <> & last-chain-values for 1 ...  7 chains
  1      7.6189      7.2604      7.2332      7.3503      7.5457      7.3464      7.4175      7.4266      7.1783
  2      9.3003      7.9039      8.0204      8.1576      8.2092      7.9270      7.9166      8.3832      8.1110
  3      1.6712      2.0986      2.1585      2.1630      2.0951      2.2493      2.2161      2.1413      2.0977
  4      3.5367      3.7756      3.8941      3.8689      3.7915      3.7917      3.8369      3.7303      3.9835
  5      0.0000      0.1966      0.0547      0.0000      0.0251      0.1137      0.0000      0.0000      0.1600
  6      0.0000      0.0405      0.0846      0.0396      0.0052      0.0000      0.0000      0.0246      0.0138
  7      0.0000      0.0318      0.0000      0.0000      0.1048      0.0000      0.0000      0.0000      0.0553
  8      0.0000      0.0352      0.0000      0.1451      0.0000      0.0463      0.0000      0.0252      0.0000
  9      0.0000      0.2269      0.2720      0.0460      0.3620      0.3770      0.5816      0.2241      0.4099
 10      1.5670      0.3313      0.6260      0.8654      0.4769      0.4981      0.3497      0.5813      0.4085
 11      0.0000      0.1256      0.2381      0.0840      0.0941      0.2590      0.0000      0.0000      0.0714
 12      0.0000      0.1474      0.0000      0.3209      0.2761      0.0245      0.0147      0.0000      0.0000
 13     28.9397     29.7087     29.7213     29.2367     29.7679     29.5360     29.3702     29.8389     29.7736
 14     22.6776     22.1221     22.1763     22.3216     22.3084     22.6654     22.7938     22.0997     21.7444
 15      9.2512      9.3233      9.4490      9.1709      9.3638      9.0016      9.2508      9.4190      9.8150
 16      3.2373      3.1402      3.1211      3.2400      3.0506      3.2289      3.2450      3.0858      3.1308
 17      0.0000      0.0839      0.0543      0.0139      0.0000      0.0000      0.0420      0.0000      0.0032
 18      0.0000      0.3332      0.4001      0.2400      0.1304      0.4138      0.1754      0.3424      0.3981
 19      0.7287      0.7966      0.8568      0.5983      0.7833      0.7912      0.6568      0.8169      0.9714
 20      0.0000      0.0245      0.0000      0.0000      0.0272      0.0000      0.0000      0.0140      0.0000
 21      0.0000      0.0370      0.0000      0.0000      0.0000      0.0000      0.0000      0.0000      0.0000
 22      0.0000      0.0254      0.0000      0.0036      0.0000      0.0000      0.0422      0.0000      0.1174
 23      0.0000      0.0266      0.0125      0.0000      0.0000      0.0000      0.1019      0.0000      0.0000
 24      0.0000      0.0295      0.0000      0.0000      0.0216      0.0000      0.0000      0.0000      0.0000
 25      0.0000      0.0521      0.0486      0.0000      0.0000      0.0852      0.0762      0.2394      0.0000
 26      0.0000      0.0495      0.0000      0.0000      0.0000      0.0214      0.2315      0.0097      0.0000
 27      0.0000      0.0666      0.0324      0.0000      0.0000      0.0000      0.0000      0.0000      0.0000
 28      0.0013      1.1096      0.7475      1.1088      0.6688      0.9526      0.2029      0.8100      0.8464
 29      1.7213      2.0000      1.9984      1.9231      2.0321      1.9650      2.3575      2.0431      2.0266
 30      0.0000      0.4264      0.3439      0.2981      0.3777      0.2459      0.2350      0.4482      0.6380
 31      0.0000      0.0193      0.0000      0.0000      0.0000      0.0000      0.0866      0.0000      0.0000
 32      0.0000      0.0226      0.0000      0.0224      0.0000      0.0000      0.0000      0.0000      0.0000
 33      0.0000      0.0695      0.0000      0.0366      0.0568      0.0000      0.1076      0.0000      0.0071
 34      0.0000      0.0321      0.0542      0.0000      0.0000      0.0000      0.0000      0.0000      0.0000
 35      0.0000      0.0248      0.0000      0.2002      0.0000      0.0000      0.0000      0.0000      0.0000
 36      0.0000      0.0208      0.0000      0.0219      0.0580      0.0050      0.0000      0.0000      0.0000
 37      0.0000      0.0301      0.0000      0.0387      0.0229      0.0000      0.0476      0.0370      0.0000
 38      0.0000      0.0262      0.0000      0.0000      0.0000      0.0061      0.0000      0.0000      0.0000
 39      0.0000      0.0473      0.0000      0.0000      0.1037      0.0000      0.0973      0.0000      0.0000
 40      0.0000      0.0657      0.0000      0.0000      0.0000      0.0125      0.2151      0.0000      0.0000
 41      0.0000      0.0420      0.0000      0.0000      0.0000      0.0000      0.0000      0.0000      0.0000
 42      0.0000      0.0355      0.0000      0.0000      0.0000      0.0000      0.0000      0.0000      0.0000
 43      3.3153      1.3209      1.6896      1.5532      1.3763      1.5904      1.4758      1.5687      1.3709
 44      0.7544      0.7409      0.7624      0.9441      0.8205      0.8681      0.9251      0.7707      0.7153
 45      0.7613      1.0752      1.0436      1.0803      1.1478      1.0482      1.0258      1.0332      1.0542

# j      m_j: min, <> & last-chain-values for 1 ...  7 chains
  1  4.8902E-02  4.6042E-02  4.5796E-02  4.6329E-02  4.7531E-02  4.6505E-02  4.6680E-02  4.6943E-02  4.5312E-02
  2  1.6325E-02  1.3708E-02  1.3887E-02  1.4062E-02  1.4142E-02  1.3723E-02  1.3625E-02  1.4492E-02  1.4002E-02
  3  4.4742E-03  5.5510E-03  5.7003E-03  5.6867E-03  5.5046E-03  5.9393E-03  5.8171E-03  5.6457E-03  5.5231E-03
  4  1.7632E-02  1.8597E-02  1.9150E-02  1.8941E-02  1.8551E-02  1.8644E-02  1.8755E-02  1.8314E-02  1.9531E-02
  5  0.0000E+00  2.2387E-03  6.2228E-04  0.0000E+00  2.8410E-04  1.2929E-03  0.0000E+00  0.0000E+00  1.8140E-03
  6  0.0000E+00  6.4157E-04  1.3362E-03  6.2293E-04  8.1482E-05  0.0000E+00  0.0000E+00  3.8784E-04  2.1814E-04
  7  0.0000E+00  7.1390E-04  0.0000E+00  0.0000E+00  2.3370E-03  0.0000E+00  0.0000E+00  0.0000E+00  1.2355E-03
  8  0.0000E+00  1.5253E-03  0.0000E+00  6.2463E-03  0.0000E+00  2.0023E-03  0.0000E+00  1.0879E-03  0.0000E+00
  9  0.0000E+00  1.9561E-02  2.3413E-02  3.9459E-03  3.1005E-02  3.2448E-02  4.9765E-02  1.9265E-02  3.5183E-02
 10  1.9093E-01  3.9883E-02  7.5239E-02  1.0354E-01  5.7033E-02  5.9861E-02  4.1773E-02  6.9754E-02  4.8945E-02
 11  0.0000E+00  2.6563E-02  5.0265E-02  1.7648E-02  1.9752E-02  5.4658E-02  0.0000E+00  0.0000E+00  1.5022E-02
 12  0.0000E+00  5.7930E-02  0.0000E+00  1.2537E-01  1.0781E-01  9.6137E-03  5.7234E-03  0.0000E+00  0.0000E+00
 13  2.2929E+01  2.3256E+01  2.3229E+01  2.2748E+01  2.3147E+01  2.3080E+01  2.2816E+01  2.3282E+01  2.3200E+01
 14  3.6622E+01  3.5296E+01  3.5326E+01  3.5398E+01  3.5355E+01  3.6099E+01  3.6090E+01  3.5146E+01  3.4534E+01
 15  1.7308E+01  1.7234E+01  1.7438E+01  1.6849E+01  1.7193E+01  1.6610E+01  1.6969E+01  1.7354E+01  1.8059E+01
 16  1.1638E-02  1.1153E-02  1.1068E-02  1.1438E-02  1.0763E-02  1.1448E-02  1.1437E-02  1.0925E-02  1.1069E-02
 17  0.0000E+00  1.5499E-04  1.0002E-04  2.5464E-05  0.0000E+00  0.0000E+00  7.7041E-05  0.0000E+00  5.8202E-06
 18  0.0000E+00  6.8135E-04  8.1688E-04  4.8776E-04  2.6486E-04  8.4480E-04  3.5589E-04  6.9803E-04  8.1045E-04
 19  4.5097E-03  4.8709E-03  5.2307E-03  3.6360E-03  4.7576E-03  4.8295E-03  3.9859E-03  4.9791E-03  5.9124E-03
 20  0.0000E+00  3.3277E-04  0.0000E+00  0.0000E+00  3.6742E-04  0.0000E+00  0.0000E+00  1.8915E-04  0.0000E+00
 21  0.0000E+00  6.0510E-04  0.0000E+00  0.0000E+00  0.0000E+00  0.0000E+00  0.0000E+00  0.0000E+00  0.0000E+00
 22  0.0000E+00  6.8892E-04  0.0000E+00  9.7701E-05  0.0000E+00  0.0000E+00  1.1385E-03  0.0000E+00  3.1736E-03
 23  0.0000E+00  1.4181E-03  6.6455E-04  0.0000E+00  0.0000E+00  0.0000E+00  5.3944E-03  0.0000E+00  0.0000E+00
 24  0.0000E+00  3.6007E-03  0.0000E+00  0.0000E+00  2.6250E-03  0.0000E+00  0.0000E+00  0.0000E+00  0.0000E+00
 25  0.0000E+00  9.8000E-03  9.1176E-03  0.0000E+00  0.0000E+00  1.5993E-02  1.4210E-02  4.4863E-02  0.0000E+00
 26  0.0000E+00  1.7577E-02  0.0000E+00  0.0000E+00  0.0000E+00  7.5683E-03  8.1491E-02  3.4304E-03  0.0000E+00
 27  0.0000E+00  4.7945E-02  2.3292E-02  0.0000E+00  0.0000E+00  0.0000E+00  0.0000E+00  0.0000E+00  0.0000E+00
 28  1.9795E-03  1.6163E+00  1.0872E+00  1.6054E+00  9.6772E-01  1.3852E+00  2.9331E-01  1.1760E+00  1.2272E+00
 29  5.3727E+00  6.1677E+00  6.1530E+00  5.8944E+00  6.2246E+00  6.0491E+00  7.2148E+00  6.2801E+00  6.2209E+00
 30  0.0000E+00  1.5687E+00  1.2632E+00  1.0901E+00  1.3803E+00  9.0306E-01  8.5798E-01  1.6436E+00  2.3366E+00
 31  0.0000E+00  5.1532E-05  0.0000E+00  0.0000E+00  0.0000E+00  0.0000E+00  2.2887E-04  0.0000E+00  0.0000E+00
 32  0.0000E+00  3.1743E-05  0.0000E+00  3.1274E-05  0.0000E+00  0.0000E+00  0.0000E+00  0.0000E+00  0.0000E+00
 33  0.0000E+00  1.4481E-04  0.0000E+00  7.5871E-05  1.1761E-04  0.0000E+00  2.2260E-04  0.0000E+00  1.4788E-05
 34  0.0000E+00  2.1601E-04  3.6385E-04  0.0000E+00  0.0000E+00  0.0000E+00  0.0000E+00  0.0000E+00  0.0000E+00
 35  0.0000E+00  3.2866E-04  0.0000E+00  2.6400E-03  0.0000E+00  0.0000E+00  0.0000E+00  0.0000E+00  0.0000E+00
 36  0.0000E+00  3.5026E-04  0.0000E+00  3.6711E-04  9.6892E-04  8.4206E-05  0.0000E+00  0.0000E+00  0.0000E+00
 37  0.0000E+00  8.7843E-04  0.0000E+00  1.1217E-03  6.6495E-04  0.0000E+00  1.3788E-03  1.0765E-03  0.0000E+00
 38  0.0000E+00  1.7383E-03  0.0000E+00  0.0000E+00  0.0000E+00  4.0709E-04  0.0000E+00  0.0000E+00  0.0000E+00
 39  0.0000E+00  7.9377E-03  0.0000E+00  0.0000E+00  1.7289E-02  0.0000E+00  1.6207E-02  0.0000E+00  0.0000E+00
 40  0.0000E+00  1.9055E-02  0.0000E+00  0.0000E+00  0.0000E+00  3.6249E-03  6.1867E-02  0.0000E+00  0.0000E+00
 41  0.0000E+00  2.2147E-02  0.0000E+00  0.0000E+00  0.0000E+00  0.0000E+00  0.0000E+00  0.0000E+00  0.0000E+00
 42  0.0000E+00  3.7284E-02  0.0000E+00  0.0000E+00  0.0000E+00  0.0000E+00  0.0000E+00  0.0000E+00  0.0000E+00
 43  8.1468E+00  3.2069E+00  4.0954E+00  3.7479E+00  3.3191E+00  3.8545E+00  3.5556E+00  3.7962E+00  3.3131E+00
 44  4.1866E+00  4.0624E+00  4.1737E+00  5.1451E+00  4.4692E+00  4.7518E+00  5.0341E+00  4.2124E+00  3.9040E+00
 45  5.1381E+00  7.1699E+00  6.9483E+00  7.1600E+00  7.6031E+00  6.9776E+00  6.7884E+00  6.8673E+00  6.9975E+00

# AV, chi2 & Mass for <> & i_chain = 1 ...  7 solutions
AV       2.0246      2.0190      2.0185      2.0196      2.0187      2.0197      2.0201      2.0199      2.0224
chi2 2.7034E+00  2.7406E+00  2.7278E+00  2.7309E+00  2.7317E+00  2.7292E+00  2.7324E+00  2.7298E+00  2.7306E+00
Mass 1.0484E-09  1.0532E-09  1.0541E-09  1.0604E-09  1.0598E-09  1.0561E-09  1.0628E-09  1.0579E-09  1.0629E-09
 -15.08                                  [v0_min (km/s) before EX0s...]
  39.84                                  [vd_min (km/s) before EX0s...]


## Synthetic spectrum (Best Model) ##l_obs f_obs f_syn wei
 3070    [Nl_obs]
 3359.00    0.24837   0.45880   -1.000
 3360.00    0.25076   0.43921   -1.000
 3361.00    0.23868   0.43886   -1.000
 3362.00    0.26236   0.45943   -1.000
 3363.00    0.26635   0.48664   -1.000
 3364.00    0.27369   0.50479   -1.000
 3365.00    0.33918   0.50608   -1.000
 3366.00    0.34598   0.49192   -1.000
 3367.00    0.31434   0.47047   -1.000
 3368.00    0.28694   0.45457   -1.000
 3369.00    0.30308   0.44868   -1.000
 3370.00    0.28769   0.44771   -1.000
 3371.00    0.29373   0.44590   -1.000
 3372.00    0.32818   0.44605   -1.000
 3373.00    0.31119   0.45725   -1.000
 3374.00    0.28853   0.47959   -1.000
 3375.00    0.31820   0.50726   -1.000
 3376.00    0.36080   0.52237   -1.000
 3377.00    0.36890   0.51537   -1.000
 3378.00    0.36445   0.49670   -1.000
 3379.00    0.36003   0.47807   -1.000
 3380.00    0.34140   0.47054   -1.000
 3381.00    0.33972   0.47685   -1.000
 3382.00    0.36704   0.49227   -1.000
 3383.00    0.36387   0.50486   -1.000
 3384.00    0.36102   0.51267   -1.000
 3385.00    0.35993   0.52166   -1.000
 3386.00    0.37381   0.52740   -1.000
 3387.00    0.34822   0.52708   -1.000
 3388.00    0.35646   0.52416   -1.000
 3389.00    0.35658   0.52095   -1.000
 3390.00    0.38086   0.51732   -1.000
 3391.00    0.38885   0.51070   -1.000
 3392.00    0.40259   0.50112   -1.000
 3393.00    0.38048   0.49792   -1.000
 3394.00    0.38365   0.50811   -1.000
 3395.00    0.39050   0.52490   -1.000
 3396.00    0.41581   0.54087   -1.000
 3397.00    0.43472   0.55327   -1.000
 3398.00    0.46292   0.55783   -1.000
 3399.00    0.43964   0.55287   -1.000
 3400.00    0.45186   0.54521   -1.000
 3401.00    0.47172   0.53687   -1.000
 3402.00    0.47045   0.52527   54.957
 3403.00    0.47287   0.51592   55.892
 3404.00    0.46737   0.51216   56.912
 3405.00    0.45299   0.50981   -1.000
 3406.00    0.43353   0.50460   -1.000
 3407.00    0.41634   0.50022   -1.000
 3408.00    0.43378   0.50027   -1.000
 3409.00    0.43275   0.50654   -1.000
 3410.00    0.45271   0.51348   -1.000
 3411.00    0.42685   0.51209   -1.000
 3412.00    0.46899   0.50447   59.118
 3413.00    0.45553   0.49561   60.316
 3414.00    0.43639   0.49332   -1.000
 3415.00    0.43082   0.49900   -1.000
 3416.00    0.43535   0.51026   -1.000
 3417.00    0.42511   0.52339   -1.000
 3418.00    0.43430   0.53713   -1.000
 3419.00    0.49473   0.54978   50.651
 3420.00    0.49085   0.55628   -1.000
 3421.00    0.50706   0.55389   50.577
 3422.00    0.50294   0.54647   51.985
 3423.00    0.48414   0.53916   53.188
 3424.00    0.47618   0.53660   -1.000
 3425.00    0.47191   0.53798   -1.000
 3426.00    0.49527   0.54163   50.122
 3427.00    0.48696   0.54947   -1.000
 3428.00    0.48561   0.56500   -1.000
 3429.00    0.52575   0.57702   -1.000
 3430.00    0.50440   0.57628   -1.000
 3431.00    0.49191   0.56381   -1.000
 3432.00    0.47912   0.54812   -1.000
 3433.00    0.47615   0.53895   -1.000
 3434.00    0.48663   0.54025   -1.000
 3435.00    0.48710   0.54784   -1.000
 3436.00    0.48485   0.54999   -1.000
 3437.00    0.48560   0.54334   52.113
 3438.00    0.47338   0.52625   55.205
 3439.00    0.45581   0.50200   59.535
 3440.00    0.42185   0.47406   62.107
 3441.00    0.42887   0.45679   62.379
 3442.00    0.42173   0.45641   62.136
 3443.00    0.44980   0.46673   59.813
 3444.00    0.44675   0.47865   56.592
 3445.00    0.44934   0.48914   53.459
 3446.00    0.48099   0.50396   51.527
 3447.00    0.49584   0.52463   -1.000
 3448.00    0.48137   0.54543   -1.000
 3449.00    0.50210   0.55690   -1.000
 3450.00    0.54623   0.55344  432.084
 3451.00    0.51369   0.54036   -1.000
 3452.00    0.48607   0.52489   -1.000
 3453.00    0.48836   0.51948   -1.000
 3454.00    0.49036   0.52518   -1.000
 3455.00    0.49228   0.53402   -1.000
 3456.00    0.52507   0.53642   -1.000
 3457.00    0.53049   0.52598  432.084
 3458.00    0.51326   0.51184   53.815
 3459.00    0.48349   0.50016   50.728
 3460.00    0.49301   0.49151   50.457
 3461.00    0.46338   0.49334   -1.000
 3462.00    0.47646   0.51045   -1.000
 3463.00    0.50576   0.52868   -1.000
 3464.00    0.51396   0.53382   -1.000
 3465.00    0.53309   0.53187  432.084
 3466.00    0.53340   0.52976  432.084
 3467.00    0.54622   0.53483   -1.000
 3468.00    0.56382   0.54411   -1.000
 3469.00    0.53359   0.55315   -1.000
 3470.00    0.55148   0.55574  427.147
 3471.00    0.53998   0.54872   -1.000
 3472.00    0.54575   0.53534   -1.000
 3473.00    0.52993   0.51844   -1.000
 3474.00    0.49625   0.49786   54.030
 3475.00    0.48539   0.48409   52.289
 3476.00    0.48516   0.48515   51.330
 3477.00    0.47775   0.49748   -1.000
 3478.00    0.48302   0.51342   -1.000
 3479.00    0.52699   0.52755  430.495
 3480.00    0.53641   0.53590  427.211
 3481.00    0.57041   0.53666   -1.000
 3482.00    0.55547   0.52956   -1.000
 3483.00    0.53978   0.52136   -1.000
 3484.00    0.53212   0.52177   -1.000
 3485.00    0.51678   0.53452   -1.000
 3486.00    0.55620   0.55269  407.024
 3487.00    0.56059   0.55948  415.059
 3488.00    0.55464   0.54979  432.084
 3489.00    0.56047   0.52953   -1.000
 3490.00    0.52045   0.51385   -1.000
 3491.00    0.49611   0.51245   -1.000
 3492.00    0.52180   0.51975  432.084
 3493.00    0.52867   0.52611  432.084
 3494.00    0.49896   0.52520   -1.000
 3495.00    0.51482   0.51766  432.084
 3496.00    0.50662   0.51119  432.084
 3497.00    0.51066   0.51806  432.084
 3498.00    0.53317   0.53744  422.724
 3499.00    0.51327   0.55174   -1.000
 3500.00    0.55490   0.55491  395.839
 3501.00    0.57345   0.55654   -1.000
 3502.00    0.56740   0.56180  388.167
 3503.00    0.59538   0.56707   -1.000
 3504.00    0.58570   0.56327   -1.000
 3505.00    0.56539   0.55334   -1.000
 3506.00    0.55244   0.54700  407.354
 3507.00    0.56354   0.54658   -1.000
 3508.00    0.55495   0.54721   -1.000
 3509.00    0.54990   0.54239   -1.000
 3510.00    0.52506   0.53365   -1.000
 3511.00    0.52775   0.52636  432.084
 3512.00    0.53841   0.51967   -1.000
 3513.00    0.53774   0.51053   -1.000
 3514.00    0.53603   0.51069   -1.000
 3515.00    0.53571   0.52541   -1.000
 3516.00    0.54267   0.54944  403.761
 3517.00    0.57186   0.56951  396.609
 3518.00    0.56381   0.57399   -1.000
 3519.00    0.55541   0.56356   -1.000
 3520.00    0.56878   0.54348   -1.000
 3521.00    0.54553   0.52546   -1.000
 3522.00    0.51456   0.51217  432.084
 3523.00    0.51143   0.49823   52.900
 3524.00    0.48772   0.48744   51.782
 3525.00    0.47285   0.48401   51.552
 3526.00    0.46762   0.49416   -1.000
 3527.00    0.49094   0.51694   -1.000
 3528.00    0.50800   0.54156   -1.000
 3529.00    0.52965   0.55738   -1.000
 3530.00    0.55122   0.56217   -1.000
 3531.00    0.54924   0.56053   -1.000
 3532.00    0.54302   0.55986   -1.000
 3533.00    0.56532   0.56420  415.973
 3534.00    0.56712   0.57111  407.187
 3535.00    0.58999   0.57551   -1.000
 3536.00    0.57598   0.57662  402.748
 3537.00    0.56420   0.57942   -1.000
 3538.00    0.60928   0.58709   -1.000
 3539.00    0.58195   0.59331   -1.000
 3540.00    0.57263   0.59061   -1.000
 3541.00    0.56761   0.58494   -1.000
 3542.00    0.57663   0.58607   -1.000
 3543.00    0.56555   0.59152   -1.000
 3544.00    0.58818   0.59782   -1.000
 3545.00    0.65195   0.59796   -1.000
 3546.00    0.59644   0.59304  414.208
 3547.00    0.58458   0.58931  416.147
 3548.00    0.57563   0.58873   -1.000
 3549.00    0.55683   0.59067   -1.000
 3550.00    0.54529   0.59192   -1.000
 3551.00    0.57807   0.58998   -1.000
 3552.00    0.56857   0.58233   -1.000
 3553.00    0.59702   0.57388   -1.000
 3554.00    0.54402   0.56940   -1.000
 3555.00    0.53125   0.57084   -1.000
 3556.00    0.54995   0.57430   -1.000
 3557.00    0.56179   0.57329   -1.000
 3558.00    0.56277   0.56882  432.084
 3559.00    0.53047   0.56690   -1.000
 3560.00    0.53035   0.57284   -1.000
 3561.00    0.54221   0.58599   -1.000
 3562.00    0.56185   0.59434   -1.000
 3563.00    0.54306   0.58348   -1.000
 3564.00    0.53372   0.54919   52.887
 3565.00    0.52114   0.51955   52.565
 3566.00    0.48774   0.51032   52.062
 3567.00    0.47085   0.51172   51.759
 3568.00    0.49059   0.51042   53.456
 3569.00    0.48434   0.49605   54.473
 3570.00    0.46449   0.48335   52.858
 3571.00    0.46221   0.48723   50.511
 3572.00    0.47739   0.50092   -1.000
 3573.00    0.50258   0.51328   -1.000
 3574.00    0.51295   0.51871  432.084
 3575.00    0.52197   0.52056  432.084
 3576.00    0.50513   0.52343   -1.000
 3577.00    0.49455   0.52179   -1.000
 3578.00    0.50947   0.51052   54.471
 3579.00    0.46675   0.49038   56.277
 3580.00    0.48310   0.47056   59.417
 3581.00    0.44513   0.45934   59.898
 3582.00    0.43098   0.46077   60.148
 3583.00    0.44952   0.46850   61.631
 3584.00    0.43238   0.46678   63.656
 3585.00    0.44998   0.45728   64.594
 3586.00    0.44147   0.45230   61.448
 3587.00    0.43377   0.45742   58.171
 3588.00    0.45259   0.47447   55.351
 3589.00    0.46631   0.49803   50.451
 3590.00    0.48082   0.52345   -1.000
 3591.00    0.51899   0.54164   -1.000
 3592.00    0.53847   0.54742   -1.000
 3593.00    0.55044   0.54702  432.084
 3594.00    0.55002   0.55099  425.059
 3595.00    0.56557   0.56430  404.523
 3596.00    0.59621   0.57863   -1.000
 3597.00    0.58293   0.58993   -1.000
 3598.00    0.59812   0.59975  375.800
 3599.00    0.60844   0.60539  380.062
 3600.00    0.61374   0.60174   -1.000
 3601.00    0.60898   0.58522   -1.000
 3602.00    0.57016   0.56217   -1.000
 3603.00    0.54567   0.54201  432.084
 3604.00    0.52466   0.53314   -1.000
 3605.00    0.50085   0.53469   -1.000
 3606.00    0.51910   0.53586   -1.000
 3607.00    0.52551   0.52982  432.084
 3608.00    0.51310   0.51836  432.084
 3609.00    0.49438   0.51306   -1.000
 3610.00    0.50033   0.52272   -1.000
 3611.00    0.52094   0.53588   -1.000
 3612.00    0.55262   0.54531   -1.000
 3613.00    0.54916   0.55327  423.785
 3614.00    0.52322   0.56260   -1.000
 3615.00    0.56078   0.57173   -1.000
 3616.00    0.56816   0.56472  432.084
 3617.00    0.56106   0.53375   -1.000
 3618.00    0.51017   0.50784   51.425
 3619.00    0.47844   0.50701   -1.000
 3620.00    0.51516   0.52713   -1.000
 3621.00    0.55334   0.55420  403.120
 3622.00    0.55133   0.57499   -1.000
 3623.00    0.59898   0.58564   -1.000
 3624.00    0.59463   0.59580  374.026
 3625.00    0.61137   0.61442  358.313
 3626.00    0.63186   0.63501  352.873
 3627.00    0.62231   0.64811   -1.000
 3628.00    0.64012   0.63958  381.119
 3629.00    0.61832   0.60424   -1.000
 3630.00    0.55877   0.56171  432.084
 3631.00    0.52930   0.53415  432.084
 3632.00    0.52338   0.53205   -1.000
 3633.00    0.52616   0.54609   -1.000
 3634.00    0.55089   0.56114   -1.000
 3635.00    0.56023   0.56827   -1.000
 3636.00    0.58060   0.57183   -1.000
 3637.00    0.57827   0.58449  374.869
 3638.00    0.58603   0.60296   -1.000
 3639.00    0.60662   0.61989   -1.000
 3640.00    0.61464   0.62504   -1.000
 3641.00    0.63298   0.61600   -1.000
 3642.00    0.60551   0.59786  404.062
 3643.00    0.57787   0.57813  416.004
 3644.00    0.57924   0.56484   -1.000
 3645.00    0.57946   0.55729   -1.000
 3646.00    0.56563   0.54861   -1.000
 3647.00    0.56478   0.54269   -1.000
 3648.00    0.55303   0.54410   -1.000
 3649.00    0.54931   0.55288  408.942
 3650.00    0.55625   0.56819   -1.000
 3651.00    0.58962   0.58833  372.729
 3652.00    0.60233   0.60706  363.512
 3653.00    0.61947   0.62036  358.424
 3654.00    0.65006   0.62702   -1.000
 3655.00    0.65202   0.63165   -1.000
 3656.00    0.65250   0.64032   -1.000
 3657.00    0.66665   0.64865   -1.000
 3658.00    0.64602   0.65297   -1.000
 3659.00    0.66723   0.65455   -1.000
 3660.00    0.65703   0.65269  347.566
 3661.00    0.63633   0.64586   -1.000
 3662.00    0.62740   0.63623   -1.000
 3663.00    0.63617   0.62728  360.083
 3664.00    0.65380   0.62383   -1.000
 3665.00    0.64022   0.62543   -1.000
 3666.00    0.63087   0.62666  363.473
 3667.00    0.64680   0.62169   -1.000
 3668.00    0.61449   0.61045  376.622
 3669.00    0.61299   0.60562  374.205
 3670.00    0.60069   0.61319   -1.000
 3671.00    0.61161   0.62822   -1.000
 3672.00    0.64991   0.63992  351.599
 3673.00    0.65355   0.64248  351.518
 3674.00    0.66553   0.63803   -1.000
 3675.00    0.67283   0.62673   -1.000
 3676.00    0.65550   0.61148   -1.000
 3677.00    0.60740   0.59550   -1.000
 3678.00    0.58629   0.58203  395.860
 3679.00    0.58903   0.57597   -1.000
 3680.00    0.59603   0.57722   -1.000
 3681.00    0.60518   0.58592   -1.000
 3682.00    0.60830   0.59735   -1.000
 3683.00    0.61166   0.60392  378.868
 3684.00    0.63583   0.59854   -1.000
 3685.00    0.61549   0.57862   -1.000
 3686.00    0.59551   0.55925   -1.000
 3687.00    0.58008   0.55458   -1.000
 3688.00    0.57823   0.56962   -1.000
 3689.00    0.60859   0.59685   -1.000
 3690.00    0.64056   0.62381   -1.000
 3691.00    0.66504   0.63663   -1.000
 3692.00    0.67002   0.63510   -1.000
 3693.00    0.64829   0.62886   -1.000
 3694.00    0.63347   0.62273   -1.000
 3695.00    0.63894   0.61852   -1.000
 3696.00    0.65202   0.61837   -1.000
 3697.00    0.64773   0.62751   -1.000
 3698.00    0.67288   0.64618   -1.000
 3699.00    0.68726   0.66621   -1.000
 3700.00    0.69647   0.67488   -1.000
 3701.00    0.66629   0.66157  348.639
 3702.00    0.65306   0.62477   -1.000
 3703.00    0.61641   0.58010   -1.000
 3704.00    0.59129   0.54260   -1.000
 3705.00    0.56789   0.52632   -1.000
 3706.00    0.54876   0.53140   -1.000
 3707.00    0.56809   0.54375   -1.000
 3708.00    0.56212   0.55452   -1.000
 3709.00    0.56740   0.56241  388.642
 3710.00    0.59654   0.57118   -1.000
 3711.00    0.62929   0.58696   -1.000
 3712.00    0.65096   0.61301   -1.000
 3713.00    0.68603   0.64070   -1.000
 3714.00    0.70908   0.66197   -1.000
 3715.00    0.70071   0.67004   -1.000
 3716.00    0.69284   0.66108   -1.000
 3717.00    0.68031   0.63732   -1.000
 3718.00    0.64642   0.59694   -1.000
 3719.00    0.56717   0.53891   -1.000
 3720.00    0.51784   0.49260   51.171
 3721.00    0.49439   0.47868   -1.000
 3722.00    0.50483   0.49704   -1.000
 3723.00    0.57606   0.53929   -1.000
 3724.00    0.63885   0.58644   -1.000
 3725.00    0.66511   0.61239   -1.000
 3726.00    0.64696   0.61450   -1.000
 3727.00    0.62624   0.61396   -1.000
 3728.00    0.62153   0.61924  373.066
 3729.00    0.64579   0.62387   -1.000
 3730.00    0.62723   0.61526   -1.000
 3731.00    0.61892   0.58261   -1.000
 3732.00    0.58169   0.53404   50.078
 3733.00    0.49284   0.48364   55.952
 3734.00    0.46710   0.44547   58.027
 3735.00    0.45834   0.43572   55.090
 3736.00    0.44695   0.45651   49.876
 3737.00    0.46839   0.49931   -1.000
 3738.00    0.53387   0.55543   -1.000
 3739.00    0.58575   0.60659   -1.000
 3740.00    0.63074   0.63479  371.753
 3741.00    0.62998   0.63773  386.759
 3742.00    0.62206   0.62052  411.608
 3743.00    0.58722   0.59147  432.084
 3744.00    0.57441   0.56471   -1.000
 3745.00    0.54323   0.54368  432.084
 3746.00    0.51058   0.52163   50.635
 3747.00    0.49397   0.49385   53.919
 3748.00    0.50276   0.46125   54.495
 3749.00    0.46273   0.44746   -1.000
 3750.00    0.48308   0.46927   -1.000
 3751.00    0.54447   0.51768   -1.000
 3752.00    0.59116   0.57260   -1.000
 3753.00    0.62387   0.62265  338.542
 3754.00    0.66153   0.65621  332.155
 3755.00    0.70769   0.66434   -1.000
 3756.00    0.68748   0.64293   -1.000
 3757.00    0.63303   0.60352   -1.000
 3758.00    0.57874   0.57017   -1.000
 3759.00    0.56555   0.56215  412.664
 3760.00    0.58507   0.57489   -1.000
 3761.00    0.59587   0.59074  385.933
 3762.00    0.61121   0.60310   -1.000
 3763.00    0.61441   0.61033  379.168
 3764.00    0.60944   0.61085  384.901
 3765.00    0.61502   0.60295   -1.000
 3766.00    0.62484   0.59005   -1.000
 3767.00    0.61116   0.57706   -1.000
 3768.00    0.60827   0.56382   -1.000
 3769.00    0.61531   0.55054   -1.000
 3770.00    0.60438   0.54273   -1.000
 3771.00    0.62439   0.55475   -1.000
 3772.00    0.66502   0.58704   -1.000
 3773.00    0.68793   0.61856   -1.000
 3774.00    0.70425   0.63760   -1.000
 3775.00    0.68494   0.64991   -1.000
 3776.00    0.68166   0.66037   -1.000
 3777.00    0.70312   0.67397   -1.000
 3778.00    0.70595   0.68956   -1.000
 3779.00    0.71927   0.70461   -1.000
 3780.00    0.75262   0.71761   -1.000
 3781.00    0.74882   0.72574   -1.000
 3782.00    0.74973   0.73031   -1.000
 3783.00    0.75691   0.72919   -1.000
 3784.00    0.74248   0.71665   -1.000
 3785.00    0.71344   0.69085   -1.000
 3786.00    0.65932   0.66088  385.324
 3787.00    0.65461   0.63683   -1.000
 3788.00    0.64643   0.62522   -1.000
 3789.00    0.61388   0.62432   -1.000
 3790.00    0.61801   0.62876   -1.000
 3791.00    0.63235   0.63034  386.929
 3792.00    0.61913   0.62052  401.821
 3793.00    0.62032   0.60078   -1.000
 3794.00    0.62181   0.57531   -1.000
 3795.00    0.60523   0.54897   -1.000
 3796.00    0.56629   0.51988   -1.000
 3797.00    0.55049   0.48813   -1.000
 3798.00    0.50655   0.47863   -1.000
 3799.00    0.55338   0.50787   -1.000
 3800.00    0.58738   0.55983   -1.000
 3801.00    0.62669   0.61546   -1.000
 3802.00    0.66048   0.65758  353.283
 3803.00    0.69502   0.68009   -1.000
 3804.00    0.69523   0.68659  357.254
 3805.00    0.66526   0.67752   -1.000
 3806.00    0.65760   0.66243  377.842
 3807.00    0.64543   0.66257   -1.000
 3808.00    0.64259   0.68069   -1.000
 3809.00    0.67109   0.70339   -1.000
 3810.00    0.69198   0.71388   -1.000
 3811.00    0.69257   0.70313   -1.000
 3812.00    0.69623   0.67586   -1.000
 3813.00    0.65654   0.64075   -1.000
 3814.00    0.59226   0.61141   -1.000
 3815.00    0.55811   0.60128   -1.000
 3816.00    0.56187   0.61079   -1.000
 3817.00    0.59037   0.62053   -1.000
 3818.00    0.59640   0.61402   -1.000
 3819.00    0.57413   0.59037   -1.000
 3820.00    0.54112   0.57049   -1.000
 3821.00    0.52533   0.57474   -1.000
 3822.00    0.56160   0.58880   -1.000
 3823.00    0.56183   0.58800   -1.000
 3824.00    0.53727   0.56857   52.352
 3825.00    0.49706   0.54554   53.429
 3826.00    0.47804   0.53247   52.923
 3827.00    0.49003   0.53046   52.056
 3828.00    0.49134   0.53314   51.232
 3829.00    0.49983   0.53204   51.946
 3830.00    0.49020   0.52339   54.411
 3831.00    0.46908   0.50362   58.789
 3832.00    0.47919   0.47528   60.448
 3833.00    0.46306   0.44386   59.153
 3834.00    0.47373   0.42366   56.746
 3835.00    0.47755   0.42241   -1.000
 3836.00    0.45826   0.43428   56.844
 3837.00    0.46119   0.44827   58.169
 3838.00    0.46144   0.46075   57.012
 3839.00    0.45424   0.47848   54.989
 3840.00    0.48387   0.51010   -1.000
 3841.00    0.53625   0.55190   -1.000
 3842.00    0.57316   0.59614   -1.000
 3843.00    0.59825   0.63241   -1.000
 3844.00    0.61616   0.65185   -1.000
 3845.00    0.63575   0.66155   -1.000
 3846.00    0.63563   0.66938   -1.000
 3847.00    0.63968   0.67581   -1.000
 3848.00    0.63959   0.67294   -1.000
 3849.00    0.62213   0.66612   -1.000
 3850.00    0.62120   0.66450   -1.000
 3851.00    0.60136   0.67245   -1.000
 3852.00    0.59804   0.68432   -1.000
 3853.00    0.64063   0.68540   -1.000
 3854.00    0.62585   0.67205   -1.000
 3855.00    0.59842   0.65512   -1.000
 3856.00    0.58264   0.63892   -1.000
 3857.00    0.57095   0.62085   49.639
 3858.00    0.55417   0.60270   52.684
 3859.00    0.50664   0.59403   -1.000
 3860.00    0.52837   0.60636   -1.000
 3861.00    0.54840   0.63560   -1.000
 3862.00    0.60701   0.66844   -1.000
 3863.00    0.63307   0.68347   -1.000
 3864.00    0.65238   0.68209   -1.000
 3865.00    0.62571   0.67771   -1.000
 3866.00    0.64039   0.67488   -1.000
 3867.00    0.65499   0.67642   -1.000
 3868.00    0.62137   0.67686   -1.000
 3869.00    0.60948   0.66690   -1.000
 3870.00    0.59143   0.64601   51.731
 3871.00    0.55680   0.62196   -1.000
 3872.00    0.55406   0.61028   -1.000
 3873.00    0.57385   0.62094   -1.000
 3874.00    0.59228   0.65142   -1.000
 3875.00    0.64257   0.67185   -1.000
 3876.00    0.65816   0.66394  432.084
 3877.00    0.60126   0.64001   -1.000
 3878.00    0.58602   0.62310   -1.000
 3879.00    0.56307   0.62212   -1.000
 3880.00    0.58119   0.62826   -1.000
 3881.00    0.58136   0.62985   -1.000
 3882.00    0.56413   0.62631   -1.000
 3883.00    0.58492   0.62181   -1.000
 3884.00    0.59313   0.60990   -1.000
 3885.00    0.60054   0.58066   -1.000
 3886.00    0.58675   0.53710   -1.000
 3887.00    0.56855   0.50153   -1.000
 3888.00    0.55983   0.48698   -1.000
 3889.00    0.57035   0.50289   -1.000
 3890.00    0.60463   0.54601   -1.000
 3891.00    0.63820   0.60030   -1.000
 3892.00    0.69175   0.63679   -1.000
 3893.00    0.71622   0.64861   -1.000
 3894.00    0.69171   0.65042   -1.000
 3895.00    0.68789   0.65757   -1.000
 3896.00    0.71827   0.67311   -1.000
 3897.00    0.73487   0.68443   -1.000
 3898.00    0.71852   0.68578   -1.000
 3899.00    0.70309   0.68507   -1.000
 3900.00    0.71288   0.69072   -1.000
 3901.00    0.72467   0.69888   -1.000
 3902.00    0.74406   0.70037   -1.000
 3903.00    0.72557   0.69080   -1.000
 3904.00    0.67558   0.67742  364.716
 3905.00    0.66244   0.67162  360.457
 3906.00    0.67194   0.67987  338.659
 3907.00    0.68606   0.70467   -1.000
 3908.00    0.73350   0.73700  309.373
 3909.00    0.77314   0.75775   -1.000
 3910.00    0.76930   0.76763  303.802
 3911.00    0.77731   0.77420  302.274
 3912.00    0.79400   0.77449   -1.000
 3913.00    0.77771   0.76775  312.629
 3914.00    0.77104   0.75925   -1.000
 3915.00    0.76048   0.75138   -1.000
 3916.00    0.76004   0.74517   -1.000
 3917.00    0.74572   0.73618   -1.000
 3918.00    0.71801   0.72021  353.699
 3919.00    0.69897   0.70016  370.276
 3920.00    0.68664   0.68150  377.089
 3921.00    0.66005   0.67384   -1.000
 3922.00    0.64496   0.67803   -1.000
 3923.00    0.66704   0.68527   -1.000
 3924.00    0.67945   0.68438  390.386
 3925.00    0.66705   0.66979  429.195
 3926.00    0.61636   0.64143   -1.000
 3927.00    0.55352   0.60062   55.797
 3928.00    0.50373   0.55606   65.428
 3929.00    0.43923   0.51228   -1.000
 3930.00    0.38776   0.46456   -1.000
 3931.00    0.34301   0.41685   -1.000
 3932.00    0.29284   0.36931   -1.000
 3933.00    0.27309   0.34042   -1.000
 3934.00    0.28884   0.35151   -1.000
 3935.00    0.30543   0.39455   -1.000
 3936.00    0.34695   0.44733   -1.000
 3937.00    0.40775   0.50410   -1.000
 3938.00    0.48014   0.55533   -1.000
 3939.00    0.52306   0.59834   -1.000
 3940.00    0.55963   0.63178   -1.000
 3941.00    0.59113   0.64901   -1.000
 3942.00    0.58897   0.65432   -1.000
 3943.00    0.62326   0.65451   -1.000
 3944.00    0.63043   0.66086   -1.000
 3945.00    0.66871   0.67949  344.411
 3946.00    0.70311   0.69993  341.073
 3947.00    0.73072   0.71145   -1.000
 3948.00    0.71618   0.71917  325.445
 3949.00    0.72942   0.73049  315.484
 3950.00    0.76247   0.73976   -1.000
 3951.00    0.76933   0.74108   -1.000
 3952.00    0.75222   0.74123   -1.000
 3953.00    0.76031   0.74742   -1.000
 3954.00    0.76814   0.75374   -1.000
 3955.00    0.77078   0.74782   -1.000
 3956.00    0.76411   0.73470   -1.000
 3957.00    0.74847   0.72924   -1.000
 3958.00    0.75911   0.72827   -1.000
 3959.00    0.73190   0.71461   -1.000
 3960.00    0.69701   0.67935   -1.000
 3961.00    0.63870   0.63247   -1.000
 3962.00    0.58180   0.59546   -1.000
 3963.00    0.53907   0.56880   52.572
 3964.00    0.50474   0.53883   61.909
 3965.00    0.45017   0.49286   76.447
 3966.00    0.37945   0.42396   -1.000
 3967.00    0.31597   0.35757   -1.000
 3968.00    0.28707   0.31800   93.303
 3969.00    0.29922   0.31726   76.758
 3970.00    0.34415   0.35319   63.136
 3971.00    0.40324   0.41339   56.440
 3972.00    0.45778   0.47871   -1.000
 3973.00    0.50683   0.54365   -1.000
 3974.00    0.58191   0.60278   -1.000
 3975.00    0.65372   0.65272  337.194
 3976.00    0.69906   0.69607  317.599
 3977.00    0.74960   0.73116   -1.000
 3978.00    0.78278   0.76525   -1.000
 3979.00    0.81055   0.79122   -1.000
 3980.00    0.82830   0.80176   -1.000
 3981.00    0.84371   0.79934   -1.000
 3982.00    0.83721   0.79371   -1.000
 3983.00    0.82362   0.79682   -1.000
 3984.00    0.84069   0.80870   -1.000
 3985.00    0.86309   0.81992   -1.000
 3986.00    0.86261   0.82888   -1.000
 3987.00    0.88367   0.83976   -1.000
 3988.00    0.90298   0.85226   -1.000
 3989.00    0.89616   0.85993   -1.000
 3990.00    0.89431   0.86540   -1.000
 3991.00    0.90537   0.87445   -1.000
 3992.00    0.92380   0.88538   -1.000
 3993.00    0.93947   0.88913   -1.000
 3994.00    0.92337   0.88067   -1.000
 3995.00    0.90915   0.86388   -1.000
 3996.00    0.89638   0.84828   -1.000
 3997.00    0.87320   0.84421   -1.000
 3998.00    0.88453   0.85425   -1.000
 3999.00    0.89927   0.87181   -1.000
 4000.00    0.94278   0.89254   -1.000
 4001.00    0.97955   0.90739   -1.000
 4002.00    0.98475   0.90859   -1.000
 4003.00    0.96965   0.89244   -1.000
 4004.00    0.94074   0.86173   -1.000
 4005.00    0.87898   0.83334   -1.000
 4006.00    0.86355   0.83493   -1.000
 4007.00    0.90171   0.86231   -1.000
 4008.00    0.94541   0.89313   -1.000
 4009.00    0.95756   0.91271   -1.000
 4010.00    0.95899   0.92108   -1.000
 4011.00    0.97715   0.92406   -1.000
 4012.00    1.00556   0.92555   -1.000
 4013.00    0.97765   0.92839   -1.000
 4014.00    0.99464   0.93176   -1.000
 4015.00    1.00226   0.93293   -1.000
 4016.00    1.00237   0.93176   -1.000
 4017.00    1.00829   0.93178   -1.000
 4018.00    0.99744   0.93776   -1.000
 4019.00    1.02395   0.94493   -1.000
 4020.00    1.02991   0.94887   -1.000
 4021.00    1.01181   0.94684   -1.000
 4022.00    1.00680   0.94246   -1.000
 4023.00    0.99371   0.93423   -1.000
 4024.00    0.98835   0.92485   -1.000
 4025.00    1.00000   0.92627   -1.000
 4026.00    1.02331   0.94279   -1.000
 4027.00    1.05114   0.96245   -1.000
 4028.00    1.06906   0.96110   -1.000
 4029.00    1.03068   0.93433   -1.000
 4030.00    0.97032   0.89777   -1.000
 4031.00    0.92016   0.86716   -1.000
 4032.00    0.91150   0.85480   -1.000
 4033.00    0.92949   0.86001   -1.000
 4034.00    0.93587   0.88084   -1.000
 4035.00    0.95347   0.91278   -1.000
 4036.00    1.00729   0.95336   -1.000
 4037.00    1.06001   0.98958   -1.000
 4038.00    1.06459   1.00278   -1.000
 4039.00    1.05609   0.99211   -1.000
 4040.00    1.04330   0.97879   -1.000
 4041.00    1.03585   0.97075   -1.000
 4042.00    1.02203   0.95762   -1.000
 4043.00    0.98423   0.92215   -1.000
 4044.00    0.90507   0.86519   -1.000
 4045.00    0.84817   0.83048   -1.000
 4046.00    0.86460   0.84018   -1.000
 4047.00    0.92646   0.88414   -1.000
 4048.00    0.99747   0.93645   -1.000
 4049.00    1.02044   0.97303   -1.000
 4050.00    1.03740   0.98850   -1.000
 4051.00    1.04320   0.98755   -1.000
 4052.00    1.02476   0.97447   -1.000
 4053.00    1.00532   0.95609   -1.000
 4054.00    0.98720   0.94518   -1.000
 4055.00    0.96713   0.93950   -1.000
 4056.00    0.96601   0.93199   -1.000
 4057.00    0.96920   0.92857   -1.000
 4058.00    0.98004   0.93652   -1.000
 4059.00    0.99384   0.95496   -1.000
 4060.00    1.00999   0.96485   -1.000
 4061.00    1.01467   0.94553   -1.000
 4062.00    0.97341   0.90637   -1.000
 4063.00    0.90624   0.86894   -1.000
 4064.00    0.89216   0.85518   -1.000
 4065.00    0.92091   0.86530   -1.000
 4066.00    0.94133   0.88890   -1.000
 4067.00    0.97633   0.91454   -1.000
 4068.00    1.01276   0.93618   -1.000
 4069.00    1.02554   0.93999   -1.000
 4070.00    1.01808   0.92020   -1.000
 4071.00    0.97786   0.89608   -1.000
 4072.00    0.95972   0.89234   -1.000
 4073.00    0.98957   0.90932   -1.000
 4074.00    0.99240   0.91832   -1.000
 4075.00    0.94114   0.90201   -1.000
 4076.00    0.89691   0.87270   -1.000
 4077.00    0.85812   0.85452  273.405
 4078.00    0.86458   0.86568  254.269
 4079.00    0.92769   0.90258   -1.000
 4080.00    0.99189   0.94693   -1.000
 4081.00    1.03566   0.96893   -1.000
 4082.00    1.01587   0.96334   -1.000
 4083.00    0.98930   0.94355   -1.000
 4084.00    0.99327   0.93174   -1.000
 4085.00    0.99861   0.94090   -1.000
 4086.00    1.02256   0.96577   -1.000
 4087.00    1.05003   0.99507   -1.000
 4088.00    1.08672   1.01243   -1.000
 4089.00    1.10342   1.01208   -1.000
 4090.00    1.10728   0.99904   -1.000
 4091.00    1.09236   0.98713   -1.000
 4092.00    1.07267   0.98045   -1.000
 4093.00    1.05625   0.97159   -1.000
 4094.00    1.03971   0.95477   -1.000
 4095.00    1.01307   0.92696   -1.000
 4096.00    0.96615   0.89788   -1.000
 4097.00    0.94820   0.87072   -1.000
 4098.00    0.94556   0.83818   -1.000
 4099.00    0.90788   0.78941   -1.000
 4100.00    0.84319   0.72802   -1.000
 4101.00    0.80461   0.68746   -1.000
 4102.00    0.78435   0.69333   -1.000
 4103.00    0.83464   0.74493   -1.000
 4104.00    0.91664   0.81849   -1.000
 4105.00    0.96287   0.87688   -1.000
 4106.00    0.99511   0.91045   -1.000
 4107.00    1.01375   0.92937   -1.000
 4108.00    1.01831   0.93510   -1.000
 4109.00    0.99804   0.93479   -1.000
 4110.00    0.99164   0.93825   -1.000
 4111.00    0.99117   0.94709   -1.000
 4112.00    0.99520   0.96000   -1.000
 4113.00    1.02698   0.97564   -1.000
 4114.00    1.06120   0.99402   -1.000
 4115.00    1.05801   1.00572   -1.000
 4116.00    1.04462   1.00531   -1.000
 4117.00    1.03832   0.99415   -1.000
 4118.00    1.02593   0.98028   -1.000
 4119.00    1.01506   0.97175   -1.000
 4120.00    1.01584   0.97329   -1.000
 4121.00    1.02053   0.97939   -1.000
 4122.00    1.03059   0.98437   -1.000
 4123.00    1.03154   0.99112   -1.000
 4124.00    1.04040   1.00138   -1.000
 4125.00    1.04646   1.00848   -1.000
 4126.00    1.03634   1.00388   -1.000
 4127.00    1.02271   0.99181   -1.000
 4128.00    1.02487   0.98288   -1.000
 4129.00    1.01671   0.97930   -1.000
 4130.00    0.99628   0.96879   -1.000
 4131.00    0.97149   0.94727   -1.000
 4132.00    0.94450   0.92819   -1.000
 4133.00    0.92727   0.92758  260.469
 4134.00    0.95052   0.95025  247.624
 4135.00    1.00175   0.98431   -1.000
 4136.00    1.03121   1.01763  236.403
 4137.00    1.06899   1.03977   -1.000
 4138.00    1.08679   1.05419   -1.000
 4139.00    1.08610   1.05841   -1.000
 4140.00    1.07664   1.04228   -1.000
 4141.00    1.04145   1.00419   -1.000
 4142.00    0.97463   0.95989  284.588
 4143.00    0.92805   0.92907  272.595
 4144.00    0.93118   0.93558  256.626
 4145.00    0.97692   0.97094  248.000
 4146.00    1.02023   1.00415  246.429
 4147.00    1.03741   1.01733   -1.000
 4148.00    1.02991   1.01372  258.372
 4149.00    1.03065   1.01043   -1.000
 4150.00    1.01186   1.01416  258.852
 4151.00    1.01305   1.01689  257.812
 4152.00    1.00945   1.01072  260.574
 4153.00    0.97727   0.99594   -1.000
 4154.00    1.00985   0.98437   -1.000
 4155.00    1.20693   0.98535   -1.000
 4156.00    1.28307   0.99698   -1.000
 4157.00    0.85994   1.01336   -1.000
 4158.00    0.76322   1.03217   -1.000
 4159.00    1.02392   1.04812   -1.000
 4160.00    1.08542   1.05818   -1.000
 4161.00    1.06835   1.06553  238.128
 4162.00    1.07373   1.07322  239.981
 4163.00    1.09301   1.07891  244.010
 4164.00    1.07991   1.07752  247.850
 4165.00    1.05171   1.06499   -1.000
 4166.00    1.02158   1.04677   -1.000
 4167.00    1.01482   1.03430   -1.000
 4168.00    1.02401   1.03379   -1.000
 4169.00    1.03124   1.03402  254.572
 4170.00    1.02852   1.01730  270.370
 4171.00    0.99964   0.98457   -1.000
 4172.00    0.95436   0.95148  284.009
 4173.00    0.92244   0.94413   -1.000
 4174.00    0.94112   0.96404   -1.000
 4175.00    0.98331   0.98942  264.929
 4176.00    0.99957   1.00224  266.248
 4177.00    0.97492   1.00880   -1.000
 4178.00    0.96873   1.02032   -1.000
 4179.00    0.99971   1.03412   -1.000
 4180.00    1.01252   1.03645   -1.000
 4181.00    1.01088   1.02729   -1.000
 4182.00    0.99933   1.02128   -1.000
 4183.00    1.01858   1.02832   -1.000
 4184.00    1.04404   1.03891  247.664
 4185.00    1.04350   1.03588  256.251
 4186.00    1.02086   1.01963  262.375
 4187.00    0.99366   1.00479   -1.000
 4188.00    0.98749   1.00432   -1.000
 4189.00    1.01542   1.01554  252.126
 4190.00    1.04262   1.02762  248.421
 4191.00    1.03240   1.04060   -1.000
 4192.00    1.05161   1.05593  241.297
 4193.00    1.08002   1.06447  249.456
 4194.00    1.06865   1.05588  262.327
 4195.00    1.02047   1.03045   -1.000
 4196.00    0.97796   0.99880   -1.000
 4197.00    0.96221   0.97375   -1.000
 4198.00    0.94894   0.95711   -1.000
 4199.00    0.95191   0.94842  267.080
 4200.00    0.97741   0.95000   -1.000
 4201.00    0.98266   0.95877   -1.000
 4202.00    0.98241   0.97160  260.301
 4203.00    0.98750   0.99110  258.114
 4204.00    1.00195   1.01575   -1.000
 4205.00    1.02563   1.04001   -1.000
 4206.00    1.04034   1.06179   -1.000
 4207.00    1.06947   1.07682  241.479
 4208.00    1.08275   1.08133  242.382
 4209.00    1.07045   1.07758  241.645
 4210.00    1.06748   1.07493  240.286
 4211.00    1.06162   1.08062   -1.000
 4212.00    1.07412   1.08504   -1.000
 4213.00    1.06601   1.07296   -1.000
 4214.00    1.01332   1.04606   -1.000
 4215.00    0.98366   1.02228   -1.000
 4216.00    0.98161   1.01679   -1.000
 4217.00    1.01961   1.03672   -1.000
 4218.00    1.08071   1.06964  224.825
 4219.00    1.11662   1.09379   -1.000
 4220.00    1.13158   1.10213   -1.000
 4221.00    1.14131   1.09123   -1.000
 4222.00    1.12415   1.05691   -1.000
 4223.00    1.06346   0.99823   -1.000
 4224.00    0.97737   0.92774   -1.000
 4225.00    0.88792   0.86360   -1.000
 4226.00    0.80924   0.83342   -1.000
 4227.00    0.80569   0.85978   -1.000
 4228.00    0.90201   0.93434   -1.000
 4229.00    1.01169   1.00401  232.916
 4230.00    1.08300   1.04276   -1.000
 4231.00    1.10240   1.04970   -1.000
 4232.00    1.08846   1.03883   -1.000
 4233.00    1.07585   1.02564   -1.000
 4234.00    1.06324   1.01548   -1.000
 4235.00    1.05145   1.00791   -1.000
 4236.00    1.03766   1.00501   -1.000
 4237.00    1.02162   1.01089  247.472
 4238.00    1.03568   1.02703  243.890
 4239.00    1.03823   1.04582  239.311
 4240.00    1.05546   1.06208  236.454
 4241.00    1.09167   1.07348   -1.000
 4242.00    1.10049   1.08409   -1.000
 4243.00    1.11564   1.09764   -1.000
 4244.00    1.13166   1.10933   -1.000
 4245.00    1.13466   1.10649   -1.000
 4246.00    1.12219   1.08196   -1.000
 4247.00    1.08099   1.04740   -1.000
 4248.00    1.03654   1.02203   -1.000
 4249.00    1.01079   1.01393  256.225
 4250.00    1.02747   1.02287  248.527
 4251.00    1.05063   1.03783  242.707
 4252.00    1.06511   1.04760   -1.000
 4253.00    1.06239   1.03854   -1.000
 4254.00    1.04582   1.02408   -1.000
 4255.00    1.03569   1.03194  237.236
 4256.00    1.06001   1.05605  237.168
 4257.00    1.08180   1.06803  247.402
 4258.00    1.08674   1.04897   -1.000
 4259.00    1.04773   1.01339   -1.000
 4260.00    0.99400   0.99826  252.751
 4261.00    1.01114   1.02006  237.216
 4262.00    1.04744   1.06732   -1.000
 4263.00    1.09733   1.10902  222.587
 4264.00    1.14273   1.13244  222.848
 4265.00    1.15852   1.13562   -1.000
 4266.00    1.15478   1.12648   -1.000
 4267.00    1.12406   1.10854   -1.000
 4268.00    1.08852   1.07920  252.685
 4269.00    1.07118   1.03713   -1.000
 4270.00    1.01938   0.99219   -1.000
 4271.00    0.96109   0.95500  285.202
 4272.00    0.94035   0.94010  278.271
 4273.00    0.94318   0.94869  270.402
 4274.00    0.97467   0.97101  257.169
 4275.00    1.00053   1.00622  240.912
 4276.00    1.04726   1.05503  231.539
 4277.00    1.10411   1.09554  233.386
 4278.00    1.13066   1.10758   -1.000
 4279.00    1.10374   1.09236  251.271
 4280.00    1.05992   1.07367   -1.000
 4281.00    1.04110   1.06750   -1.000
 4282.00    1.05177   1.07335   -1.000
 4283.00    1.06395   1.07388  250.048
 4284.00    1.06100   1.06366  257.504
 4285.00    1.03746   1.05077   -1.000
 4286.00    1.00615   1.03567   -1.000
 4287.00    0.98495   1.01766   -1.000
 4288.00    0.98155   0.98965  291.384
 4289.00    0.94107   0.95826   -1.000
 4290.00    0.91328   0.95052   -1.000
 4291.00    0.94237   0.97551   -1.000
 4292.00    1.00441   1.01070  254.096
 4293.00    1.05112   1.03225   -1.000
 4294.00    1.04021   1.02964  261.651
 4295.00    1.04323   1.01294   -1.000
 4296.00    1.00031   0.98767   -1.000
 4297.00    0.94448   0.95213  309.087
 4298.00    0.89672   0.90470  329.041
 4299.00    0.82644   0.86457   -1.000
 4300.00    0.79901   0.84521   -1.000
 4301.00    0.80606   0.84640   -1.000
 4302.00    0.82906   0.85761   -1.000
 4303.00    0.84876   0.87422   -1.000
 4304.00    0.85582   0.89025   -1.000
 4305.00    0.87076   0.89177   -1.000
 4306.00    0.85357   0.87165   -1.000
 4307.00    0.81284   0.84180   -1.000
 4308.00    0.78581   0.82285   -1.000
 4309.00    0.79407   0.83294   -1.000
 4310.00    0.82237   0.86737   -1.000
 4311.00    0.86991   0.90753   -1.000
 4312.00    0.91149   0.94946   -1.000
 4313.00    0.95680   1.00069   -1.000
 4314.00    1.02016   1.06251   -1.000
 4315.00    1.09862   1.13479   -1.000
 4316.00    1.18777   1.19654  209.149
 4317.00    1.26828   1.23308   -1.000
 4318.00    1.26835   1.23936   -1.000
 4319.00    1.23733   1.22742  219.010
 4320.00    1.22731   1.20539   -1.000
 4321.00    1.20369   1.16757   -1.000
 4322.00    1.13414   1.10885   -1.000
 4323.00    1.06974   1.03964   -1.000
 4324.00    0.99302   0.98480  285.170
 4325.00    0.94553   0.97131   -1.000
 4326.00    0.97352   1.01035   -1.000
 4327.00    1.07050   1.08644   -1.000
 4328.00    1.16400   1.15040  219.055
 4329.00    1.22720   1.18245   -1.000
 4330.00    1.21132   1.18872   -1.000
 4331.00    1.20223   1.19094  214.391
 4332.00    1.21679   1.19942   -1.000
 4333.00    1.23577   1.20496   -1.000
 4334.00    1.23402   1.19777   -1.000
 4335.00    1.21969   1.16539   -1.000
 4336.00    1.17781   1.09853   -1.000
 4337.00    1.11064   1.00223   -1.000
 4338.00    1.01092   0.91066   -1.000
 4339.00    0.92163   0.85007   -1.000
 4340.00    0.88983   0.84302   -1.000
 4341.00    0.93636   0.89485   -1.000
 4342.00    1.00917   0.98017   -1.000
 4343.00    1.08345   1.05238   -1.000
 4344.00    1.13555   1.10224   -1.000
 4345.00    1.18035   1.13842   -1.000
 4346.00    1.20110   1.16853   -1.000
 4347.00    1.20779   1.19599  215.973
 4348.00    1.23976   1.21233   -1.000
 4349.00    1.24665   1.20181   -1.000
 4350.00    1.20075   1.16022   -1.000
 4351.00    1.11377   1.11328  247.854
 4352.00    1.07298   1.09535   -1.000
 4353.00    1.11220   1.11513  226.633
 4354.00    1.15061   1.15715  220.228
 4355.00    1.19262   1.19107  216.560
 4356.00    1.21884   1.20878  217.703
 4357.00    1.24192   1.21461   -1.000
 4358.00    1.23679   1.21309   -1.000
 4359.00    1.20570   1.21260  218.594
 4360.00    1.20558   1.22366   -1.000
 4361.00    1.23937   1.24403  210.668
 4362.00    1.26975   1.26052  209.613
 4363.00    1.28335   1.27265  207.534
 4364.00    1.28874   1.28280  208.623
 4365.00    1.29101   1.28005  215.701
 4366.00    1.25708   1.25860  222.725
 4367.00    1.21752   1.23365   -1.000
 4368.00    1.20348   1.21616   -1.000
 4369.00    1.21258   1.20628  220.622
 4370.00    1.22419   1.19957   -1.000
 4371.00    1.22845   1.19000   -1.000
 4372.00    1.21945   1.17212   -1.000
 4373.00    1.18200   1.14561   -1.000
 4374.00    1.13303   1.12188  239.460
 4375.00    1.11731   1.12112  228.621
 4376.00    1.14791   1.15022  218.369
 4377.00    1.19611   1.18660  215.826
 4378.00    1.24133   1.21060   -1.000
 4379.00    1.24666   1.21071   -1.000
 4380.00    1.22407   1.18242   -1.000
 4381.00    1.18311   1.12244   -1.000
 4382.00    1.10834   1.04321   -1.000
 4383.00    1.00522   0.97583   -1.000
 4384.00    0.95480   0.96888   -1.000
 4385.00    1.01907   1.02359  235.395
 4386.00    1.10184   1.09109  229.939
 4387.00    1.16705   1.13239   -1.000
 4388.00    1.17960   1.14379   -1.000
 4389.00    1.16384   1.14519   -1.000
 4390.00    1.16616   1.14970   -1.000
 4391.00    1.18473   1.16383   -1.000
 4392.00    1.21278   1.18141   -1.000
 4393.00    1.21765   1.18647   -1.000
 4394.00    1.20261   1.18365   -1.000
 4395.00    1.19472   1.19298  217.348
 4396.00    1.22283   1.21907  212.973
 4397.00    1.25768   1.23968   -1.000
 4398.00    1.25504   1.23523   -1.000
 4399.00    1.23206   1.21551  230.316
 4400.00    1.19718   1.19931  226.797
 4401.00    1.20032   1.19458  224.825
 4402.00    1.21656   1.18687   -1.000
 4403.00    1.19952   1.15879   -1.000
 4404.00    1.13707   1.12389  245.658
 4405.00    1.11239   1.11076  237.730
 4406.00    1.12063   1.12546  234.814
 4407.00    1.15199   1.15221  231.433
 4408.00    1.15896   1.17855   -1.000
 4409.00    1.20433   1.21615  212.765
 4410.00    1.26859   1.26477  206.552
 4411.00    1.29463   1.29779  205.873
 4412.00    1.31448   1.29768  213.098
 4413.00    1.29255   1.26683   -1.000
 4414.00    1.23458   1.21789  231.014
 4415.00    1.18342   1.17969  227.823
 4416.00    1.17483   1.18199  219.181
 4417.00    1.20562   1.22292   -1.000
 4418.00    1.24723   1.27479   -1.000
 4419.00    1.28067   1.31592   -1.000
 4420.00    1.28303   1.32451   -1.000
 4421.00    1.25429   1.30661   -1.000
 4422.00    1.20485   1.28483   -1.000
 4423.00    1.20340   1.27469   -1.000
 4424.00    1.21965   1.27485   -1.000
 4425.00    1.21308   1.27186   -1.000
 4426.00    1.18824   1.26556   -1.000
 4427.00    1.20210   1.26823   -1.000
 4428.00    1.20579   1.27628   -1.000
 4429.00    1.20884   1.28459   -1.000
 4430.00    1.21027   1.29106   -1.000
 4431.00    1.21811   1.29362   -1.000
 4432.00    1.23066   1.28790   -1.000
 4433.00    1.21985   1.26452   -1.000
 4434.00    1.18421   1.23042   -1.000
 4435.00    1.16205   1.21748   -1.000
 4436.00    1.18899   1.24477   -1.000
 4437.00    1.26081   1.29762   -1.000
 4438.00    1.31767   1.34262   -1.000
 4439.00    1.33657   1.35654   -1.000
 4440.00    1.32848   1.33522  219.359
 4441.00    1.27544   1.29232   -1.000
 4442.00    1.21181   1.26009   -1.000
 4443.00    1.21514   1.26106   -1.000
 4444.00    1.25559   1.29647   -1.000
 4445.00    1.31560   1.33972   -1.000
 4446.00    1.33055   1.36673   -1.000
 4447.00    1.33492   1.37334   -1.000
 4448.00    1.35421   1.37133   -1.000
 4449.00    1.33907   1.36934   -1.000
 4450.00    1.34055   1.36499   -1.000
 4451.00    1.32542   1.35540   -1.000
 4452.00    1.32547   1.33426  220.019
 4453.00    1.31169   1.29216   -1.000
 4454.00    1.24232   1.24428  231.842
 4455.00    1.21257   1.21592  227.397
 4456.00    1.23487   1.21783   -1.000
 4457.00    1.23993   1.23636  224.792
 4458.00    1.25086   1.25174  226.253
 4459.00    1.25590   1.25850  228.632
 4460.00    1.23858   1.26299   -1.000
 4461.00    1.23205   1.27094   -1.000
 4462.00    1.24593   1.28679   -1.000
 4463.00    1.28518   1.31191   -1.000
 4464.00    1.33040   1.33533  211.254
 4465.00    1.35390   1.34648  211.876
 4466.00    1.34606   1.34232  214.780
 4467.00    1.32738   1.32932  218.458
 4468.00    1.30872   1.31628  218.689
 4469.00    1.29396   1.31338   -1.000
 4470.00    1.30494   1.32833   -1.000
 4471.00    1.33720   1.35955   -1.000
 4472.00    1.38194   1.39621   -1.000
 4473.00    1.42595   1.42421  194.951
 4474.00    1.44256   1.43651  194.987
 4475.00    1.44059   1.43926  193.269
 4476.00    1.44994   1.44134  192.774
 4477.00    1.47725   1.44273   -1.000
 4478.00    1.47318   1.43209   -1.000
 4479.00    1.42596   1.40111   -1.000
 4480.00    1.37515   1.35730  216.419
 4481.00    1.32523   1.33045  212.070
 4482.00    1.31918   1.33625   -1.000
 4483.00    1.35952   1.36929  196.050
 4484.00    1.42091   1.41545  192.972
 4485.00    1.46280   1.45151  194.360
 4486.00    1.48641   1.46007   -1.000
 4487.00    1.47516   1.44154   -1.000
 4488.00    1.42717   1.41269  209.995
 4489.00    1.36938   1.39002   -1.000
 4490.00    1.36730   1.38832   -1.000
 4491.00    1.39778   1.40492  199.597
 4492.00    1.42788   1.42223  203.607
 4493.00    1.42334   1.42117  209.669
 4494.00    1.39081   1.40301   -1.000
 4495.00    1.36083   1.39250   -1.000
 4496.00    1.35958   1.40011   -1.000
 4497.00    1.39480   1.41854   -1.000
 4498.00    1.42005   1.43671   -1.000
 4499.00    1.43132   1.44721   -1.000
 4500.00    1.42275   1.44774   -1.000
 4501.00    1.41240   1.45218   -1.000
 4502.00    1.42751   1.47305   -1.000
 4503.00    1.48174   1.50330   -1.000
 4504.00    1.53628   1.52974  185.918
 4505.00    1.54311   1.54040  189.457
 4506.00    1.52300   1.53476  190.826
 4507.00    1.52440   1.52162  190.534
 4508.00    1.52070   1.51420  189.013
 4509.00    1.51645   1.51576  188.338
 4510.00    1.52657   1.51942  190.569
 4511.00    1.53224   1.51571  194.396
 4512.00    1.50871   1.50188  197.353
 4513.00    1.48639   1.48562  197.971
 4514.00    1.45846   1.47325   -1.000
 4515.00    1.46790   1.46833  197.521
 4516.00    1.48343   1.47003  199.808
 4517.00    1.46667   1.46874  199.881
 4518.00    1.46571   1.46345  196.116
 4519.00    1.47914   1.46580  193.196
 4520.00    1.48711   1.47614  194.900
 4521.00    1.49309   1.48312  199.613
 4522.00    1.46396   1.47704  203.103
 4523.00    1.44744   1.45947  205.080
 4524.00    1.43106   1.43995  209.254
 4525.00    1.40820   1.41908  215.740
 4526.00    1.37750   1.39029   -1.000
 4527.00    1.34463   1.35560   -1.000
 4528.00    1.31901   1.32936   -1.000
 4529.00    1.31779   1.32624  216.152
 4530.00    1.32893   1.34199   -1.000
 4531.00    1.37476   1.36178  213.490
 4532.00    1.38793   1.36565   -1.000
 4533.00    1.35751   1.35012  225.377
 4534.00    1.33339   1.33287  219.563
 4535.00    1.33564   1.33759  206.460
 4536.00    1.37042   1.37665  195.770
 4537.00    1.44196   1.43569  192.418
 4538.00    1.50231   1.48510   -1.000
 4539.00    1.50892   1.50138  199.030
 4540.00    1.47995   1.49160   -1.000
 4541.00    1.46744   1.47892   -1.000
 4542.00    1.48214   1.47813  210.880
 4543.00    1.38258   1.48227   -1.000
 4544.00    0.56361   1.47798   -1.000
 4545.00   -0.04819   1.46644    0.000
 4546.00    0.12279   1.45682   -1.000
 4547.00    0.79921   1.44683   -1.000
 4548.00    0.74633   1.43037   -1.000
 4549.00    0.73342   1.41513   -1.000
 4550.00    1.45216   1.41806   -1.000
 4551.00    1.42316   1.43869  206.730
 4552.00    1.45349   1.45208  209.767
 4553.00    1.42824   1.44629   -1.000
 4554.00    1.41348   1.43343   -1.000
 4555.00    1.42349   1.43103  198.037
 4556.00    1.46688   1.45355  191.066
 4557.00    1.50783   1.49410  188.934
 4558.00    1.52824   1.53011  189.926
 4559.00    1.53425   1.55220   -1.000
 4560.00    1.55213   1.56288  190.865
 4561.00    1.55874   1.56323  195.618
 4562.00    1.54344   1.55124  200.167
 4563.00    1.51202   1.52776   -1.000
 4564.00    1.47107   1.50398   -1.000
 4565.00    1.47773   1.49570   -1.000
 4566.00    1.50235   1.51066  189.378
 4567.00    1.55106   1.53991  188.548
 4568.00    1.57219   1.56125  191.443
 4569.00    1.55858   1.56131  196.497
 4570.00    1.52332   1.54069   -1.000
 4571.00    1.48794   1.51460   -1.000
 4572.00    1.47979   1.50520   -1.000
 4573.00    1.52182   1.52266  189.902
 4574.00    1.53849   1.54883  190.320
 4575.00    1.54898   1.56326  191.286
 4576.00    1.56051   1.56515  192.914
 4577.00    1.54782   1.55829  196.908
 4578.00    1.53145   1.53997  202.528
 4579.00    1.49792   1.51029  205.497
 4580.00    1.46303   1.48152   -1.000
 4581.00    1.43464   1.46514   -1.000
 4582.00    1.45468   1.46501  200.555
 4583.00    1.48143   1.47464  201.410
 4584.00    1.47319   1.48303  201.738
 4585.00    1.47972   1.48537  198.146
 4586.00    1.48177   1.49190  193.062
 4587.00    1.50677   1.50982  189.913
 4588.00    1.55464   1.53510   -1.000
 4589.00    1.55846   1.55315  193.650
 4590.00    1.54342   1.55336  197.255
 4591.00    1.51383   1.53782   -1.000
 4592.00    1.49200   1.51854   -1.000
 4593.00    1.49176   1.51077   -1.000
 4594.00    1.49900   1.51630   -1.000
 4595.00    1.50961   1.52581   -1.000
 4596.00    1.51812   1.53517   -1.000
 4597.00    1.52404   1.54356   -1.000
 4598.00    1.52737   1.54695   -1.000
 4599.00    1.52919   1.54177  198.985
 4600.00    1.51617   1.53135  198.835
 4601.00    1.50146   1.52265   -1.000
 4602.00    1.50276   1.52179   -1.000
 4603.00    1.51473   1.52698  195.255
 4604.00    1.53271   1.53417  194.452
 4605.00    1.53560   1.54208  191.823
 4606.00    1.52724   1.55296   -1.000
 4607.00    1.54385   1.56946   -1.000
 4608.00    1.59743   1.59131  182.910
 4609.00    1.61532   1.61335  184.280
 4610.00    1.61144   1.62078  186.784
 4611.00    1.60183   1.61013  188.623
 4612.00    1.58012   1.59682  189.277
 4613.00    1.57941   1.58899  188.055
 4614.00    1.59397   1.58985  186.571
 4615.00    1.59736   1.59461  186.357
 4616.00    1.59845   1.59590  187.736
 4617.00    1.59621   1.59240  188.747
 4618.00    1.57898   1.58788  188.090
 4619.00    1.58423   1.58775  185.915
 4620.00    1.59275   1.59664  183.616
 4621.00    1.60187   1.61296  183.827
 4622.00    1.62919   1.62538  184.286
 4623.00    1.63313   1.62594  184.974
 4624.00    1.62941   1.62072  186.435
 4625.00    1.62464   1.61535  186.690
 4626.00    1.59596   1.60904  186.894
 4627.00    1.58445   1.60630   -1.000
 4628.00    1.60170   1.60670  187.991
 4629.00    1.59382   1.60756  186.674
 4630.00    1.60516   1.61050  185.201
 4631.00    1.63794   1.61894   -1.000
 4632.00    1.63052   1.62426  189.303
 4633.00    1.60669   1.61680  190.789
 4634.00    1.59854   1.60423  190.941
 4635.00    1.60015   1.59574  192.828
 4636.00    1.58862   1.58968  194.994
 4637.00    1.58195   1.58193  195.435
 4638.00    1.55833   1.57528   -1.000
 4639.00    1.54697   1.57507   -1.000
 4640.00    1.56890   1.58633   -1.000
 4641.00    1.59451   1.60650  184.671
 4642.00    1.62383   1.62542  186.255
 4643.00    1.63464   1.62876  190.311
 4644.00    1.60940   1.61293  195.754
 4645.00    1.57457   1.58565  200.010
 4646.00    1.53872   1.55349   -1.000
 4647.00    1.51088   1.53288   -1.000
 4648.00    1.52551   1.53806  191.337
 4649.00    1.56181   1.56324  189.389
 4650.00    1.60380   1.59196  189.146
 4651.00    1.60806   1.60843  189.420
 4652.00    1.61023   1.61111  192.355
 4653.00    1.60296   1.60518  196.364
 4654.00    1.56980   1.59241   -1.000
 4655.00    1.54178   1.58072   -1.000
 4656.00    1.55453   1.58297   -1.000
 4657.00    1.59048   1.60724  181.178
 4658.00    1.63892   1.64843  178.250
 4659.00    1.67963   1.68827  178.862
 4660.00    1.69362   1.70537  181.761
 4661.00    1.68295   1.69707  186.119
 4662.00    1.65746   1.67448  188.904
 4663.00    1.63040   1.64891   -1.000
 4664.00    1.61049   1.62347  194.425
 4665.00    1.58465   1.59393  203.006
 4666.00    1.54018   1.55458   -1.000
 4667.00    1.47560   1.51695   -1.000
 4668.00    1.46213   1.50399   -1.000
 4669.00    1.49904   1.52516   -1.000
 4670.00    1.54467   1.56609   -1.000
 4671.00    1.59511   1.60429  187.749
 4672.00    1.62808   1.62565  187.859
 4673.00    1.63142   1.63281  187.045
 4674.00    1.63711   1.63762  184.396
 4675.00    1.65513   1.64973  182.572
 4676.00    1.66546   1.66138  184.468
 4677.00    1.66496   1.65626  188.542
 4678.00    1.64397   1.63415  192.094
 4679.00    1.61592   1.60720  194.895
 4680.00    1.59006   1.58843  195.563
 4681.00    1.57298   1.58116  192.243
 4682.00    1.58892   1.58429  187.893
 4683.00    1.61225   1.59771  186.365
 4684.00    1.64116   1.61348   -1.000
 4685.00    1.65659   1.62327   -1.000
 4686.00    1.63778   1.62665  188.143
 4687.00    1.63119   1.62785  188.101
 4688.00    1.63855   1.62888  188.479
 4689.00    1.64076   1.63046  189.650
 4690.00    1.62945   1.63168  189.278
 4691.00    1.61779   1.63108  186.750
 4692.00    1.62829   1.63502  183.561
 4693.00    1.66575   1.64666   -1.000
 4694.00    1.68456   1.65880   -1.000
 4695.00    1.70996   1.66651   -1.000
 4696.00    1.71723   1.66856   -1.000
 4697.00    1.68444   1.65749   -1.000
 4698.00    1.63929   1.63414  191.937
 4699.00    1.61009   1.61030  191.021
 4700.00    1.61737   1.59211   -1.000
 4701.00    1.62177   1.57811   -1.000
 4702.00    1.59751   1.56452   -1.000
 4703.00    1.57827   1.56088   -1.000
 4704.00    1.59009   1.57535   -1.000
 4705.00    1.62696   1.59600   -1.000
 4706.00    1.63787   1.60151   -1.000
 4707.00    1.61050   1.58882   -1.000
 4708.00    1.57612   1.57617  195.718
 4709.00    1.55791   1.58061   -1.000
 4710.00    1.58934   1.59948  185.570
 4711.00    1.63577   1.62312   -1.000
 4712.00    1.65712   1.64196   -1.000
 4713.00    1.65530   1.64349  189.951
 4714.00    1.64626   1.63433  188.728
 4715.00    1.64270   1.63379  184.837
 4716.00    1.66383   1.65017  181.959
 4717.00    1.68085   1.67632  181.078
 4718.00    1.69618   1.69693  180.461
 4719.00    1.71421   1.70737  180.437
 4720.00    1.72221   1.70976   -1.000
 4721.00    1.71674   1.70806  182.635
 4722.00    1.70308   1.70585  181.196
 4723.00    1.68741   1.70733  179.811
 4724.00    1.68588   1.71141   -1.000
 4725.00    1.68609   1.70970   -1.000
 4726.00    1.66277   1.69308   -1.000
 4727.00    1.61554   1.66034   -1.000
 4728.00    1.58279   1.62760   -1.000
 4729.00    1.58781   1.61325   -1.000
 4730.00    1.61405   1.61567  190.883
 4731.00    1.62337   1.62568  188.722
 4732.00    1.62693   1.64097  187.274
 4733.00    1.64438   1.65628  186.240
 4734.00    1.65684   1.66387  186.051
 4735.00    1.67609   1.66378   -1.000
 4736.00    1.67931   1.66109   -1.000
 4737.00    1.66245   1.65987  185.254
 4738.00    1.66061   1.66595  185.739
 4739.00    1.67264   1.67862  186.631
 4740.00    1.68003   1.68659  186.340
 4741.00    1.66436   1.68729   -1.000
 4742.00    1.67128   1.69070  183.241
 4743.00    1.69605   1.69817  183.667
 4744.00    1.71218   1.70520  183.376
 4745.00    1.70667   1.70982  181.793
 4746.00    1.69890   1.71367  180.343
 4747.00    1.72051   1.72228  180.219
 4748.00    1.72640   1.73418  180.479
 4749.00    1.71347   1.74321   -1.000
 4750.00    1.71260   1.74846   -1.000
 4751.00    1.70576   1.74593   -1.000
 4752.00    1.71028   1.73339   -1.000
 4753.00    1.68316   1.71348   -1.000
 4754.00    1.65887   1.69566   -1.000
 4755.00    1.66874   1.68973   -1.000
 4756.00    1.66391   1.69430   -1.000
 4757.00    1.65490   1.70407   -1.000
 4758.00    1.65978   1.71498   -1.000
 4759.00    1.65314   1.72450   -1.000
 4760.00    1.63951   1.72501   -1.000
 4761.00    1.62249   1.70981   -1.000
 4762.00    1.58582   1.67973   -1.000
 4763.00    1.58349   1.64836   -1.000
 4764.00    1.58285   1.63176   -1.000
 4765.00    1.57755   1.62724   -1.000
 4766.00    1.60064   1.63086   -1.000
 4767.00    1.62238   1.64613   -1.000
 4768.00    1.64844   1.67503   -1.000
 4769.00    1.67630   1.70489   -1.000
 4770.00    1.70430   1.71916  188.280
 4771.00    1.70273   1.71707  188.823
 4772.00    1.68783   1.71265   -1.000
 4773.00    1.69291   1.71855   -1.000
 4774.00    1.70875   1.73665   -1.000
 4775.00    1.73388   1.75293   -1.000
 4776.00    1.74131   1.75963  182.981
 4777.00    1.72030   1.75730   -1.000
 4778.00    1.71120   1.74930   -1.000
 4779.00    1.70159   1.73943   -1.000
 4780.00    1.68927   1.73061   -1.000
 4781.00    1.69176   1.72385   -1.000
 4782.00    1.69319   1.71429   -1.000
 4783.00    1.68632   1.70376   -1.000
 4784.00    1.67915   1.69701   -1.000
 4785.00    1.67908   1.69307  192.769
 4786.00    1.67534   1.69049  193.457
 4787.00    1.65818   1.68958   -1.000
 4788.00    1.65214   1.69286   -1.000
 4789.00    1.65770   1.70120   -1.000
 4790.00    1.66264   1.71572   -1.000
 4791.00    1.68363   1.73566   -1.000
 4792.00    1.70986   1.75855   -1.000
 4793.00    1.73327   1.78269   -1.000
 4794.00    1.76298   1.80586   -1.000
 4795.00    1.78303   1.82209   -1.000
 4796.00    1.77223   1.82172   -1.000
 4797.00    1.74252   1.80625   -1.000
 4798.00    1.71441   1.78396   -1.000
 4799.00    1.70274   1.76509   -1.000
 4800.00    1.70707   1.76145   -1.000
 4801.00    1.72101   1.77641   -1.000
 4802.00    1.74441   1.79766   -1.000
 4803.00    1.76416   1.80869   -1.000
 4804.00    1.76231   1.80417   -1.000
 4805.00    1.74002   1.79082   -1.000
 4806.00    1.71646   1.77949   -1.000
 4807.00    1.70813   1.77240   -1.000
 4808.00    1.70638   1.77071   -1.000
 4809.00    1.72450   1.77783   -1.000
 4810.00    1.73061   1.78955   -1.000
 4811.00    1.74023   1.79803   -1.000
 4812.00    1.75009   1.80266   -1.000
 4813.00    1.75056   1.80695   -1.000
 4814.00    1.75071   1.81342   -1.000
 4815.00    1.75492   1.82469   -1.000
 4816.00    1.77099   1.83895   -1.000
 4817.00    1.77562   1.84971   -1.000
 4818.00    1.78533   1.85336   -1.000
 4819.00    1.79497   1.85340   -1.000
 4820.00    1.79098   1.85157   -1.000
 4821.00    1.78038   1.83988   -1.000
 4822.00    1.74888   1.81292   -1.000
 4823.00    1.71636   1.77841   -1.000
 4824.00    1.70465   1.75777   -1.000
 4825.00    1.72948   1.76724   -1.000
 4826.00    1.76006   1.79200   -1.000
 4827.00    1.76216   1.80918   -1.000
 4828.00    1.74619   1.81039   -1.000
 4829.00    1.74195   1.80423   -1.000
 4830.00    1.73858   1.79928   -1.000
 4831.00    1.72690   1.78827   -1.000
 4832.00    1.73354   1.77528   -1.000
 4833.00    1.74809   1.77409   -1.000
 4834.00    1.75139   1.78567   -1.000
 4835.00    1.75646   1.80225   -1.000
 4836.00    1.77052   1.81238   -1.000
 4837.00    1.77719   1.81136   -1.000
 4838.00    1.75680   1.80146   -1.000
 4839.00    1.73145   1.78504   -1.000
 4840.00    1.71744   1.76929   -1.000
 4841.00    1.71049   1.76155   -1.000
 4842.00    1.72984   1.76356   -1.000
 4843.00    1.74745   1.76931   -1.000
 4844.00    1.75833   1.77834  180.680
 4845.00    1.78414   1.79596  181.233
 4846.00    1.79046   1.81228   -1.000
 4847.00    1.77632   1.81051   -1.000
 4848.00    1.75043   1.79705   -1.000
 4849.00    1.74631   1.79048   -1.000
 4850.00    1.76557   1.79632   -1.000
 4851.00    1.76240   1.80294   -1.000
 4852.00    1.75290   1.79839   -1.000
 4853.00    1.74550   1.77927   -1.000
 4854.00    1.70159   1.74324   -1.000
 4855.00    1.65932   1.70212   -1.000
 4856.00    1.64804   1.67265   -1.000
 4857.00    1.66373   1.65632  205.371
 4858.00    1.63782   1.62315   -1.000
 4859.00    1.54149   1.53519  247.745
 4860.00    1.39470   1.41363   -1.000
 4861.00    1.29898   1.32343   -1.000
 4862.00    1.32343   1.32106  213.177
 4863.00    1.44183   1.40380   -1.000
 4864.00    1.56301   1.51159   -1.000
 4865.00    1.61601   1.60424   -1.000
 4866.00    1.66343   1.66908  191.604
 4867.00    1.69086   1.71114   -1.000
 4868.00    1.69349   1.73312   -1.000
 4869.00    1.67709   1.73176   -1.000
 4870.00    1.64572   1.70321   -1.000
 4871.00    1.59326   1.65896   -1.000
 4872.00    1.57874   1.63625   -1.000
 4873.00    1.62730   1.66162   -1.000
 4874.00    1.67140   1.71286   -1.000
 4875.00    1.67954   1.75318   -1.000
 4876.00    1.68182   1.76649   -1.000
 4877.00    1.68034   1.77063   -1.000
 4878.00    1.69965   1.78623   -1.000
 4879.00    1.73881   1.81161   -1.000
 4880.00    1.73963   1.83069   -1.000
 4881.00    1.70383   1.83020   -1.000
 4882.00    1.68972   1.81642   -1.000
 4883.00    1.68990   1.80614   -1.000
 4884.00    1.68751   1.79567   -1.000
 4885.00    1.68225   1.77907   -1.000
 4886.00    1.66858   1.76231   -1.000
 4887.00    1.66588   1.75406   -1.000
 4888.00    1.67400   1.75137   -1.000
 4889.00    1.66702   1.73709   -1.000
 4890.00    1.63493   1.70781   -1.000
 4891.00    1.63115   1.68978   -1.000
 4892.00    1.68295   1.71414   -1.000
 4893.00    1.75816   1.78657   -1.000
 4894.00    1.83494   1.87024   -1.000
 4895.00    1.87200   1.92576   -1.000
 4896.00    1.88354   1.95018   -1.000
 4897.00    1.88728   1.95252   -1.000
 4898.00    1.86826   1.94019   -1.000
 4899.00    1.82856   1.91885   -1.000
 4900.00    1.81066   1.90020   -1.000
 4901.00    1.81435   1.88925   -1.000
 4902.00    1.80442   1.87956   -1.000
 4903.00    1.77642   1.86507   -1.000
 4904.00    1.78282   1.86019   -1.000
 4905.00    1.82678   1.88136   -1.000
 4906.00    1.86009   1.91155   -1.000
 4907.00    1.85666   1.92253   -1.000
 4908.00    1.82153   1.90535   -1.000
 4909.00    1.77546   1.86826   -1.000
 4910.00    1.74147   1.83402   -1.000
 4911.00    1.75350   1.82176   -1.000
 4912.00    1.78938   1.83817   -1.000
 4913.00    1.82608   1.86719   -1.000
 4914.00    1.85115   1.89432   -1.000
 4915.00    1.86525   1.91355   -1.000
 4916.00    1.86538   1.91174   -1.000
 4917.00    1.82215   1.87173   -1.000
 4918.00    1.74192   1.79586   -1.000
 4919.00    1.66247   1.70883   -1.000
 4920.00    1.62167   1.65341   -1.000
 4921.00    1.64331   1.65476  192.532
 4922.00    1.71170   1.70092   -1.000
 4923.00    1.76939   1.75327   -1.000
 4924.00    1.77349   1.78778  186.464
 4925.00    1.78474   1.81543   -1.000
 4926.00    1.81525   1.85037   -1.000
 4927.00    1.84479   1.89145   -1.000
 4928.00    1.88387   1.92862   -1.000
 4929.00    1.90205   1.95267   -1.000
 4930.00    1.90869   1.96258   -1.000
 4931.00    1.90666   1.95402   -1.000
 4932.00    1.87043   1.92085   -1.000
 4933.00    1.81879   1.87493   -1.000
 4934.00    1.77696   1.84432   -1.000
 4935.00    1.77977   1.84255   -1.000
 4936.00    1.79924   1.85214   -1.000
 4937.00    1.77158   1.83667   -1.000
 4938.00    1.73339   1.79987   -1.000
 4939.00    1.73247   1.78279   -1.000
 4940.00    1.77204   1.80795   -1.000
 4941.00    1.83929   1.86575  178.562
 4942.00    1.89024   1.92052  177.549
 4943.00    1.90675   1.95002   -1.000
 4944.00    1.91205   1.95555   -1.000
 4945.00    1.89860   1.94719   -1.000
 4946.00    1.88847   1.93974   -1.000
 4947.00    1.91203   1.94598   -1.000
 4948.00    1.92695   1.96720   -1.000
 4949.00    1.94088   1.98863   -1.000
 4950.00    1.94442   1.99696   -1.000
 4951.00    1.94516   1.99267   -1.000
 4952.00    1.93480   1.98296   -1.000
 4953.00    1.92216   1.97050   -1.000
 4954.00    1.89981   1.95153   -1.000
 4955.00    1.85377   1.90970   -1.000
 4956.00    1.77739   1.83161   -1.000
 4957.00    1.71538   1.75047   -1.000
 4958.00    1.72444   1.72449  185.136
 4959.00    1.78110   1.77289  180.509
 4960.00    1.84613   1.85811  179.969
 4961.00    1.88936   1.92100   -1.000
 4962.00    1.90467   1.94590   -1.000
 4963.00    1.89963   1.94498   -1.000
 4964.00    1.87247   1.92817   -1.000
 4965.00    1.84391   1.90236   -1.000
 4966.00    1.82158   1.87882   -1.000
 4967.00    1.81650   1.86531   -1.000
 4968.00    1.83678   1.86193   -1.000
 4969.00    1.84240   1.86823   -1.000
 4970.00    1.84472   1.88402   -1.000
 4971.00    1.86546   1.90509   -1.000
 4972.00    1.88439   1.92781   -1.000
 4973.00    1.90984   1.94843   -1.000
 4974.00    1.93262   1.96207   -1.000
 4975.00    1.93196   1.96405   -1.000
 4976.00    1.90533   1.95632   -1.000
 4977.00    1.88455   1.93968   -1.000
 4978.00    1.85414   1.91791   -1.000
 4979.00    1.81893   1.89412   -1.000
 4980.00    1.79839   1.86455   -1.000
 4981.00    1.75452   1.81740   -1.000
 4982.00    1.70797   1.75566   -1.000
 4983.00    1.68414   1.70986   -1.000
 4984.00    1.69363   1.70879  194.708
 4985.00    1.73805   1.75329  188.969
 4986.00    1.79635   1.81512  185.960
 4987.00    1.84618   1.86908  187.100
 4988.00    1.85788   1.90031   -1.000
 4989.00    1.85221   1.90131   -1.000
 4990.00    1.83790   1.88356   -1.000
 4991.00    1.83828   1.86937   -1.000
 4992.00    1.86389   1.87120  188.400
 4993.00    1.86402   1.88276  188.021
 4994.00    1.86462   1.89422   -1.000
 4995.00    1.86911   1.90410   -1.000
 4996.00    1.87554   1.91441   -1.000
 4997.00    1.88458   1.91870   -1.000
 4998.00    1.86627   1.90424   -1.000
 4999.00    1.83296   1.86864   -1.000
 5000.00    1.81337   1.82801  195.891
 5001.00    1.80639   1.80345  194.184
 5002.00    1.80918   1.80502  194.307
 5003.00    1.81598   1.81926  197.935
 5004.00    1.80952   1.82181  201.694
 5005.00    1.78560   1.79861  200.604
 5006.00    1.76790   1.76702  195.132
 5007.00    1.79192   1.76521   -1.000
 5008.00    1.83699   1.80115   -1.000
 5009.00    1.86452   1.84789   -1.000
 5010.00    1.86005   1.87047  200.202
 5011.00    1.81674   1.85180   -1.000
 5012.00    1.76195   1.80418   -1.000
 5013.00    1.71908   1.75555   -1.000
 5014.00    1.70811   1.73202   -1.000
 5015.00    1.73130   1.73549  199.479
 5016.00    1.77301   1.75326   -1.000
 5017.00    1.78789   1.76991   -1.000
 5018.00    1.78817   1.78462  196.177
 5019.00    1.80891   1.80588  195.451
 5020.00    1.83086   1.82666  196.221
 5021.00    1.84032   1.83513  196.097
 5022.00    1.83791   1.83217  194.600
 5023.00    1.83825   1.83266  192.782
 5024.00    1.85810   1.85387  192.282
 5025.00    1.86679   1.88028  193.252
 5026.00    1.85834   1.88480   -1.000
 5027.00    1.85145   1.87366  190.725
 5028.00    1.84838   1.86791  187.396
 5029.00    1.86933   1.87776  184.606
 5030.00    1.90340   1.90296  181.903
 5031.00    1.93185   1.93505  180.672
 5032.00    1.95976   1.96325  182.935
 5033.00    1.97688   1.97618  189.446
 5034.00    1.94403   1.95933  195.487
 5035.00    1.87080   1.91521   -1.000
 5036.00    1.82367   1.87136   -1.000
 5037.00    1.81003   1.84799   -1.000
 5038.00    1.81075   1.83609   -1.000
 5039.00    1.77497   1.80068   -1.000
 5040.00    1.70823   1.74179   -1.000
 5041.00    1.68179   1.70691   -1.000
 5042.00    1.72680   1.73140  190.620
 5043.00    1.84045   1.80947   -1.000
 5044.00    1.89464   1.89824  179.314
 5045.00    1.32562   1.96253   -1.000
 5046.00    0.25355   1.99386   -1.000
 5047.00    0.06963   1.99052   -1.000
 5048.00    0.49969   1.95529   -1.000
 5049.00    1.47978   1.90395   -1.000
 5050.00    1.84579   1.86174  193.387
 5051.00    1.86791   1.84692   -1.000
 5052.00    1.88671   1.86469   -1.000
 5053.00    1.92666   1.90711   -1.000
 5054.00    1.97222   1.95073   -1.000
 5055.00    2.00335   1.97464   -1.000
 5056.00    2.01372   1.98756   -1.000
 5057.00    2.01920   1.99869   -1.000
 5058.00    2.02209   2.00926   -1.000
 5059.00    2.01944   2.01841  179.459
 5060.00    2.02575   2.02404   -1.000
 5061.00    2.03619   2.02670   -1.000
 5062.00    2.01848   2.02011  189.831
 5063.00    1.97217   1.98768  194.990
 5064.00    1.91547   1.93719  195.422
 5065.00    1.88242   1.89888  192.714
 5066.00    1.89210   1.88825  190.622
 5067.00    1.90759   1.89908   -1.000
 5068.00    1.91575   1.91021   -1.000
 5069.00    1.93175   1.91738   -1.000
 5070.00    1.94840   1.92577   -1.000
 5071.00    1.94559   1.92808   -1.000
 5072.00    1.93263   1.91806   -1.000
 5073.00    1.93800   1.91017   -1.000
 5074.00    1.95016   1.91780   -1.000
 5075.00    1.95735   1.93326   -1.000
 5076.00    1.95621   1.94076   -1.000
 5077.00    1.94700   1.93043   -1.000
 5078.00    1.92074   1.89713   -1.000
 5079.00    1.86456   1.84799   -1.000
 5080.00    1.82619   1.81352   -1.000
 5081.00    1.83269   1.81013   -1.000
 5082.00    1.86157   1.82830   -1.000
 5083.00    1.88654   1.85346   -1.000
 5084.00    1.91779   1.88105   -1.000
 5085.00    1.95297   1.91568   -1.000
 5086.00    1.97962   1.94898   -1.000
 5087.00    1.99496   1.96829   -1.000
 5088.00    1.99565   1.97627   -1.000
 5089.00    1.99309   1.98174   -1.000
 5090.00    1.99310   1.98910   -1.000
 5091.00    2.02139   1.99997   -1.000
 5092.00    2.09442   2.01576   -1.000
 5093.00    2.13711   2.03205   -1.000
 5094.00    2.06664   2.03558   -1.000
 5095.00    2.01889   2.01233   -1.000
 5096.00    1.98043   1.96583   -1.000
 5097.00    1.93350   1.91745   -1.000
 5098.00    1.89253   1.88300   -1.000
 5099.00    1.88992   1.87231   -1.000
 5100.00    1.90737   1.88928   -1.000
 5101.00    1.94976   1.92696   -1.000
 5102.00    1.99250   1.95931   -1.000
 5103.00    2.00161   1.96939   -1.000
 5104.00    1.99297   1.96192   -1.000
 5105.00    1.96611   1.94476   -1.000
 5106.00    1.92996   1.92189   -1.000
 5107.00    1.91027   1.89838   -1.000
 5108.00    1.91059   1.88373   -1.000
 5109.00    1.90791   1.88422   -1.000
 5110.00    1.91370   1.89986   -1.000
 5111.00    1.94252   1.92726   -1.000
 5112.00    1.97691   1.95720   -1.000
 5113.00    2.00342   1.98144   -1.000
 5114.00    2.02063   2.00262   -1.000
 5115.00    2.03422   2.02278   -1.000
 5116.00    2.04571   2.04004   -1.000
 5117.00    2.05830   2.05033   -1.000
 5118.00    2.06884   2.05204   -1.000
 5119.00    2.05870   2.04295   -1.000
 5120.00    2.02817   2.02178   -1.000
 5121.00    2.00064   1.99322   -1.000
 5122.00    1.96692   1.96165   -1.000
 5123.00    1.92667   1.92804  200.131
 5124.00    1.89381   1.89693  198.568
 5125.00    1.89564   1.88147   -1.000
 5126.00    1.92019   1.88350   -1.000
 5127.00    1.92339   1.89168   -1.000
 5128.00    1.91965   1.89553   -1.000
 5129.00    1.91172   1.89850   -1.000
 5130.00    1.92335   1.90766   -1.000
 5131.00    1.96044   1.92661   -1.000
 5132.00    1.99829   1.95041   -1.000
 5133.00    2.01152   1.96969   -1.000
 5134.00    2.01248   1.98281   -1.000
 5135.00    2.02496   1.98974   -1.000
 5136.00    2.02733   1.98470   -1.000
 5137.00    1.98639   1.96301   -1.000
 5138.00    1.93703   1.93292   -1.000
 5139.00    1.90630   1.90874  195.624
 5140.00    1.93336   1.90227   -1.000
 5141.00    1.95019   1.90702   -1.000
 5142.00    1.92678   1.91247   -1.000
 5143.00    1.91994   1.91750   -1.000
 5144.00    1.93816   1.92561   -1.000
 5145.00    1.95459   1.93282   -1.000
 5146.00    1.94853   1.92738   -1.000
 5147.00    1.94136   1.91438   -1.000
 5148.00    1.94615   1.91722   -1.000
 5149.00    1.95907   1.93351   -1.000
 5150.00    1.95691   1.93645   -1.000
 5151.00    1.92219   1.92238  200.326
 5152.00    1.90803   1.90376  198.110
 5153.00    1.91930   1.89170   -1.000
 5154.00    1.92937   1.89605   -1.000
 5155.00    1.96029   1.92431   -1.000
 5156.00    2.02316   1.97129   -1.000
 5157.00    2.08532   2.01697   -1.000
 5158.00    2.10191   2.04868   -1.000
 5159.00    2.09294   2.06343   -1.000
 5160.00    2.09917   2.06565   -1.000
 5161.00    2.09297   2.05660   -1.000
 5162.00    2.06496   2.03463   -1.000
 5163.00    2.04200   2.00111   -1.000
 5164.00    1.99134   1.94954   -1.000
 5165.00    1.87689   1.85663   -1.000
 5166.00    1.71874   1.72361  247.456
 5167.00    1.60320   1.60186  237.940
 5168.00    1.59200   1.55457   -1.000
 5169.00    1.66752   1.59766   -1.000
 5170.00    1.70863   1.64109   -1.000
 5171.00    1.64049   1.61524   -1.000
 5172.00    1.54593   1.55336  235.456
 5173.00    1.55050   1.53867  211.999
 5174.00    1.68785   1.62897   -1.000
 5175.00    1.86755   1.77147   -1.000
 5176.00    1.97502   1.88659   -1.000
 5177.00    2.01958   1.94852   -1.000
 5178.00    2.04045   1.96749   -1.000
 5179.00    2.02727   1.95953   -1.000
 5180.00    1.97790   1.91346   -1.000
 5181.00    1.87363   1.81366   -1.000
 5182.00    1.71293   1.67684   -1.000
 5183.00    1.56183   1.55835  234.864
 5184.00    1.54769   1.53739  210.646
 5185.00    1.70196   1.62757   -1.000
 5186.00    1.89144   1.77356   -1.000
 5187.00    1.99501   1.89344   -1.000
 5188.00    2.02832   1.95018   -1.000
 5189.00    2.03150   1.97135   -1.000
 5190.00    2.00828   1.97107   -1.000
 5191.00    1.96937   1.94357   -1.000
 5192.00    1.92783   1.90556   -1.000
 5193.00    1.90721   1.88650   -1.000
 5194.00    1.93118   1.89556   -1.000
 5195.00    1.96926   1.92202   -1.000
 5196.00    1.99192   1.95004   -1.000
 5197.00    2.02370   1.98329   -1.000
 5198.00    2.06689   2.02351   -1.000
 5199.00    2.08954   2.05684   -1.000
 5200.00    2.09522   2.07287   -1.000
 5201.00    2.09443   2.06797   -1.000
 5202.00    2.07485   2.03826   -1.000
 5203.00    2.03838   1.98547   -1.000
 5204.00    1.99307   1.91791   -1.000
 5205.00    1.93820   1.85257   -1.000
 5206.00    1.88827   1.80914   -1.000
 5207.00    1.86956   1.79141   -1.000
 5208.00    1.87788   1.79018   -1.000
 5209.00    1.89634   1.80750   -1.000
 5210.00    1.94126   1.85473   -1.000
 5211.00    2.02086   1.93256   -1.000
 5212.00    2.10985   2.02202   -1.000
 5213.00    2.16313   2.08501   -1.000
 5214.00    2.14827   2.09989   -1.000
 5215.00    2.10872   2.07268   -1.000
 5216.00    2.07788   2.04081   -1.000
 5217.00    2.08817   2.03828   -1.000
 5218.00    2.12430   2.07189   -1.000
 5219.00    2.16756   2.12191   -1.000
 5220.00    2.18913   2.16273   -1.000
 5221.00    2.19665   2.18476   -1.000
 5222.00    2.19308   2.18077   -1.000
 5223.00    2.14085   2.14807  198.997
 5224.00    2.06444   2.08353  206.807
 5225.00    1.98506   1.99151  208.071
 5226.00    1.92240   1.90765   -1.000
 5227.00    1.93335   1.87965   -1.000
 5228.00    2.01095   1.92444   -1.000
 5229.00    2.09794   2.01253   -1.000
 5230.00    2.16724   2.08099   -1.000
 5231.00    2.18753   2.10175   -1.000
 5232.00    2.14489   2.08092   -1.000
 5233.00    2.09719   2.04816   -1.000
 5234.00    2.08665   2.03955   -1.000
 5235.00    2.11119   2.07162   -1.000
 5236.00    2.16632   2.12749   -1.000
 5237.00    2.21966   2.17840   -1.000
 5238.00    2.23573   2.20712   -1.000
 5239.00    2.23454   2.21347   -1.000
 5240.00    2.23224   2.20942   -1.000
 5241.00    2.22550   2.20184   -1.000
 5242.00    2.21940   2.19606   -1.000
 5243.00    2.22435   2.19999   -1.000
 5244.00    2.23480   2.21138   -1.000
 5245.00    2.21376   2.20821   -1.000
 5246.00    2.16513   2.17796  190.752
 5247.00    2.13062   2.13528  191.025
 5248.00    2.11384   2.10380   -1.000
 5249.00    2.10500   2.09349   -1.000
 5250.00    2.09803   2.09270   -1.000
 5251.00    2.09522   2.09597   -1.000
 5252.00    2.11825   2.10650   -1.000
 5253.00    2.14485   2.11855   -1.000
 5254.00    2.14321   2.12356   -1.000
 5255.00    2.15718   2.13246   -1.000
 5256.00    2.19869   2.16031   -1.000
 5257.00    2.25017   2.20185   -1.000
 5258.00    2.28306   2.23696   -1.000
 5259.00    2.27937   2.24175   -1.000
 5260.00    2.24143   2.20815   -1.000
 5261.00    2.16789   2.14129   -1.000
 5262.00    2.08026   2.05574   -1.000
 5263.00    2.00653   1.97022   -1.000
 5264.00    1.94753   1.90339   -1.000
 5265.00    1.92689   1.87109   -1.000
 5266.00    1.95345   1.87773   -1.000
 5267.00    1.98857   1.89564   -1.000
 5268.00    1.97461   1.88819   -1.000
 5269.00    1.91032   1.84822   -1.000
 5270.00    1.90363   1.82128   -1.000
 5271.00    1.98690   1.86420   -1.000
 5272.00    2.08477   1.95269   18.846
 5273.00    2.13647   2.02737   18.839
 5274.00    2.14500   2.06569   18.652
 5275.00    2.15697   2.08466   18.155
 5276.00    2.19030   2.11508   17.648
 5277.00    2.25472   2.16717   17.521
 5278.00    2.30346   2.22155   17.783
 5279.00    2.30637   2.24355   18.240
 5280.00    2.27674   2.21832   18.655
 5281.00    2.22256   2.16862   18.881
 5282.00    2.17810   2.12102   18.752
 5283.00    2.14335   2.09524   18.267
 5284.00    2.14208   2.10920   17.693
 5285.00    2.22195   2.16550   17.322
 5286.00    2.31397   2.23630   17.307
 5287.00    2.35516   2.28903   17.366
 5288.00    2.36022   2.30920   17.315
 5289.00    2.35334   2.31345   17.238
 5290.00    2.35986   2.31595   17.265
 5291.00    2.36789   2.31430   17.400
 5292.00    2.35925   2.30956   17.597
 5293.00    2.33884   2.30430   17.941
 5294.00    2.31431   2.28977   18.528
 5295.00    2.28040   2.25483   19.156
 5296.00    2.21697   2.19296   19.378
 5297.00    2.13421   2.12269   19.063
 5298.00    2.12106   2.08681   18.623
 5299.00    2.16368   2.09957   18.384
 5300.00    2.21016   2.13823   18.227
 5301.00    2.23762   2.17372   17.876
 5302.00    2.26308   2.19947   17.452
 5303.00    2.31428   2.23453   17.261
 5304.00    2.35679   2.27842   17.323
 5305.00    2.37966   2.30668   17.492
 5306.00    2.37077   2.30994   17.523
 5307.00    2.35567   2.29858   17.366
 5308.00    2.36278   2.29567   17.213
 5309.00    2.38356   2.31269   17.164
 5310.00    2.39903   2.33582   17.222
 5311.00    2.39772   2.34886   17.312
 5312.00    2.39795   2.34513   17.409
 5313.00    2.38854   2.32910   17.558
 5314.00    2.37500   2.30784   17.726
 5315.00    2.34628   2.28329   17.814
 5316.00    2.32151   2.26040   17.751
 5317.00    2.32773   2.25415   17.639
 5318.00    2.35189   2.26983   17.630
 5319.00    2.35373   2.29390   17.727
 5320.00    2.34356   2.30266   17.893
 5321.00    2.33909   2.28932   18.154
 5322.00    2.32124   2.25859   18.409
 5323.00    2.28682   2.21673   18.492
 5324.00    2.25651   2.17858   18.708
 5325.00    2.24776   2.14957   19.554
 5326.00    2.21908   2.11091   20.567
 5327.00    2.11958   2.03956   20.518
 5328.00    2.02951   1.96784   19.462
 5329.00    2.04837   1.96115   18.531
 5330.00    2.15510   2.03345   18.141
 5331.00    2.25793   2.13823   17.973
 5332.00    2.30783   2.20880   17.784
 5333.00    2.33829   2.24115   17.635
 5334.00    2.36584   2.26527   17.651
 5335.00    2.37757   2.28662   17.773
 5336.00    2.36493   2.29456   17.924
 5337.00    2.34846   2.28536   18.241
 5338.00    2.33190   2.25947   18.651
 5339.00    2.29133   2.21663   18.750
 5340.00    2.24471   2.17141   18.410
 5341.00    2.24776   2.15480   17.975
 5342.00    2.28888   2.18294   17.808
 5343.00    2.33091   2.23312   17.875
 5344.00    2.35805   2.26212   17.996
 5345.00    2.35156   2.25949   18.098
 5346.00    2.32691   2.24013   18.221
 5347.00    2.33416   2.22120   18.333
 5348.00    2.32793   2.21114   18.218
 5349.00    2.30277   2.21269   17.856
 5350.00    2.31900   2.23192   17.525
 5351.00    2.36626   2.26903   17.390
 5352.00    2.39855   2.30890   17.303
 5353.00    2.41722   2.33367   17.123
 5354.00    2.43319   2.34974   16.942
 5355.00    2.44476   2.37107   16.886
 5356.00    2.46209   2.39342   16.912
 5357.00    2.46735   2.40774   16.955
 5358.00    2.46674   2.40951   17.082
 5359.00    2.46495   2.40311   17.329
 5360.00    2.43630   2.38861   17.607
 5361.00    2.39856   2.36293   17.801
 5362.00    2.37925   2.33183   17.910
 5363.00    2.36760   2.30228   18.015
 5364.00    2.35318   2.27683   18.047
 5365.00    2.34017   2.26110   18.010
 5366.00    2.32938   2.25808   18.098
 5367.00    2.33500   2.25992   18.415
 5368.00    2.33418   2.24831   18.935
 5369.00    2.29271   2.20868   19.273
 5370.00    2.23328   2.14772   18.940
 5371.00    2.19879   2.10234   18.127
 5372.00    2.23659   2.10960   17.472
 5373.00    2.33871   2.17726   -1.000
 5374.00    2.42406   2.27041   -1.000
 5375.00    2.45877   2.33929   17.209
 5376.00    2.46600   2.36985   17.226
 5377.00    2.45802   2.37414   17.293
 5378.00    2.44513   2.37063   17.430
 5379.00    2.43366   2.36498   17.606
 5380.00    2.42450   2.35438   17.738
 5381.00    2.40698   2.33735   17.774
 5382.00    2.38905   2.31707   17.723
 5383.00    2.38400   2.30364   17.585
 5384.00    2.38919   2.30900   17.464
 5385.00    2.40295   2.33457   17.492
 5386.00    2.41723   2.36394   17.619
 5387.00    2.42970   2.37693   17.841
 5388.00    2.42880   2.36812   18.085
 5389.00    2.40233   2.34282   18.225
 5390.00    2.37547   2.31315   18.266
 5391.00    2.35034   2.28839   18.295
 5392.00    2.32865   2.27022   18.392
 5393.00    2.33248   2.25903   18.583
 5394.00    2.32864   2.25198   18.897
 5395.00    2.31659   2.23388   19.109
 5396.00    2.28663   2.20134   18.820
 5397.00    2.27148   2.17299   18.243
 5398.00    2.29995   2.17671   17.922
 5399.00    2.34482   2.22163   17.902
 5400.00    2.36887   2.27325   17.993
 5401.00    2.37485   2.30276   18.334
 5402.00    2.36161   2.30128   18.934
 5403.00    2.31978   2.26276   19.392
 5404.00    2.25900   2.19529   19.423
 5405.00    2.21458   2.13631   19.091
 5406.00    2.22565   2.11906   18.795
 5407.00    2.27558   2.14625   18.804
 5408.00    2.30192   2.18352   18.860
 5409.00    2.29125   2.19348   18.553
 5410.00    2.29071   2.19101   18.072
 5411.00    2.32938   2.21014   17.769
 5412.00    2.39363   2.25383   -1.000
 5413.00    2.43109   2.29802   -1.000
 5414.00    2.42444   2.31900   17.647
 5415.00    2.42161   2.33022   17.517
 5416.00    2.44172   2.35185   17.497
 5417.00    2.45799   2.37579   17.628
 5418.00    2.44468   2.38991   17.774
 5419.00    2.41319   2.38960   17.789
 5420.00    2.40171   2.38063   17.709
 5421.00    2.41817   2.37176   17.795
 5422.00    2.42556   2.36019   18.018
 5423.00    2.40828   2.34099   18.001
 5424.00    2.39360   2.32492   17.735
 5425.00    2.41313   2.33128   17.606
 5426.00    2.44452   2.36412   17.891
 5427.00    2.44925   2.38245   18.447
 5428.00    2.40304   2.35075   18.767
 5429.00    2.33407   2.28958   18.587
 5430.00    2.32138   2.24532   18.397
 5431.00    2.34642   2.24790   18.540
 5432.00    2.36003   2.26772   18.794
 5433.00    2.34643   2.26509   18.865
 5434.00    2.32584   2.24516   18.628
 5435.00    2.31793   2.23658   18.171
 5436.00    2.34614   2.26479   17.723
 5437.00    2.39904   2.32534   17.420
 5438.00    2.45448   2.38866   17.232
 5439.00    2.49755   2.43209   17.150
 5440.00    2.52097   2.45440   17.140
 5441.00    2.53667   2.46909   17.231
 5442.00    2.53518   2.47487   17.560
 5443.00    2.50571   2.46038   18.171
 5444.00    2.45528   2.41326   18.863
 5445.00    2.36758   2.33674   19.095
 5446.00    2.29104   2.26127   18.676
 5447.00    2.28441   2.22284   18.093
 5448.00    2.33856   2.24390   17.760
 5449.00    2.41602   2.30431   17.693
 5450.00    2.45650   2.36116   17.778
 5451.00    2.47296   2.39175   18.069
 5452.00    2.47203   2.38974   18.554
 5453.00    2.43877   2.35695   19.028
 5454.00    2.38120   2.30081   19.085
 5455.00    2.33038   2.24561   18.577
 5456.00    2.34065   2.23347   17.985
 5457.00    2.39916   2.28137   17.699
 5458.00    2.46318   2.35118   17.773
 5459.00    2.49915   2.39863   18.061
 5460.00    2.49118   2.40253   18.359
 5461.00    2.46797   2.37359   18.527
 5462.00    2.42803   2.33499   18.452
 5463.00    2.40447   2.31132   18.214
 5464.00    2.42544   2.31562   18.068
 5465.00    2.44728   2.34201   17.929
 5466.00    2.47038   2.37290   17.786
 5467.00    2.48428   2.39514   17.841
 5468.00    2.48243   2.40975   18.031
 5469.00    2.48311   2.41546   18.156
 5470.00    2.48815   2.40870   18.229
 5471.00    2.48805   2.39580   18.372
 5472.00    2.47918   2.38217   18.603
 5473.00    2.46134   2.36473   18.939
 5474.00    2.43037   2.33760   19.297
 5475.00    2.38012   2.29718   19.347
 5476.00    2.32985   2.25658   18.930
 5477.00    2.31973   2.24365   18.444
 5478.00    2.37545   2.27081   18.357
 5479.00    2.43999   2.31954   18.567
 5480.00    2.44309   2.34842   18.664
 5481.00    2.40779   2.34670   18.463
 5482.00    2.38535   2.34323   18.097
 5483.00    2.39306   2.36030   17.835
 5484.00    2.42769   2.39612   17.859
 5485.00    2.46509   2.42457   18.092
 5486.00    2.46078   2.42605   18.277
 5487.00    2.44299   2.40627   18.321
 5488.00    2.44108   2.38624   18.251
 5489.00    2.44764   2.38437   18.114
 5490.00    2.46279   2.39802   18.016
 5491.00    2.48224   2.41351   18.008
 5492.00    2.49210   2.42306   18.036
 5493.00    2.49368   2.42649   18.035
 5494.00    2.49808   2.42737   18.102
 5495.00    2.50586   2.42209   18.240
 5496.00    2.49401   2.40706   18.249
 5497.00    2.47864   2.38990   18.082
 5498.00    2.48291   2.38307   18.053
 5499.00    2.50564   2.38915   18.294
 5500.00    2.51757   2.38990   -1.000
 5501.00    2.49536   2.37101   18.379
 5502.00    2.46854   2.35287   18.278
 5503.00    2.46428   2.35419   18.395
 5504.00    2.47367   2.36136   18.626
 5505.00    2.45826   2.35654   18.619
 5506.00    2.43058   2.33723   18.361
 5507.00    2.43913   2.32752   18.173
 5508.00    2.47221   2.34606   18.211
 5509.00    2.48911   2.37510   18.465
 5510.00    2.48444   2.38888   18.811
 5511.00    2.46278   2.37267   19.043
 5512.00    2.43676   2.33708   18.997
 5513.00    2.42580   2.30782   18.693
 5514.00    2.44193   2.30491   -1.000
 5515.00    2.48142   2.32832   -1.000
 5516.00    2.52220   2.36438   -1.000
 5517.00    2.55166   2.40370   -1.000
 5518.00    2.57581   2.43934   -1.000
 5519.00    2.60091   2.46481   -1.000
 5520.00    2.59326   2.47561   17.680
 5521.00    2.57265   2.47559   17.727
 5522.00    2.57056   2.47353   17.795
 5523.00    2.56659   2.47313   17.978
 5524.00    2.55380   2.46497   18.319
 5525.00    2.53060   2.43858   18.779
 5526.00    2.49280   2.39277   19.068
 5527.00    2.43740   2.34040   18.877
 5528.00    2.39935   2.30920   18.394
 5529.00    2.43275   2.32135   18.036
 5530.00    2.49178   2.37391   17.958
 5531.00    2.52579   2.42687   18.078
 5532.00    2.52677   2.44981   18.211
 5533.00    2.51273   2.44475   18.215
 5534.00    2.50469   2.42863   18.098
 5535.00    2.50791   2.41854   18.001
 5536.00    2.52496   2.42300   17.944
 5537.00    2.55062   2.43747   17.811
 5538.00    2.57547   2.44940   17.650
 5539.00    2.58523   2.45944   17.591
 5540.00    2.59645   2.47462   17.699
 5541.00    2.60636   2.48598   17.890
 5542.00    2.58951   2.48088   17.998
 5543.00    2.56372   2.46469   17.985
 5544.00    2.54689   2.45241   17.936
 5545.00    2.55075   2.45402   17.857
 5546.00    2.57871   2.46397   17.705
 5547.00    2.60610   2.47646   17.541
 5548.00    2.63198   2.49523   -1.000
 5549.00    2.65594   2.51537   -1.000
 5550.00    2.66058   2.52557   -1.000
 5551.00    2.64774   2.52484   17.805
 5552.00    2.64110   2.51449   -1.000
 5553.00    2.63088   2.49780   -1.000
 5554.00    2.60118   2.48393   17.919
 5555.00    2.60316   2.48090   17.875
 5556.00    2.62429   2.48578   -1.000
 5557.00    2.61872   2.49049   17.830
 5558.00    2.60783   2.49551   17.842
 5559.00    2.61410   2.50212   17.913
 5560.00    2.62518   2.50334   18.057
 5561.00    2.62202   2.49223   -1.000
 5562.00    2.60432   2.47289   -1.000
 5563.00    2.57746   2.45693   18.338
 5564.00    2.55256   2.44791   18.365
 5565.00    2.54728   2.44144   18.352
 5566.00    2.55728   2.43538   18.310
 5567.00    2.55680   2.43094   -1.000
 5568.00    2.54575   2.42841   18.344
 5569.00    2.54433   2.42701   18.335
 5570.00    2.54276   2.42595   18.366
 5571.00    2.52764   2.42283   18.351
 5572.00    2.47883   2.41613   18.200
 5573.00    2.29180   2.41212   18.022
 5574.00    2.16485   2.42210   -1.000
 5575.00    2.27131   2.43985   17.524
 5576.00    2.52985   2.45300   17.551
 5577.00    2.95009   2.46630   -1.000
 5578.00    3.15313   2.48376   -1.000
 5579.00    2.94129   2.49772   -1.000
 5580.00    2.70798   2.50163   -1.000
 5581.00    2.62997   2.49840   -1.000
 5582.00    2.61609   2.49365   18.121
 5583.00    2.62345   2.48902   -1.000
 5584.00    2.61589   2.48004   -1.000
 5585.00    2.56333   2.45207   19.306
 5586.00    2.49218   2.39409   19.580
 5587.00    2.44271   2.32764   19.503
 5588.00    2.42729   2.28671   -1.000
 5589.00    2.44852   2.28430   -1.000
 5590.00    2.48343   2.31580   -1.000
 5591.00    2.50359   2.36054   -1.000
 5592.00    2.52223   2.39491   -1.000
 5593.00    2.53201   2.40762   -1.000
 5594.00    2.53565   2.41294   18.312
 5595.00    2.56056   2.42699   -1.000
 5596.00    2.58686   2.44646   -1.000
 5597.00    2.58195   2.44991   -1.000
 5598.00    2.55586   2.42655   -1.000
 5599.00    2.53496   2.39932   -1.000
 5600.00    2.52488   2.38313   -1.000
 5601.00    2.51444   2.36857   -1.000
 5602.00    2.49384   2.36207   -1.000
 5603.00    2.51054   2.38314   18.050
 5604.00    2.57342   2.43365   -1.000
 5605.00    2.63339   2.49637   -1.000
 5606.00    2.67981   2.54649   -1.000
 5607.00    2.69439   2.57305   17.688
 5608.00    2.68888   2.58180   17.695
 5609.00    2.69159   2.58243   17.653
 5610.00    2.70477   2.58387   17.673
 5611.00    2.71272   2.58758   -1.000
 5612.00    2.69454   2.58099   18.450
 5613.00    2.64756   2.54460   18.990
 5614.00    2.58581   2.47686   19.083
 5615.00    2.52093   2.40395   18.724
 5616.00    2.51071   2.37172   -1.000
 5617.00    2.56814   2.39903   -1.000
 5618.00    2.61035   2.44746   -1.000
 5619.00    2.62803   2.48526   -1.000
 5620.00    2.64435   2.50815   -1.000
 5621.00    2.65707   2.52165   -1.000
 5622.00    2.65324   2.52293   -1.000
 5623.00    2.62256   2.50345   18.818
 5624.00    2.57825   2.47210   18.579
 5625.00    2.55888   2.45559   18.279
 5626.00    2.58528   2.46746   18.048
 5627.00    2.64008   2.49941   -1.000
 5628.00    2.67182   2.53194   -1.000
 5629.00    2.67595   2.55398   17.744
 5630.00    2.69001   2.56773   17.722
 5631.00    2.70204   2.57349   17.814
 5632.00    2.70390   2.56952   -1.000
 5633.00    2.69749   2.56018   -1.000
 5634.00    2.67844   2.54867   -1.000
 5635.00    2.65750   2.53410   18.327
 5636.00    2.64017   2.51983   18.381
 5637.00    2.62199   2.50954   18.363
 5638.00    2.61611   2.50644   18.390
 5639.00    2.62366   2.50997   18.427
 5640.00    2.61897   2.51072   18.386
 5641.00    2.62101   2.50617   18.301
 5642.00    2.62806   2.50668   18.248
 5643.00    2.62915   2.51388   18.165
 5644.00    2.63827   2.52216   18.075
 5645.00    2.64813   2.53135   18.032
 5646.00    2.65840   2.54091   17.996
 5647.00    2.66917   2.54641   18.011
 5648.00    2.68577   2.54604   -1.000
 5649.00    2.69016   2.54253   -1.000
 5650.00    2.69392   2.54338   -1.000
 5651.00    2.70841   2.55218   -1.000
 5652.00    2.72082   2.56057   -1.000
 5653.00    2.70818   2.56014   -1.000
 5654.00    2.68163   2.54916   -1.000
 5655.00    2.66088   2.53113   -1.000
 5656.00    2.61573   2.50406   -1.000
 5657.00    2.56063   2.46313   19.317
 5658.00    2.51401   2.42480   18.922
 5659.00    2.50451   2.41684   18.700
 5660.00    2.55405   2.43763   18.707
 5661.00    2.59749   2.46249   -1.000
 5662.00    2.60345   2.47699   -1.000
 5663.00    2.60498   2.48747   18.193
 5664.00    2.63224   2.50921   18.230
 5665.00    2.66162   2.53607   -1.000
 5666.00    2.65586   2.54762   18.402
 5667.00    2.63709   2.54284   18.379
 5668.00    2.62632   2.53522   18.286
 5669.00    2.63003   2.53479   18.140
 5670.00    2.65489   2.54310   17.966
 5671.00    2.68074   2.55667   17.788
 5672.00    2.70070   2.57228   -1.000
 5673.00    2.71788   2.58643   -1.000
 5674.00    2.73091   2.59529   -1.000
 5675.00    2.74320   2.59707   -1.000
 5676.00    2.74179   2.59799   -1.000
 5677.00    2.73763   2.60165   -1.000
 5678.00    2.74035   2.60364   -1.000
 5679.00    2.73807   2.59732   -1.000
 5680.00    2.72921   2.58079   -1.000
 5681.00    2.70751   2.55467   -1.000
 5682.00    2.67431   2.52525   -1.000
 5683.00    2.65718   2.50600   -1.000
 5684.00    2.66171   2.50721   -1.000
 5685.00    2.66522   2.52372   -1.000
 5686.00    2.65906   2.53270   -1.000
 5687.00    2.65294   2.52384   -1.000
 5688.00    2.65467   2.51122   -1.000
 5689.00    2.67295   2.51290   -1.000
 5690.00    2.70152   2.53618   -1.000
 5691.00    2.72224   2.56953   -1.000
 5692.00    2.74946   2.59670   -1.000
 5693.00    2.76277   2.61132   -1.000
 5694.00    2.74363   2.61653   -1.000
 5695.00    2.73497   2.61665   -1.000
 5696.00    2.72989   2.61223   -1.000
 5697.00    2.71486   2.60337   18.333
 5698.00    2.69662   2.58757   18.513
 5699.00    2.67027   2.56717   18.647
 5700.00    2.64400   2.54843   18.591
 5701.00    2.60783   2.53571   18.406
 5702.00    2.58888   2.53388   18.299
 5703.00    2.60594   2.54232   18.364
 5704.00    2.62966   2.55318   18.578
 5705.00    2.64327   2.55303   18.900
 5706.00    2.63301   2.53735   19.223
 5707.00    2.59006   2.51025   19.406
 5708.00    2.53989   2.47677   19.413
 5709.00    2.51573   2.44745   19.266
 5710.00    2.51846   2.43708   18.939
 5711.00    2.54435   2.44884   18.490
 5712.00    2.60334   2.48065   -1.000
 5713.00    2.66487   2.52762   -1.000
 5714.00    2.69487   2.57315   -1.000
 5715.00    2.71118   2.60201   17.907
 5716.00    2.72892   2.61477   17.830
 5717.00    2.74942   2.62213   -1.000
 5718.00    2.77211   2.62952   -1.000
 5719.00    2.78893   2.63978   -1.000
 5720.00    2.80306   2.65413   -1.000
 5721.00    2.81524   2.66941   -1.000
 5722.00    2.82127   2.68037   -1.000
 5723.00    2.82363   2.68623   -1.000
 5724.00    2.81190   2.68678   -1.000
 5725.00    2.78619   2.67717   17.985
 5726.00    2.75786   2.65690   17.979
 5727.00    2.73407   2.63931   17.862
 5728.00    2.73748   2.63530   17.850
 5729.00    2.76498   2.64301   -1.000
 5730.00    2.77943   2.65032   -1.000
 5731.00    2.77779   2.64871   -1.000
 5732.00    2.78493   2.64758   -1.000
 5733.00    2.79776   2.65765   -1.000
 5734.00    2.80568   2.67590   -1.000
 5735.00    2.80363   2.68902   17.683
 5736.00    2.79419   2.68945   17.714
 5737.00    2.79209   2.68301   17.740
 5738.00    2.79153   2.67792   17.773
 5739.00    2.78742   2.67810   17.807
 5740.00    2.77894   2.68040   17.797
 5741.00    2.77754   2.67954   17.766
 5742.00    2.78414   2.67622   17.681
 5743.00    2.79194   2.67695   17.564
 5744.00    2.79289   2.68483   17.590
 5745.00    2.79750   2.69409   17.746
 5746.00    2.80525   2.69325   17.860
 5747.00    2.78407   2.68284   17.814
 5748.00    2.77678   2.67632   17.730
 5749.00    2.79928   2.68256   -1.000
 5750.00    2.81544   2.68988   -1.000
 5751.00    2.81131   2.68021   -1.000
 5752.00    2.77718   2.65314   -1.000
 5753.00    2.72197   2.62534   18.106
 5754.00    2.71930   2.61791   17.797
 5755.00    2.77207   2.63969   -1.000
 5756.00    2.81669   2.67719   -1.000
 5757.00    2.84166   2.70983   -1.000
 5758.00    2.84689   2.72280   -1.000
 5759.00    2.82822   2.71496   -1.000
 5760.00    2.78530   2.69178   18.273
 5761.00    2.74385   2.66035   18.176
 5762.00    2.72966   2.63337   17.884
 5763.00    2.73946   2.63010   17.621
 5764.00    2.76796   2.65506   17.512
 5765.00    2.80570   2.69359   17.488
 5766.00    2.83319   2.72265   17.464
 5767.00    2.83601   2.73397   17.474
 5768.00    2.82389   2.73449   17.527
 5769.00    2.81055   2.73197   17.611
 5770.00    2.79699   2.72847   17.718
 5771.00    2.77937   2.72117   17.788
 5772.00    2.76624   2.70850   17.815
 5773.00    2.74558   2.69550   17.799
 5774.00    2.71849   2.68833   17.726
 5775.00    2.70005   2.68828   17.679
 5776.00    2.65423   2.69527   17.712
 5777.00    2.57670   2.70135   17.896
 5778.00    2.52035   2.69303   18.259
 5779.00    2.50861   2.66661   18.571
 5780.00    2.53128   2.63001   18.631
 5781.00    2.57939   2.59755   18.560
 5782.00    2.62582   2.58305   18.491
 5783.00    2.64882   2.58642   18.424
 5784.00    2.65922   2.59595   18.270
 5785.00    2.67940   2.60353   18.034
 5786.00    2.71075   2.61746   17.856
 5787.00    2.75075   2.64442   17.822
 5788.00    2.78612   2.67050   17.888
 5789.00    2.78931   2.68093   17.904
 5790.00    2.77544   2.67615   17.795
 5791.00    2.77093   2.67070   17.658
 5792.00    2.76879   2.68045   17.548
 5793.00    2.75630   2.70422   17.501
 5794.00    2.74551   2.72974   17.567
 5795.00    2.75804   2.74580   17.682
 5796.00    2.78045   2.74609   17.672
 5797.00    2.79279   2.73328   17.489
 5798.00    2.79972   2.72417   17.248
 5799.00    2.82400   2.73222   17.134
 5800.00    2.87017   2.75164   -1.000
 5801.00    2.89311   2.76907   -1.000
 5802.00    2.88621   2.77441   -1.000
 5803.00    2.86224   2.76555   17.607
 5804.00    2.84872   2.74867   17.607
 5805.00    2.83600   2.73577   17.545
 5806.00    2.82825   2.73413   17.487
 5807.00    2.84496   2.74062   17.467
 5808.00    2.85583   2.74791   17.459
 5809.00    2.86561   2.75314   -1.000
 5810.00    2.88721   2.75786   -1.000
 5811.00    2.89033   2.76044   -1.000
 5812.00    2.88605   2.75862   -1.000
 5813.00    2.89580   2.75244   -1.000
 5814.00    2.89177   2.74107   -1.000
 5815.00    2.86914   2.72503   -1.000
 5816.00    2.86227   2.71517   -1.000
 5817.00    2.88593   2.72457   -1.000
 5818.00    2.90790   2.74783   -1.000
 5819.00    2.91606   2.76677   -1.000
 5820.00    2.92173   2.77402   -1.000
 5821.00    2.91517   2.77360   -1.000
 5822.00    2.90935   2.77134   -1.000
 5823.00    2.91965   2.76967   -1.000
 5824.00    2.92863   2.76857   -1.000
 5825.00    2.91797   2.76941   -1.000
 5826.00    2.91946   2.77411   -1.000
 5827.00    2.94269   2.78074   -1.000
 5828.00    2.94166   2.78533   -1.000
 5829.00    2.93245   2.78625   -1.000
 5830.00    2.94039   2.78621   -1.000
 5831.00    2.93259   2.78637   -1.000
 5832.00    2.91994   2.78536   -1.000
 5833.00    2.92779   2.78080   -1.000
 5834.00    2.93231   2.77389   -1.000
 5835.00    2.93296   2.77098   -1.000
 5836.00    2.93484   2.77574   -1.000
 5837.00    2.93456   2.78256   -1.000
 5838.00    2.92693   2.78448   -1.000
 5839.00    2.92091   2.78482   -1.000
 5840.00    2.92887   2.78911   -1.000
 5841.00    2.92802   2.79613   -1.000
 5842.00    2.92686   2.80005   -1.000
 5843.00    2.93138   2.79848   -1.000
 5844.00    2.93573   2.79289   -1.000
 5845.00    2.92732   2.78312   -1.000
 5846.00    2.90075   2.77010   -1.000
 5847.00    2.87930   2.75929   -1.000
 5848.00    2.86693   2.75585   17.517
 5849.00    2.87486   2.75581   -1.000
 5850.00    2.87580   2.75050   -1.000
 5851.00    2.86923   2.73563   -1.000
 5852.00    2.85148   2.71505   -1.000
 5853.00    2.82456   2.69873   -1.000
 5854.00    2.81401   2.68934   -1.000
 5855.00    2.81953   2.67930   -1.000
 5856.00    2.80316   2.65362   -1.000
 5857.00    2.78335   2.61677   -1.000
 5858.00    2.79263   2.60248   -1.000
 5859.00    2.83665   2.62460   -1.000
 5860.00    2.85546   2.66272   -1.000
 5861.00    2.85503   2.69323   -1.000
 5862.00    2.85855   2.70847   -1.000
 5863.00    2.87080   2.71773   -1.000
 5864.00    2.88526   2.72476   -1.000
 5865.00    2.88338   2.72097   -1.000
 5866.00    2.86203   2.70821   -1.000
 5867.00    2.85170   2.70032   -1.000
 5868.00    2.87986   2.70907   -1.000
 5869.00    2.90961   2.73296   -1.000
 5870.00    2.92511   2.75661   -1.000
 5871.00    2.93729   2.76738   -1.000
 5872.00    2.94373   2.76371   -1.000
 5873.00    2.93229   2.75381   -1.000
 5874.00    2.91737   2.74530   -1.000
 5875.00    2.92341   2.74023   -1.000
 5876.00    2.92687   2.73615   -1.000
 5877.00    2.91241   2.73060   -1.000
 5878.00    2.88385   2.72192   -1.000
 5879.00    2.86243   2.71040   -1.000
 5880.00    2.83610   2.69938   -1.000
 5881.00    2.77646   2.69041   17.876
 5882.00    2.69633   2.68015   17.917
 5883.00    2.61625   2.66563   17.960
 5884.00    2.52140   2.64926   18.127
 5885.00    2.35027   2.63308   -1.000
 5886.00    2.05533   2.59958   -1.000
 5887.00    1.74589   2.51021   -1.000
 5888.00    1.63138   2.35313   -1.000
 5889.00    1.75582   2.17910   -1.000
 5890.00    1.97950   2.08662   20.594
 5891.00    2.10544   2.12315   20.038
 5892.00    2.05664   2.21485   20.080
 5893.00    1.94839   2.27182   -1.000
 5894.00    1.94083   2.25562   -1.000
 5895.00    2.10082   2.19915   20.282
 5896.00    2.33835   2.17198   -1.000
 5897.00    2.53915   2.22288   -1.000
 5898.00    2.68525   2.33236   -1.000
 5899.00    2.76875   2.43744   -1.000
 5900.00    2.80439   2.51979   -1.000
 5901.00    2.83703   2.58734   -1.000
 5902.00    2.86234   2.63738   -1.000
 5903.00    2.86960   2.66673   -1.000
 5904.00    2.87027   2.68027   -1.000
 5905.00    2.87111   2.68696   -1.000
 5906.00    2.87655   2.69397   -1.000
 5907.00    2.88286   2.70225   -1.000
 5908.00    2.88491   2.71093   -1.000
 5909.00    2.88513   2.71949   -1.000
 5910.00    2.88917   2.72631   -1.000
 5911.00    2.89357   2.72731   -1.000
 5912.00    2.87025   2.71713   -1.000
 5913.00    2.84041   2.69497   -1.000
 5914.00    2.82123   2.67302   -1.000
 5915.00    2.81987   2.66346   -1.000
 5916.00    2.82181   2.66857   -1.000
 5917.00    2.82793   2.68553   -1.000
 5918.00    2.86220   2.70816   -1.000
 5919.00    2.89074   2.72648   -1.000
 5920.00    2.87650   2.73426   -1.000
 5921.00    2.85053   2.73404   18.044
 5922.00    2.84717   2.73069   17.977
 5923.00    2.86454   2.73019   -1.000
 5924.00    2.89833   2.73562   -1.000
 5925.00    2.92789   2.74639   -1.000
 5926.00    2.92656   2.75615   -1.000
 5927.00    2.90331   2.75528   -1.000
 5928.00    2.88246   2.74008   -1.000
 5929.00    2.85990   2.72063   -1.000
 5930.00    2.85364   2.71243   -1.000
 5931.00    2.88866   2.72190   -1.000
 5932.00    2.90505   2.73760   -1.000
 5933.00    2.89756   2.74182   -1.000
 5934.00    2.88715   2.73829   -1.000
 5935.00    2.87258   2.74163   -1.000
 5936.00    2.90032   2.75441   -1.000
 5937.00    2.93028   2.76865   -1.000
 5938.00    2.92259   2.77469   -1.000
 5939.00    2.91581   2.76870   -1.000
 5940.00    2.90938   2.75444   -1.000
 5941.00    2.89288   2.74106   -1.000
 5942.00    2.88793   2.73817   -1.000
 5943.00    2.89599   2.74672   -1.000
 5944.00    2.90560   2.76030   -1.000
 5945.00    2.91292   2.76987   -1.000
 5946.00    2.90879   2.76992   -1.000
 5947.00    2.88846   2.75942   -1.000
 5948.00    2.86993   2.74573   -1.000
 5949.00    2.87680   2.73975   -1.000
 5950.00    2.88271   2.74337   -1.000
 5951.00    2.87506   2.74660   -1.000
 5952.00    2.87916   2.74075   -1.000
 5953.00    2.89057   2.73563   -1.000
 5954.00    2.89910   2.73976   -1.000
 5955.00    2.90556   2.74185   -1.000
 5956.00    2.88488   2.73590   -1.000
 5957.00    2.87249   2.73203   -1.000
 5958.00    2.89485   2.73918   -1.000
 5959.00    2.92250   2.75805   -1.000
 5960.00    2.94497   2.77971   -1.000
 5961.00    2.95438   2.79489   -1.000
 5962.00    2.95002   2.80172   -1.000
 5963.00    2.95590   2.80130   -1.000
 5964.00    2.94738   2.79440   -1.000
 5965.00    2.91611   2.78486   -1.000
 5966.00    2.89184   2.77921   17.917
 5967.00    2.90455   2.78174   -1.000
 5968.00    2.92244   2.78990   -1.000
 5969.00    2.94226   2.79974   -1.000
 5970.00    2.95713   2.81040   -1.000
 5971.00    2.93924   2.81797   -1.000
 5972.00    2.93732   2.81941   -1.000
 5973.00    2.94994   2.81429   -1.000
 5974.00    2.93849   2.80086   -1.000
 5975.00    2.90487   2.77967   -1.000
 5976.00    2.89675   2.75827   -1.000
 5977.00    2.90283   2.74805   -1.000
 5978.00    2.90691   2.75501   -1.000
 5979.00    2.92121   2.77420   -1.000
 5980.00    2.92913   2.79346   -1.000
 5981.00    2.93390   2.79935   -1.000
 5982.00    2.91758   2.78609   -1.000
 5983.00    2.88277   2.76054   -1.000
 5984.00    2.86905   2.74085   -1.000
 5985.00    2.88206   2.74086   -1.000
 5986.00    2.89176   2.75724   -1.000
 5987.00    2.91364   2.77674   -1.000
 5988.00    2.92797   2.79150   -1.000
 5989.00    2.93909   2.80093   -1.000
 5990.00    2.94821   2.80518   -1.000
 5991.00    2.93906   2.80795   -1.000
 5992.00    2.93310   2.81770   -1.000
 5993.00    2.93906   2.83653   17.843
 5994.00    2.95396   2.84962   -1.000
 5995.00    2.95570   2.84589   -1.000
 5996.00    2.94376   2.83087   -1.000
 5997.00    2.92937   2.81611   -1.000
 5998.00    2.92821   2.81042   -1.000
 5999.00    2.93601   2.81251   -1.000
 6000.00    2.93314   2.81518   -1.000
 6001.00    2.92242   2.81136   -1.000
 6002.00    2.90758   2.80117   18.234
 6003.00    2.89145   2.79380   18.226
 6004.00    2.88403   2.79601   18.326
 6005.00    2.87884   2.79827   18.502
 6006.00    2.86416   2.78508   18.557
 6007.00    2.83894   2.76144   18.395
 6008.00    2.82838   2.74990   18.190
 6009.00    2.86197   2.76360   18.143
 6010.00    2.90536   2.79219   -1.000
 6011.00    2.92424   2.81011   -1.000
 6012.00    2.92822   2.80867   -1.000
 6013.00    2.91071   2.79982   -1.000
 6014.00    2.90197   2.79302   -1.000
 6015.00    2.91945   2.79080   -1.000
 6016.00    2.91582   2.78907   -1.000
 6017.00    2.90431   2.78655   -1.000
 6018.00    2.90731   2.78322   -1.000
 6019.00    2.90129   2.77575   -1.000
 6020.00    2.87913   2.76559   -1.000
 6021.00    2.88083   2.76232   -1.000
 6022.00    2.88742   2.76917   -1.000
 6023.00    2.88680   2.77793   -1.000
 6024.00    2.89898   2.78895   -1.000
 6025.00    2.92830   2.80908   -1.000
 6026.00    2.96682   2.83156   -1.000
 6027.00    2.97133   2.84712   -1.000
 6028.00    2.97530   2.86017   -1.000
 6029.00    2.99725   2.87297   -1.000
 6030.00    2.99531   2.88060   -1.000
 6031.00    2.98580   2.88365   -1.000
 6032.00    2.97502   2.88779   17.795
 6033.00    2.97755   2.89504   17.779
 6034.00    2.98377   2.90197   17.754
 6035.00    2.98398   2.90399   17.757
 6036.00    2.97937   2.90112   17.839
 6037.00    2.97863   2.89641   17.897
 6038.00    2.99974   2.89014   -1.000
 6039.00    2.98211   2.88217   -1.000
 6040.00    2.95338   2.87529   17.901
 6041.00    2.95887   2.87302   17.830
 6042.00    2.99288   2.87661   -1.000
 6043.00    3.00963   2.88567   -1.000
 6044.00    3.01772   2.89817   -1.000
 6045.00    3.01405   2.90905   -1.000
 6046.00    3.00645   2.91618   17.659
 6047.00    3.02531   2.92285   -1.000
 6048.00    3.03852   2.92874   -1.000
 6049.00    3.03797   2.93143   -1.000
 6050.00    3.01981   2.93146   17.808
 6051.00    3.01760   2.92982   17.871
 6052.00    3.02448   2.92405   -1.000
 6053.00    3.01174   2.91195   -1.000
 6054.00    2.98969   2.89612   18.089
 6055.00    2.97991   2.88147   -1.000
 6056.00    2.98863   2.87466   -1.000
 6057.00    2.98986   2.87922   -1.000
 6058.00    2.98952   2.89187   17.892
 6059.00    3.02017   2.90542   -1.000
 6060.00    3.02603   2.91508   -1.000
 6061.00    3.01577   2.91619   -1.000
 6062.00    3.02935   2.90353   -1.000
 6063.00    2.46145   2.87598   -1.000
 6064.00    1.63724   2.84133   -1.000
 6065.00    2.03602   2.82083   -1.000
 6066.00    2.80597   2.83306   18.962
 6067.00    2.93290   2.86782   17.929
 6068.00    3.04394   2.90319   -1.000
 6069.00    1.79576   2.92877   -1.000
 6070.00    1.49474   2.94269   -1.000
 6071.00    2.69399   2.94838   -1.000
 6072.00    3.10844   2.95076   -1.000
 6073.00    3.04282   2.95319   17.789
 6074.00    3.04986   2.95445   -1.000
 6075.00    3.04115   2.95037   -1.000
 6076.00    3.03218   2.93854   -1.000
 6077.00    3.01900   2.91995   -1.000
 6078.00    2.99552   2.90106   -1.000
 6079.00    2.99020   2.88975   -1.000
 6080.00    2.99967   2.88427   -1.000
 6081.00    2.99611   2.87763   -1.000
 6082.00    2.97096   2.87171   -1.000
 6083.00    2.95663   2.87025   18.302
 6084.00    2.96626   2.87180   -1.000
 6085.00    2.96756   2.87730   18.189
 6086.00    2.97152   2.88834   18.193
 6087.00    2.99072   2.89960   -1.000
 6088.00    2.98988   2.90238   18.378
 6089.00    2.97068   2.89577   18.391
 6090.00    2.95197   2.88580   18.299
 6091.00    2.94038   2.88017   18.196
 6092.00    2.96074   2.88387   18.098
 6093.00    2.99746   2.89578   -1.000
 6094.00    3.01039   2.91078   -1.000
 6095.00    3.01368   2.92347   18.035
 6096.00    3.02889   2.93259   -1.000
 6097.00    3.02804   2.93850   18.059
 6098.00    3.02604   2.94095   18.216
 6099.00    3.01637   2.93220   18.609
 6100.00    2.98538   2.89914   -1.000
 6101.00    2.92724   2.84079   18.939
 6102.00    2.86609   2.78185   18.620
 6103.00    2.85818   2.76314   18.312
 6104.00    2.91243   2.79491   -1.000
 6105.00    2.95529   2.84456   -1.000
 6106.00    2.98337   2.88402   -1.000
 6107.00    2.98018   2.90787   18.297
 6108.00    2.97754   2.92325   18.264
 6109.00    2.99411   2.93500   18.193
 6110.00    2.99744   2.93967   18.167
 6111.00    2.99427   2.93935   18.099
 6112.00    2.99475   2.94223   18.037
 6113.00    3.00117   2.95051   18.079
 6114.00    3.00086   2.95928   18.189
 6115.00    2.99364   2.96114   18.242
 6116.00    2.99282   2.95663   18.309
 6117.00    2.99472   2.95138   18.531
 6118.00    2.98941   2.93952   18.786
 6119.00    2.96034   2.90986   18.981
 6120.00    2.92996   2.85854   19.039
 6121.00    2.88590   2.80011   18.810
 6122.00    2.87670   2.76669   -1.000
 6123.00    2.90439   2.77357   -1.000
 6124.00    2.95082   2.80873   -1.000
 6125.00    2.97983   2.85034   -1.000
 6126.00    2.96175   2.88019   18.534
 6127.00    2.94101   2.89553   18.412
 6128.00    2.95497   2.90578   18.240
 6129.00    2.96372   2.92298   18.166
 6130.00    2.97927   2.94619   18.187
 6131.00    3.00352   2.96610   18.324
 6132.00    2.99495   2.97555   18.680
 6133.00    2.96574   2.96550   19.209
 6134.00    2.91547   2.92319   19.721
 6135.00    2.85174   2.84926   19.893
 6136.00    2.78075   2.77294   19.523
 6137.00    2.77256   2.73967   18.968
 6138.00    2.82449   2.76260   18.671
 6139.00    2.89278   2.80418   -1.000
 6140.00    2.92155   2.83476   -1.000
 6141.00    2.91454   2.85762   18.559
 6142.00    2.91900   2.88642   18.336
 6143.00    2.94857   2.92201   18.258
 6144.00    2.97013   2.94922   18.320
 6145.00    2.99736   2.95894   18.432
 6146.00    2.99965   2.95499   18.562
 6147.00    2.98751   2.94280   18.678
 6148.00    2.96349   2.92706   18.707
 6149.00    2.93769   2.91125   18.652
 6150.00    2.93403   2.90046   18.535
 6151.00    2.94676   2.90333   18.482
 6152.00    2.95284   2.91629   18.597
 6153.00    2.94844   2.92126   18.716
 6154.00    2.93630   2.91148   18.747
 6155.00    2.92089   2.89825   18.806
 6156.00    2.90947   2.89104   18.978
 6157.00    2.90720   2.88656   19.303
 6158.00    2.88605   2.87107   19.840
 6159.00    2.83564   2.82580   20.432
 6160.00    2.77039   2.74445   20.730
 6161.00    2.68569   2.65059   20.536
 6162.00    2.63594   2.58721   20.016
 6163.00    2.66125   2.58364   19.639
 6164.00    2.71305   2.62665   19.510
 6165.00    2.75095   2.68314   19.534
 6166.00    2.77546   2.72770   19.742
 6167.00    2.77730   2.74150   19.964
 6168.00    2.75502   2.72158   19.902
 6169.00    2.71982   2.69829   19.561
 6170.00    2.71894   2.70791   19.254
 6171.00    2.76362   2.74606   19.206
 6172.00    2.80547   2.78844   19.232
 6173.00    2.82927   2.82160   19.198
 6174.00    2.82566   2.84272   19.157
 6175.00    2.81069   2.85297   19.110
 6176.00    2.81742   2.85883   19.025
 6177.00    2.84290   2.86741   18.948
 6178.00    2.86022   2.87709   18.887
 6179.00    2.86403   2.88475   18.806
 6180.00    2.87577   2.89372   18.747
 6181.00    2.89773   2.90691   18.766
 6182.00    2.90875   2.91867   18.828
 6183.00    2.90070   2.92118   18.959
 6184.00    2.88254   2.91284   19.157
 6185.00    2.88005   2.89648   19.360
 6186.00    2.87075   2.87576   19.547
 6187.00    2.83956   2.85617   19.699
 6188.00    2.81467   2.83814   19.928
 6189.00    2.79374   2.81214   20.093
 6190.00    2.77471   2.77522   19.946
 6191.00    2.74862   2.75116   19.501
 6192.00    2.75185   2.76461   19.135
 6193.00    2.80342   2.80278   18.979
 6194.00    2.84379   2.84091   18.936
 6195.00    2.87091   2.87066   19.026
 6196.00    2.88963   2.88937   19.231
 6197.00    2.88936   2.89377   19.406
 6198.00    2.85055   2.88319   19.427
 6199.00    2.79658   2.86608   19.265
 6200.00    2.76387   2.85889   19.027
 6201.00    2.78043   2.86864   18.929
 6202.00    2.81781   2.88815   18.926
 6203.00    2.86782   2.90890   18.902
 6204.00    2.89381   2.92505   18.893
 6205.00    2.90179   2.93506   18.951
 6206.00    2.91289   2.94114   18.969
 6207.00    2.90835   2.94577   19.030
 6208.00    2.90116   2.94685   19.188
 6209.00    2.90281   2.93967   19.347
 6210.00    2.89369   2.92169   19.526
 6211.00    2.87265   2.89241   19.802
 6212.00    2.85344   2.85466   20.030
 6213.00    2.81341   2.81942   20.112
 6214.00    2.77806   2.79844   19.915
 6215.00    2.77320   2.79345   19.770
 6216.00    2.80782   2.79728   19.873
 6217.00    2.82575   2.79926   19.859
 6218.00    2.81549   2.79451   19.718
 6219.00    2.82255   2.79013   19.778
 6220.00    2.77260   2.79630   20.944
 6221.00    2.48152   2.81259   -1.000
 6222.00    2.65298   2.82668   19.815
 6223.00    2.84765   2.83381   19.568
 6224.00    2.87308   2.83846   19.598
 6225.00    2.87455   2.84185   19.684
 6226.00    2.85763   2.84230   19.921
 6227.00    2.84775   2.83263   20.245
 6228.00    2.84567   2.80468   20.523
 6229.00    2.80867   2.76240   20.512
 6230.00    2.76237   2.72614   20.251
 6231.00    2.74521   2.71723   19.882
 6232.00    2.76844   2.73909   19.544
 6233.00    2.83347   2.77929   19.404
 6234.00    2.87304   2.81944   19.493
 6235.00    2.90185   2.84463   19.682
 6236.00    2.88713   2.84961   19.883
 6237.00    2.86036   2.83917   20.094
 6238.00    2.83120   2.82390   20.207
 6239.00    2.81764   2.81053   20.215
 6240.00    2.81581   2.80094   20.326
 6241.00    2.80120   2.79261   20.470
 6242.00    2.78649   2.78033   20.489
 6243.00    2.77928   2.76319   20.379
 6244.00    2.76167   2.74697   20.190
 6245.00    2.76154   2.73980   19.943
 6246.00    2.78667   2.75174   19.723
 6247.00    2.81133   2.78467   19.662
 6248.00    2.86083   2.82473   19.805
 6249.00    2.88316   2.85114   20.138
 6250.00    2.85431   2.84883   20.420
 6251.00    2.81200   2.82003   20.580
 6252.00    2.77587   2.78212   20.653
 6253.00    2.76957   2.75563   20.657
 6254.00    2.75955   2.74650   20.799
 6255.00    2.74469   2.74632   20.993
 6256.00    2.74960   2.74431   20.965
 6257.00    2.74756   2.73953   20.690
 6258.00    2.74551   2.74159   20.373
 6259.00    2.76256   2.75703   20.090
 6260.00    2.78580   2.78570   19.788
 6261.00    2.82296   2.82191   19.641
 6262.00    2.85608   2.85525   19.747
 6263.00    2.87105   2.87387   19.892
 6264.00    2.85695   2.87802   19.851
 6265.00    2.82821   2.87989   19.711
 6266.00    2.81538   2.88722   19.731
 6267.00    2.81894   2.89580   19.832
 6268.00    2.81575   2.89650   19.835
 6269.00    2.82181   2.89019   19.772
 6270.00    2.83310   2.88744   19.719
 6271.00    2.84432   2.89355   19.750
 6272.00    2.85097   2.90236   19.876
 6273.00    2.82706   2.90070   20.036
 6274.00    2.77335   2.88135   20.322
 6275.00    2.70550   2.84971   20.800
 6276.00    2.65251   2.81637   21.218
 6277.00    2.62196   2.79109   21.402
 6278.00    2.59473   2.77508   21.362
 6279.00    2.55838   2.76797   -1.000
 6280.00    2.51231   2.77494   -1.000
 6281.00    2.47175   2.79718   -1.000
 6282.00    2.50148   2.82976   -1.000
 6283.00    2.59659   2.86458   -1.000
 6284.00    2.67705   2.89333   -1.000
 6285.00    2.74085   2.91361   19.618
 6286.00    2.82011   2.92673   19.558
 6287.00    2.88119   2.93508   19.633
 6288.00    2.89851   2.93653   19.791
 6289.00    2.89462   2.92861   19.945
 6290.00    2.89252   2.91693   20.007
 6291.00    2.89190   2.90747   20.029
 6292.00    2.88575   2.90190   20.062
 6293.00    2.88375   2.90008   20.191
 6294.00    2.87314   2.89825   20.334
 6295.00    2.84980   2.88833   20.387
 6296.00    2.83249   2.86923   20.367
 6297.00    2.80304   2.85331   20.292
 6298.00    2.78373   2.84894   20.201
 6299.00    2.80500   2.84873   20.314
 6300.00    2.82330   2.84189   20.541
 6301.00    2.82000   2.83228   20.461
 6302.00    2.82523   2.83765   20.158
 6303.00    2.84183   2.86439   19.891
 6304.00    2.86657   2.89840   19.707
 6305.00    2.89756   2.92658   19.532
 6306.00    2.92091   2.94697   19.467
 6307.00    2.92333   2.95954   19.532
 6308.00    2.91608   2.96421   19.657
 6309.00    2.92997   2.96397   19.747
 6310.00    2.93281   2.96134   19.825
 6311.00    2.92332   2.95690   19.858
 6312.00    2.90945   2.94965   20.004
 6313.00    2.88467   2.93623   20.106
 6314.00    2.86681   2.91884   20.107
 6315.00    2.84865   2.90352   20.087
 6316.00    2.83190   2.89129   20.105
 6317.00    2.82571   2.88285   20.055
 6318.00    2.84051   2.88544   19.846
 6319.00    2.87676   2.90532   19.637
 6320.00    2.91152   2.93271   19.538
 6321.00    2.93383   2.95244   19.473
 6322.00    2.94948   2.96644   19.376
 6323.00    2.97733   2.98381   19.304
 6324.00    3.00209   3.00130   19.284
 6325.00    3.01078   3.01189   19.207
 6326.00    3.01039   3.01526   19.198
 6327.00    3.00137   3.01522   19.216
 6328.00    3.00787   3.01585   19.229
 6329.00    3.01432   3.01790   19.177
 6330.00    3.02236   3.02258   19.135
 6331.00    3.02974   3.03031   19.170
 6332.00    2.98863   3.03203   19.221
 6333.00    2.94791   3.01618   19.581
 6334.00    2.96306   2.98390   19.730
 6335.00    2.94272   2.95038   19.597
 6336.00    2.93125   2.93437   19.401
 6337.00    2.95037   2.94180   19.190
 6338.00    2.97905   2.96368   19.070
 6339.00    3.01566   2.99163   18.980
 6340.00    3.04659   3.01787   18.970
 6341.00    3.05055   3.03121   19.111
 6342.00    3.02344   3.02712   19.175
 6343.00    3.00149   3.01328   19.135
 6344.00    2.99997   3.00322   19.040
 6345.00    2.99813   3.00537   18.912
 6346.00    3.01756   3.01945   18.826
 6347.00    3.04314   3.04196   18.815
 6348.00    3.05720   3.06569   18.786
 6349.00    3.06169   3.08187   18.789
 6350.00    3.07111   3.08774   18.858
 6351.00    3.06475   3.08511   18.945
 6352.00    3.05653   3.07404   19.135
 6353.00    3.04213   3.05476   19.316
 6354.00    3.01335   3.03379   19.358
 6355.00    2.99911   3.02025   19.400
 6356.00    3.00027   3.01161   19.587
 6357.00    2.98083   2.99847   19.707
 6358.00    2.95097   2.98287   19.659
 6359.00    2.93430   2.97139   19.588
 6360.00    2.94317   2.96232   19.561
 6361.00    2.96199   2.95363   19.505
 6362.00    2.96554   2.95010   19.388
 6363.00    2.96824   2.95605   19.262
 6364.00    2.98428   2.97007   19.154
 6365.00    3.01204   2.98868   19.037
 6366.00    3.02508   3.00939   18.910
 6367.00    3.04307   3.02876   18.844
 6368.00    3.06823   3.04067   18.847
 6369.00    3.08017   3.04412   18.801
 6370.00    3.09725   3.04678   18.727
 6371.00    3.09508   3.05549   18.749
 6372.00    3.07491   3.06893   18.775
 6373.00    3.05329   3.08016   18.809
 6374.00    3.05193   3.08433   18.873
 6375.00    3.06408   3.08141   18.964
 6376.00    3.04183   3.07280   19.087
 6377.00    3.02705   3.06057   19.174
 6378.00    3.03355   3.04815   19.198
 6379.00    3.03262   3.03679   19.229
 6380.00    3.03503   3.02677   19.233
 6381.00    3.05442   3.02028   19.191
 6382.00    3.05761   3.01845   19.248
 6383.00    3.04795   3.02091   19.306
 6384.00    3.04169   3.02836   19.302
 6385.00    3.03919   3.04023   19.343
 6386.00    3.01966   3.05049   19.406
 6387.00    3.03014   3.05405   19.546
 6388.00    3.03615   3.05357   19.704
 6389.00    3.00483   3.05175   19.914
 6390.00    2.98444   3.04353   20.204
 6391.00    2.95004   3.02250   20.408
 6392.00    2.89720   2.99564   20.393
 6393.00    2.86367   2.98152   20.134
 6394.00    2.86338   2.99298   20.036
 6395.00    2.88354   3.02268   20.132
 6396.00    2.91135   3.04802   20.402
 6397.00    2.91058   3.04908   20.842
 6398.00    2.88640   3.02227   21.073
 6399.00    2.82886   2.98904   20.927
 6400.00    2.77724   2.97837   20.609
 6401.00    2.78171   2.99993   20.455
 6402.00    2.81522   3.04007   20.483
 6403.00    2.83771   3.07749   20.586
 6404.00    2.84279   3.09744   -1.000
 6405.00    2.83075   3.09391   -1.000
 6406.00    2.78554   3.07450   -1.000
 6407.00    2.74514   3.05774   -1.000
 6408.00    2.72057   3.05538   -1.000
 6409.00    2.71039   3.05828   -1.000
 6410.00    2.68576   3.05346   -1.000
 6411.00    2.67580   3.04656   -1.000
 6412.00    2.67110   3.04914   -1.000
 6413.00    2.64152   3.06026   -1.000
 6414.00    2.62399   3.07169   -1.000
 6415.00    2.62508   3.08022   -1.000
 6416.00    2.62878   3.08523   -1.000
 6417.00    2.60996   3.08199   -1.000
 6418.00    2.58304   3.06529   -1.000
 6419.00    2.53430   3.03960   -1.000
 6420.00    2.48967   3.01950   -1.000
 6421.00    2.44914   3.02225   -1.000
 6422.00    2.44982   3.05125   -1.000
 6423.00    2.46154   3.08740   -1.000
 6424.00    2.47186   3.11554   -1.000
 6425.00    2.46257   3.13573   -1.000
 6426.00    2.43498   3.14771   -1.000
 6427.00    2.41682   3.14547   -1.000
 6428.00    2.37768   3.12264   -1.000
