###################################################################
## OUTPUT of StarlightChains_v04.for    [Cid@UFSC - 01/Apr/2007] ##
###################################################################

## Some input info
NGC6569_a_1.cxt                          [arq_obs]
Base.BC03.N                              [arq_base]
NGC6569_a_1.msk                          [arq_masks]
StCv04.C99.config                        [arq_config]
   45                                    [N_base]
    0                                    [N_YAV_components = # of components with extra extinction!]
    0                                    [i_FitPowerLaw (1/0 = Yes/No)]
-9.99                                    [alpha_PowerLaw]
CCM                                      [red_law_option]
 1.458241                                [q_norm = A(l_norm)/A(V)]

## (Re)Sampling Parameters
 3359.00                                 [l_ini (A)]
 6428.00                                 [l_fin (A)]
    1.00                                 [dl    (A)]     (OBS: dl_cushion =    50.00 A)

## Normalization info
 4020.00                                 [l_norm (A) - for base]
 4010.00                                 [llow_norm (A) - window for f_obs]
 4060.00                                 [lupp_norm (A) - window for f_obs]
3.450800E-15                             [fobs_norm (in input units)]

## S/N
 4730.00                                 [llow_SN (A) - window for S/N]
 4780.00                                 [lupp_SN (A) - window for S/N]
  49.160                                 [S/N in S/N window]
  30.918                                 [S/N in norm. window]
 207.538                                 [S/N_err in S/N window]
 130.528                                 [S/N_err in norm. window]
  1.0000                                 [fscale_chi2]

## etc...
  2147483598                             [idum_orig]
  3069                                   [NOl_eff]
   720                                   [Nl_eff]
  2349    NSIGMA                         [Ntot_cliped & clip_method]
  1967280                                [Nglobal_steps]
   7                                     [N_chains]
  10                                     [NEX0s_base = N_base in EX0s-fits]
 0   0   1       50   2.0   3.259E+02    [Clip-Bug, RC-Crash & Burn-In warning-flags, n_censored_weights, wei_nsig_threshold & wei_limit]
    26     25.600     25.600      0.000  [idt_all, wdt_TotTime, wdt_UsrTime & wdt_SysTime (sec)]

## Synthesis Results - Best model ##

 2.93034E+00                             [chi2/Nl_eff]
     1.54390                             [adev (%)]

    98.38394                             [sum-of-x (%)]
 4.40487E-14                             [Flux_tot (units of input spectrum!)]
 9.49815E-10                             [Mini_tot (???)]
 4.87381E-10                             [Mcor_tot (???)]

 -13.70                                  [v0_min  (km/s)]
  23.29                                  [vd_min  (km/s)]
 1.9083                                  [AV_min  (mag)]
 0.0000                                  [YAV_min (mag)]

# j     x_j(%)      Mini_j(%)     Mcor_j(%)     age_j(yr)     Z_j      (L/M)_j    YAV?  Mstars   component_j        a/Fe...       SSP_chi2r SSP_adev(%)   SSP_AV   SSP_x(%)
  1      0.0000     0.0000E+00    0.0000E+00    1.000000E+06  0.00400  1.114E-02    0   1.0000   age020_m42            0.0000     3.5997E+03    32.1636   4.0000   104.5473
  2     12.7729     1.4782E-02    2.8805E-02    3.160000E+06  0.00400  4.073E-02    0   0.9999   age045_m42            0.0000     3.6368E+02     9.7133   4.0000   101.2142
  3      1.0969     2.0404E-03    3.7728E-03    5.010000E+06  0.00400  2.534E-02    0   0.9488   age055_m42            0.0000     1.1811E+03    19.1615   4.0000   104.0940
  4     10.3057     3.8221E-02    6.6009E-02    1.000000E+07  0.00400  1.271E-02    0   0.8862   age070_m42            0.0000     1.7626E+02     8.0629   3.8552    92.1559
  5      1.2073     1.1225E-02    1.7881E-02    2.512000E+07  0.00400  5.070E-03    0   0.8174   age090_m42            0.0000     1.5125E+02     7.4192   3.7296    93.7446
  6      0.0000     0.0000E+00    0.0000E+00    4.000000E+07  0.00400  3.505E-03    0   0.7851   age104_m42            0.0000     1.0584E+02     5.8039   3.4413    96.1485
  7      0.0000     0.0000E+00    0.0000E+00    1.015200E+08  0.00400  2.268E-03    0   0.7207   age116_m42            0.0000     4.8257E+02    10.9443   3.5683   101.3940
  8      0.0000     0.0000E+00    0.0000E+00    2.861200E+08  0.00400  1.079E-03    0   0.6613   age125_m42            0.0000     5.2739E+02    11.7663   3.0853   103.0335
  9      0.0000     0.0000E+00    0.0000E+00    6.405400E+08  0.00400  5.077E-04    0   0.6197   age132_m42            0.0000     5.5306E+02    12.4297   2.7214   107.0161
 10      0.0000     0.0000E+00    0.0000E+00    9.047900E+08  0.00400  3.535E-04    0   0.6024   age135_m42            0.0000     3.9969E+02    10.7423   2.4716   106.7668
 11      0.0000     0.0000E+00    0.0000E+00    1.434000E+09  0.00400  1.910E-04    0   0.5716   age139_m42            0.0000     2.3814E+02     8.6389   1.9431   106.2015
 12      1.3428     6.4471E-01    6.8638E-01    2.500000E+09  0.00400  9.818E-05    0   0.5463   age150_m42            0.0000     1.2207E+02     6.5352   1.6444   102.6032
 13     55.5476     5.5498E+01    5.6544E+01    5.000000E+09  0.00400  4.718E-05    0   0.5228   age161_m42            0.0000     8.5865E+01     5.6213   1.4561   100.1407
 14      7.2401     1.5478E+01    1.5021E+01    1.100000E+10  0.00400  2.205E-05    0   0.4980   age185_m42            0.0000     1.4653E+02     6.8581   1.1907    98.5267
 15      1.3867     3.4714E+00    3.3332E+00    1.300000E+10  0.00400  1.883E-05    0   0.4927   age193_m42            0.0000     1.5600E+02     7.0424   1.1715    98.4942
 16      0.0000     0.0000E+00    0.0000E+00    1.000000E+06  0.02000  1.989E-02    0   1.0000   age020_m62            0.0000     3.3857E+03    31.2199   4.0000   105.0117
 17      0.0000     0.0000E+00    0.0000E+00    3.160000E+06  0.02000  3.772E-02    0   0.9858   age045_m62            0.0000     2.6775E+03    28.4125   4.0000   105.7270
 18      4.6831     6.8407E-03    1.2454E-02    5.010000E+06  0.02000  3.227E-02    0   0.9342   age055_m62            0.0000     8.1408E+02    15.7166   4.0000   104.1633
 19      0.0000     0.0000E+00    0.0000E+00    1.000000E+07  0.02000  1.011E-02    0   0.8751   age070_m62            0.0000     4.1623E+02    12.9974   3.8004    90.3164
 20      0.0000     0.0000E+00    0.0000E+00    2.512000E+07  0.02000  4.206E-03    0   0.8099   age090_m62            0.0000     2.6879E+02    10.6937   3.7597    90.5826
 21      0.0000     0.0000E+00    0.0000E+00    4.000000E+07  0.02000  3.373E-03    0   0.7799   age104_m62            0.0000     1.5180E+02     6.2035   3.6594    97.1982
 22      0.0000     0.0000E+00    0.0000E+00    1.015200E+08  0.02000  1.878E-03    0   0.7221   age116_m62            0.0000     4.1809E+02    10.1654   3.5683   102.6084
 23      0.0000     0.0000E+00    0.0000E+00    2.861200E+08  0.02000  8.869E-04    0   0.6700   age125_m62            0.0000     7.7895E+02    14.3430   3.1190   107.4614
 24      0.0000     0.0000E+00    0.0000E+00    6.405400E+08  0.02000  3.657E-04    0   0.6322   age132_m62            0.0000     6.1119E+02    13.1561   2.4538   110.4571
 25      0.0000     0.0000E+00    0.0000E+00    9.047900E+08  0.02000  2.312E-04    0   0.6152   age135_m62            0.0000     4.1744E+02    11.0376   2.0687   110.0820
 26      0.0000     0.0000E+00    0.0000E+00    1.434000E+09  0.02000  1.168E-04    0   0.5865   age139_m62            0.0000     2.0686E+02     8.0645   1.6156   105.9779
 27      0.0000     0.0000E+00    0.0000E+00    2.500000E+09  0.02000  5.505E-05    0   0.5610   age150_m62            0.0000     2.1628E+02     8.3304   1.2342   103.9109
 28      0.0000     0.0000E+00    0.0000E+00    5.000000E+09  0.02000  2.596E-05    0   0.5353   age161_m62            0.0000     3.8189E+02    10.5878   0.9095   104.1728
 29      0.0000     0.0000E+00    0.0000E+00    1.100000E+10  0.02000  1.169E-05    0   0.5103   age185_m62            0.0000     6.1428E+02    13.0157   0.5593   105.6512
 30      0.0000     0.0000E+00    0.0000E+00    1.300000E+10  0.02000  9.691E-06    0   0.5047   age193_m62            0.0000     6.5720E+02    13.4128   0.5152   105.9102
 31      0.0000     0.0000E+00    0.0000E+00    1.000000E+06  0.05000  2.651E-02    0   0.9998   age020_m72            0.0000     3.3784E+03    30.9254   4.0000   106.1578
 32      0.0000     0.0000E+00    0.0000E+00    3.160000E+06  0.05000  4.817E-02    0   0.9577   age045_m72            0.0000     2.0243E+03    24.4334   4.0000   107.1440
 33      0.0000     0.0000E+00    0.0000E+00    5.010000E+06  0.05000  3.101E-02    0   0.9147   age055_m72            0.0000     7.9502E+02    16.6882   4.0000   102.5914
 34      0.0000     0.0000E+00    0.0000E+00    1.000000E+07  0.05000  8.954E-03    0   0.8524   age070_m72            0.0000     1.4551E+03    21.4288   4.0000   106.2924
 35      0.0000     0.0000E+00    0.0000E+00    2.512000E+07  0.05000  4.207E-03    0   0.7902   age090_m72            0.0000     3.9683E+02    11.3141   4.0000   102.3593
 36      0.0000     0.0000E+00    0.0000E+00    4.000000E+07  0.05000  3.198E-03    0   0.7618   age104_m72            0.0000     2.8862E+02     8.0993   3.9105    99.1382
 37      0.0000     0.0000E+00    0.0000E+00    1.015200E+08  0.05000  1.716E-03    0   0.7092   age116_m72            0.0000     4.9060E+02    10.9731   3.6642   102.4185
 38      0.0000     0.0000E+00    0.0000E+00    2.861200E+08  0.05000  7.047E-04    0   0.6618   age125_m72            0.0000     7.6067E+02    14.3085   2.9284   107.6241
 39      0.0000     0.0000E+00    0.0000E+00    6.405400E+08  0.05000  2.633E-04    0   0.6253   age132_m72            0.0000     5.0809E+02    12.1610   2.0916   109.8174
 40      0.0000     0.0000E+00    0.0000E+00    9.047900E+08  0.05000  1.484E-04    0   0.6088   age135_m72            0.0000     3.1911E+02    10.1821   1.5859   105.9986
 41      0.0000     0.0000E+00    0.0000E+00    1.434000E+09  0.05000  7.827E-05    0   0.5847   age139_m72            0.0000     3.2099E+02    10.2131   1.1794   103.5052
 42      0.0000     0.0000E+00    0.0000E+00    2.500000E+09  0.05000  3.759E-05    0   0.5583   age150_m72            0.0000     4.2455E+02    11.2403   0.8449   103.4927
 43      0.0000     0.0000E+00    0.0000E+00    5.000000E+09  0.05000  1.548E-05    0   0.5320   age161_m72            0.0000     6.2274E+02    12.8591   0.4356   103.6043
 44      0.0000     0.0000E+00    0.0000E+00    1.100000E+10  0.05000  6.532E-06    0   0.5070   age185_m72            0.0000     9.2515E+02    15.4622   0.0880   103.0719
 45      2.8008     2.4835E+01    2.4286E+01    1.300000E+10  0.05000  5.316E-06    0   0.5018   age193_m72            0.0000     1.0574E+03    16.5790  -0.0135   102.8383


## Synthesis Results - Average & Chains ##

# j      x_j: min, <> & last-chain-values for 1 ...  7 chains
  1      0.0000      0.0348      0.0188      0.0210      0.0000      0.1382      0.0000      0.0000      0.0474
  2     12.7729     12.2647     12.4412     12.4365     12.2917     12.5545     12.3427     12.4303     12.1573
  3      1.0969      0.9133      0.9371      0.9601      0.8892      0.9471      0.9037      1.0725      0.9544
  4     10.3057     10.1258     10.1405     10.2506     10.1405      9.9500     10.2385     10.2239     10.2276
  5      1.2073      1.6446      1.6444      1.7496      1.6394      1.4624      1.7569      1.3303      1.6121
  6      0.0000      0.0283      0.0000      0.0000      0.0000      0.0000      0.0000      0.0000      0.0000
  7      0.0000      0.0130      0.0000      0.0000      0.0000      0.0000      0.0000      0.0000      0.0000
  8      0.0000      0.0135      0.0000      0.0000      0.0097      0.0171      0.0000      0.0000      0.0000
  9      0.0000      0.0273      0.0416      0.0000      0.0784      0.0782      0.0000      0.0000      0.0000
 10      0.0000      0.0496      0.0000      0.0000      0.0000      0.1750      0.0000      0.0000      0.1261
 11      0.0000      0.0750      0.0000      0.0000      0.0000      0.0000      0.0499      0.0000      0.0000
 12      1.3428      1.9456      2.0462      1.9680      1.9511      2.2052      2.0380      2.0367      2.4580
 13     55.5476     52.2040     52.6595     52.7064     53.0790     52.4086     52.2552     52.2496     52.1461
 14      7.2401      7.5628      7.5610      7.5376      7.6916      7.0511      7.4103      7.7387      7.5937
 15      1.3867      2.6063      2.1886      1.9233      2.3614      2.5994      2.4486      2.1147      2.4381
 16      0.0000      0.0161      0.0000      0.0050      0.0000      0.0000      0.0000      0.0000      0.0000
 17      0.0000      0.0266      0.0000      0.0000      0.0679      0.1388      0.0538      0.0000      0.0000
 18      4.6831      4.6966      4.7236      4.6249      4.7113      4.7841      4.7206      4.7349      4.6514
 19      0.0000      0.0762      0.1017      0.0116      0.2192      0.0000      0.0675      0.0000      0.1608
 20      0.0000      0.0309      0.0000      0.0000      0.0000      0.0000      0.0000      0.0110      0.0618
 21      0.0000      0.0257      0.0000      0.0000      0.0000      0.0000      0.0000      0.0000      0.0000
 22      0.0000      0.0159      0.0000      0.0000      0.0000      0.0000      0.0000      0.0221      0.0000
 23      0.0000      0.0111      0.0000      0.0000      0.0000      0.0000      0.0000      0.0000      0.0000
 24      0.0000      0.0181      0.0000      0.0000      0.0000      0.0000      0.0000      0.0000      0.0000
 25      0.0000      0.0352      0.0000      0.0333      0.0226      0.0000      0.0000      0.0000      0.0000
 26      0.0000      0.1175      0.1241      0.0000      0.0000      0.0000      0.1369      0.3189      0.0181
 27      0.0000      0.2329      0.3523      0.3564      0.1602      0.3161      0.5448      0.5696      0.4160
 28      0.0000      0.2112      0.2771      0.1824      0.1658      0.4275      0.3087      0.1662      0.2477
 29      0.0000      0.0635      0.0922      0.0000      0.0000      0.1175      0.0000      0.0553      0.0000
 30      0.0000      0.0235      0.1327      0.0133      0.0000      0.0000      0.0986      0.0000      0.0000
 31      0.0000      0.0269      0.0000      0.0000      0.0000      0.0000      0.0000      0.0000      0.0000
 32      0.0000      0.0381      0.1446      0.0202      0.0000      0.0386      0.0000      0.0439      0.0000
 33      0.0000      0.0780      0.0000      0.1689      0.1187      0.0735      0.1618      0.2765      0.0000
 34      0.0000      0.0350      0.0000      0.0000      0.0000      0.0000      0.0000      0.0000      0.1668
 35      0.0000      0.0197      0.0000      0.0000      0.0000      0.0000      0.0000      0.0000      0.0000
 36      0.0000      0.0151      0.0000      0.0000      0.0000      0.0000      0.0000      0.0000      0.0000
 37      0.0000      0.0127      0.0000      0.0000      0.0000      0.0000      0.0507      0.0000      0.0508
 38      0.0000      0.0123      0.0000      0.0115      0.0000      0.0097      0.0000      0.0398      0.0000
 39      0.0000      0.0293      0.0000      0.0506      0.0000      0.0000      0.0177      0.0000      0.0148
 40      0.0000      0.0553      0.0000      0.0000      0.0000      0.0000      0.0000      0.0000      0.0076
 41      0.0000      0.1060      0.0456      0.1696      0.0000      0.0000      0.0819      0.0000      0.1325
 42      0.0000      0.0885      0.0000      0.4514      0.0000      0.0837      0.0000      0.2208      0.0000
 43      0.0000      0.0203      0.0311      0.0000      0.0000      0.0911      0.0000      0.0000      0.0586
 44      0.0000      0.0331      0.0000      0.0000      0.1347      0.0000      0.0000      0.0000      0.0000
 45      2.8008      2.7864      2.7653      2.8146      2.6832      2.7739      2.7737      2.7964      2.6906

# j      m_j: min, <> & last-chain-values for 1 ...  7 chains
  1  0.0000E+00  2.8096E-04  1.5255E-04  1.7155E-04  0.0000E+00  1.1220E-03  0.0000E+00  0.0000E+00  3.8835E-04
  2  2.8805E-02  2.7118E-02  2.7572E-02  2.7781E-02  2.7310E-02  2.7880E-02  2.7454E-02  2.7682E-02  2.7256E-02
  3  3.7728E-03  3.0798E-03  3.1674E-03  3.2710E-03  3.0131E-03  3.2079E-03  3.0657E-03  3.6427E-03  3.2633E-03
  4  6.6009E-02  6.3589E-02  6.3827E-02  6.5034E-02  6.3989E-02  6.2756E-02  6.4681E-02  6.4665E-02  6.5124E-02
  5  1.7881E-02  2.3881E-02  2.3933E-02  2.5666E-02  2.3920E-02  2.1327E-02  2.5664E-02  1.9456E-02  2.3735E-02
  6  0.0000E+00  5.7044E-04  0.0000E+00  0.0000E+00  0.0000E+00  0.0000E+00  0.0000E+00  0.0000E+00  0.0000E+00
  7  0.0000E+00  3.7174E-04  0.0000E+00  0.0000E+00  0.0000E+00  0.0000E+00  0.0000E+00  0.0000E+00  0.0000E+00
  8  0.0000E+00  7.4399E-04  0.0000E+00  0.0000E+00  5.3621E-04  9.4961E-04  0.0000E+00  0.0000E+00  0.0000E+00
  9  0.0000E+00  3.0005E-03  4.5854E-03  0.0000E+00  8.6592E-03  8.6346E-03  0.0000E+00  0.0000E+00  0.0000E+00
 10  0.0000E+00  7.6110E-03  0.0000E+00  0.0000E+00  0.0000E+00  2.6980E-02  0.0000E+00  0.0000E+00  1.9628E-02
 11  0.0000E+00  2.0225E-02  0.0000E+00  0.0000E+00  0.0000E+00  0.0000E+00  1.3535E-02  0.0000E+00  0.0000E+00
 12  6.8638E-01  9.7506E-01  1.0278E+00  9.9644E-01  9.8256E-01  1.1099E+00  1.0275E+00  1.0280E+00  1.2490E+00
 13  5.6544E+01  5.2101E+01  5.2676E+01  5.3143E+01  5.3231E+01  5.2532E+01  5.2464E+01  5.2520E+01  5.2769E+01
 14  1.5021E+01  1.5384E+01  1.5416E+01  1.5490E+01  1.5722E+01  1.4405E+01  1.5164E+01  1.5855E+01  1.5662E+01
 15  3.3332E+00  6.1422E+00  5.1696E+00  4.5792E+00  5.5920E+00  6.1523E+00  5.8052E+00  5.0195E+00  5.8260E+00
 16  0.0000E+00  7.2952E-05  0.0000E+00  2.2722E-05  0.0000E+00  0.0000E+00  0.0000E+00  0.0000E+00  0.0000E+00
 17  0.0000E+00  6.2524E-05  0.0000E+00  0.0000E+00  1.6061E-04  3.2804E-04  1.2737E-04  0.0000E+00  0.0000E+00
 18  1.2454E-02  1.2246E-02  1.2344E-02  1.2183E-02  1.2344E-02  1.2528E-02  1.2382E-02  1.2434E-02  1.2297E-02
 19  0.0000E+00  5.9376E-04  7.9494E-04  9.1569E-05  1.7169E-03  0.0000E+00  5.2915E-04  0.0000E+00  1.2713E-03
 20  0.0000E+00  5.3647E-04  0.0000E+00  0.0000E+00  0.0000E+00  0.0000E+00  0.0000E+00  1.9130E-04  1.0875E-03
 21  0.0000E+00  5.3608E-04  0.0000E+00  0.0000E+00  0.0000E+00  0.0000E+00  0.0000E+00  0.0000E+00  0.0000E+00
 22  0.0000E+00  5.4982E-04  0.0000E+00  0.0000E+00  0.0000E+00  0.0000E+00  0.0000E+00  7.6995E-04  0.0000E+00
 23  0.0000E+00  7.5563E-04  0.0000E+00  0.0000E+00  0.0000E+00  0.0000E+00  0.0000E+00  0.0000E+00  0.0000E+00
 24  0.0000E+00  2.8214E-03  0.0000E+00  0.0000E+00  0.0000E+00  0.0000E+00  0.0000E+00  0.0000E+00  0.0000E+00
 25  0.0000E+00  8.4306E-03  0.0000E+00  8.0727E-03  5.4330E-03  0.0000E+00  0.0000E+00  0.0000E+00  0.0000E+00
 26  0.0000E+00  5.3131E-02  5.6233E-02  0.0000E+00  0.0000E+00  0.0000E+00  6.2303E-02  1.4526E-01  8.2940E-03
 27  0.0000E+00  2.1378E-01  3.2406E-01  3.3046E-01  1.4776E-01  2.9140E-01  5.0301E-01  5.2658E-01  3.8711E-01
 28  0.0000E+00  3.9228E-01  5.1585E-01  3.4221E-01  3.0932E-01  7.9743E-01  5.7680E-01  3.1079E-01  4.6640E-01
 29  0.0000E+00  2.4951E-01  3.6348E-01  0.0000E+00  0.0000E+00  4.6417E-01  0.0000E+00  2.1896E-01  0.0000E+00
 30  0.0000E+00  1.1011E-01  6.2376E-01  6.2830E-02  0.0000E+00  0.0000E+00  4.6506E-01  0.0000E+00  0.0000E+00
 31  0.0000E+00  9.1260E-05  0.0000E+00  0.0000E+00  0.0000E+00  0.0000E+00  0.0000E+00  0.0000E+00  0.0000E+00
 32  0.0000E+00  6.8206E-05  2.5944E-04  3.6535E-05  0.0000E+00  6.9460E-05  0.0000E+00  7.9224E-05  0.0000E+00
 33  0.0000E+00  2.0723E-04  0.0000E+00  4.5320E-04  3.1699E-04  1.9614E-04  4.3247E-04  7.3981E-04  0.0000E+00
 34  0.0000E+00  2.9968E-04  0.0000E+00  0.0000E+00  0.0000E+00  0.0000E+00  0.0000E+00  0.0000E+00  1.4497E-03
 35  0.0000E+00  3.3397E-04  0.0000E+00  0.0000E+00  0.0000E+00  0.0000E+00  0.0000E+00  0.0000E+00  0.0000E+00
 36  0.0000E+00  3.2301E-04  0.0000E+00  0.0000E+00  0.0000E+00  0.0000E+00  0.0000E+00  0.0000E+00  0.0000E+00
 37  0.0000E+00  4.7459E-04  0.0000E+00  0.0000E+00  0.0000E+00  0.0000E+00  1.8992E-03  0.0000E+00  1.9183E-03
 38  0.0000E+00  1.0416E-03  0.0000E+00  9.8645E-04  0.0000E+00  8.2761E-04  0.0000E+00  3.3899E-03  0.0000E+00
 39  0.0000E+00  6.2686E-03  0.0000E+00  1.0927E-02  0.0000E+00  0.0000E+00  3.7996E-03  0.0000E+00  3.2158E-03
 40  0.0000E+00  2.0448E-02  0.0000E+00  0.0000E+00  0.0000E+00  0.0000E+00  0.0000E+00  0.0000E+00  2.8616E-03
 41  0.0000E+00  7.1351E-02  3.0721E-02  1.1528E-01  0.0000E+00  0.0000E+00  5.5458E-02  0.0000E+00  9.0427E-02
 42  0.0000E+00  1.1844E-01  0.0000E+00  6.1010E-01  0.0000E+00  1.1246E-01  0.0000E+00  2.9747E-01  0.0000E+00
 43  0.0000E+00  6.2775E-02  9.6448E-02  0.0000E+00  0.0000E+00  2.8318E-01  0.0000E+00  0.0000E+00  1.8377E-01
 44  0.0000E+00  2.3125E-01  0.0000E+00  0.0000E+00  9.4591E-01  0.0000E+00  0.0000E+00  0.0000E+00  0.0000E+00
 45  2.4286E+01  2.3689E+01  2.3564E+01  2.4175E+01  2.2923E+01  2.3685E+01  2.3723E+01  2.3945E+01  2.3194E+01

# AV, chi2 & Mass for <> & i_chain = 1 ...  7 solutions
AV       1.9083      1.9005      1.9006      1.9013      1.9024      1.9035      1.9031      1.9023      1.9040
chi2 2.9303E+00  2.9550E+00  2.9464E+00  2.9433E+00  2.9438E+00  2.9445E+00  2.9433E+00  2.9433E+00  2.9428E+00
Mass 4.8738E-10  4.9193E-10  4.9086E-10  4.8746E-10  4.9083E-10  4.9180E-10  4.9071E-10  4.8960E-10  4.8746E-10
 -12.96                                  [v0_min (km/s) before EX0s...]
  25.16                                  [vd_min (km/s) before EX0s...]


## Synthetic spectrum (Best Model) ##l_obs f_obs f_syn wei
 3070    [Nl_obs]
 3359.00    0.00000   0.45345   -2.000
 3360.00    0.06634   0.43326   -1.000
 3361.00    0.23380   0.43197   -1.000
 3362.00    0.26744   0.45479   -1.000
 3363.00    0.28680   0.48403   -1.000
 3364.00    0.28503   0.50273   -1.000
 3365.00    0.24681   0.50202   -1.000
 3366.00    0.25984   0.48642   -1.000
 3367.00    0.27531   0.46504   -1.000
 3368.00    0.32031   0.45011   -1.000
 3369.00    0.28700   0.44607   -1.000
 3370.00    0.27122   0.44669   -1.000
 3371.00    0.32512   0.44425   -1.000
 3372.00    0.29951   0.44152   -1.000
 3373.00    0.27664   0.45103   -1.000
 3374.00    0.28629   0.47255   -1.000
 3375.00    0.28970   0.50184   -1.000
 3376.00    0.32065   0.51854   -1.000
 3377.00    0.34979   0.50972   -1.000
 3378.00    0.35164   0.48943   -1.000
 3379.00    0.32892   0.46919   -1.000
 3380.00    0.33641   0.46252   -1.000
 3381.00    0.35680   0.47070   -1.000
 3382.00    0.30036   0.48803   -1.000
 3383.00    0.31409   0.50136   -1.000
 3384.00    0.33243   0.50870   -1.000
 3385.00    0.35919   0.51772   -1.000
 3386.00    0.39588   0.52283   -1.000
 3387.00    0.37163   0.52032   -1.000
 3388.00    0.36153   0.51605   -1.000
 3389.00    0.36838   0.51406   -1.000
 3390.00    0.34798   0.51200   -1.000
 3391.00    0.31964   0.50620   -1.000
 3392.00    0.30681   0.49636   -1.000
 3393.00    0.35688   0.49215   -1.000
 3394.00    0.39709   0.50239   -1.000
 3395.00    0.38778   0.52002   -1.000
 3396.00    0.37498   0.53632   -1.000
 3397.00    0.39285   0.54896   -1.000
 3398.00    0.39418   0.55380   -1.000
 3399.00    0.41366   0.54798   -1.000
 3400.00    0.43479   0.53871   -1.000
 3401.00    0.44206   0.53010   -1.000
 3402.00    0.43542   0.51702   36.869
 3403.00    0.42456   0.50695   -1.000
 3404.00    0.41644   0.50402   -1.000
 3405.00    0.40928   0.50304   -1.000
 3406.00    0.38300   0.49782   -1.000
 3407.00    0.41799   0.49258   40.503
 3408.00    0.40957   0.49183   -1.000
 3409.00    0.39428   0.49857   -1.000
 3410.00    0.42453   0.50740   -1.000
 3411.00    0.45459   0.50704   40.863
 3412.00    0.45702   0.50071   39.880
 3413.00    0.44421   0.49243   40.167
 3414.00    0.41252   0.49120   -1.000
 3415.00    0.40301   0.49689   -1.000
 3416.00    0.42417   0.50816   -1.000
 3417.00    0.44495   0.52079   40.474
 3418.00    0.47241   0.53446   38.669
 3419.00    0.49253   0.54660   36.798
 3420.00    0.49865   0.55156   35.438
 3421.00    0.48574   0.54687   35.287
 3422.00    0.46418   0.53851   35.175
 3423.00    0.46774   0.53148   35.632
 3424.00    0.45818   0.53026   36.624
 3425.00    0.43795   0.53224   -1.000
 3426.00    0.45296   0.53698   35.832
 3427.00    0.49741   0.54446   35.109
 3428.00    0.49354   0.56060   -1.000
 3429.00    0.50108   0.57285   -1.000
 3430.00    0.49279   0.57143   -1.000
 3431.00    0.49411   0.55857   -1.000
 3432.00    0.49329   0.54255   -1.000
 3433.00    0.50302   0.53453   98.243
 3434.00    0.50331   0.53612   35.060
 3435.00    0.52291   0.54447   46.804
 3436.00    0.51462   0.54678   -1.000
 3437.00    0.50189   0.54090   -1.000
 3438.00    0.48063   0.52451   35.329
 3439.00    0.47809   0.50168   37.130
 3440.00    0.46397   0.47427   39.570
 3441.00    0.46501   0.45678   42.301
 3442.00    0.44634   0.45651   43.524
 3443.00    0.42617   0.46705   43.508
 3444.00    0.43644   0.47937   42.867
 3445.00    0.44717   0.49003   40.959
 3446.00    0.46165   0.50491   38.703
 3447.00    0.45995   0.52483   36.792
 3448.00    0.46043   0.54488   -1.000
 3449.00    0.47722   0.55608   -1.000
 3450.00    0.49520   0.55028   -1.000
 3451.00    0.52234   0.53565   -1.000
 3452.00    0.54733   0.51861   -1.000
 3453.00    0.52213   0.51242   -1.000
 3454.00    0.51044   0.51816  325.942
 3455.00    0.50456   0.52729   -1.000
 3456.00    0.50036   0.53172   -1.000
 3457.00    0.49828   0.52217   -1.000
 3458.00    0.53142   0.50850   -1.000
 3459.00    0.55599   0.49743   -1.000
 3460.00    0.53272   0.48821   35.113
 3461.00    0.50874   0.48863   35.391
 3462.00    0.49411   0.50526   46.892
 3463.00    0.50624   0.52364   -1.000
 3464.00    0.53763   0.52753   -1.000
 3465.00    0.53042   0.52597  317.834
 3466.00    0.51792   0.52404  316.840
 3467.00    0.51019   0.53009   -1.000
 3468.00    0.50779   0.53928   -1.000
 3469.00    0.54174   0.54693  302.417
 3470.00    0.53512   0.54959   -1.000
 3471.00    0.51450   0.54403   -1.000
 3472.00    0.53557   0.53164  301.257
 3473.00    0.54123   0.51604   -1.000
 3474.00    0.54851   0.49551   -1.000
 3475.00    0.54495   0.48116   -1.000
 3476.00    0.51766   0.48307   35.631
 3477.00    0.49682   0.49628   36.381
 3478.00    0.49817   0.51226   47.384
 3479.00    0.52260   0.52554  325.275
 3480.00    0.53558   0.53269  306.860
 3481.00    0.56407   0.53285   -1.000
 3482.00    0.57305   0.52509   -1.000
 3483.00    0.56368   0.51629   -1.000
 3484.00    0.56558   0.51688   -1.000
 3485.00    0.56890   0.53001   -1.000
 3486.00    0.56182   0.54961   -1.000
 3487.00    0.56464   0.55604  288.252
 3488.00    0.57240   0.54556   -1.000
 3489.00    0.53910   0.52462   -1.000
 3490.00    0.54633   0.50927   -1.000
 3491.00    0.53571   0.50989   -1.000
 3492.00    0.52807   0.51836   -1.000
 3493.00    0.52636   0.52411  325.942
 3494.00    0.51282   0.52053  324.764
 3495.00    0.49306   0.51086   -1.000
 3496.00    0.50305   0.50444  321.570
 3497.00    0.52008   0.51229   -1.000
 3498.00    0.53487   0.53378  325.312
 3499.00    0.54030   0.54703  310.385
 3500.00    0.55713   0.54646   -1.000
 3501.00    0.58009   0.54691   -1.000
 3502.00    0.56685   0.55195   -1.000
 3503.00    0.57365   0.55818   -1.000
 3504.00    0.58804   0.55421   -1.000
 3505.00    0.57835   0.54374   -1.000
 3506.00    0.55567   0.53835   -1.000
 3507.00    0.53745   0.53918  287.025
 3508.00    0.54795   0.54148  283.341
 3509.00    0.56768   0.53729   -1.000
 3510.00    0.56725   0.52859   -1.000
 3511.00    0.55157   0.52139   -1.000
 3512.00    0.55681   0.51581   -1.000
 3513.00    0.54144   0.50661   -1.000
 3514.00    0.53048   0.50679   -1.000
 3515.00    0.51570   0.52139  321.807
 3516.00    0.53591   0.54446  310.982
 3517.00    0.57019   0.56405  293.859
 3518.00    0.56921   0.56764  279.759
 3519.00    0.54705   0.55755  278.979
 3520.00    0.54697   0.53816   -1.000
 3521.00    0.54177   0.52143   -1.000
 3522.00    0.52135   0.51066   -1.000
 3523.00    0.51580   0.49778   -1.000
 3524.00    0.52257   0.48728   -1.000
 3525.00    0.51017   0.48344   35.293
 3526.00    0.51026   0.49235   36.169
 3527.00    0.53836   0.51458   47.094
 3528.00    0.54092   0.53855  325.942
 3529.00    0.54738   0.55359  307.022
 3530.00    0.57013   0.55703   -1.000
 3531.00    0.55761   0.55461  291.998
 3532.00    0.52425   0.55454   -1.000
 3533.00    0.54232   0.55927   -1.000
 3534.00    0.57108   0.56604  293.830
 3535.00    0.58655   0.56993   -1.000
 3536.00    0.59820   0.57055   -1.000
 3537.00    0.59285   0.57324   -1.000
 3538.00    0.58861   0.58084  280.492
 3539.00    0.60498   0.58692   -1.000
 3540.00    0.60343   0.58406   -1.000
 3541.00    0.60674   0.57793   -1.000
 3542.00    0.59539   0.57999   -1.000
 3543.00    0.57834   0.58602  284.301
 3544.00    0.58946   0.59261  281.767
 3545.00    0.57578   0.59243   -1.000
 3546.00    0.56399   0.58730   -1.000
 3547.00    0.55753   0.58417   -1.000
 3548.00    0.58835   0.58400  289.861
 3549.00    0.59285   0.58694  290.471
 3550.00    0.58316   0.58893  289.448
 3551.00    0.57253   0.58768   -1.000
 3552.00    0.55436   0.57982   -1.000
 3553.00    0.54987   0.57133   -1.000
 3554.00    0.55262   0.56720   -1.000
 3555.00    0.55346   0.56897   -1.000
 3556.00    0.55230   0.57302   -1.000
 3557.00    0.55264   0.57201   -1.000
 3558.00    0.55212   0.56693   -1.000
 3559.00    0.56300   0.56395  311.681
 3560.00    0.54856   0.56845   -1.000
 3561.00    0.53146   0.58151   -1.000
 3562.00    0.54121   0.59049   -1.000
 3563.00    0.55136   0.58210   -1.000
 3564.00    0.55720   0.54721   -1.000
 3565.00    0.52321   0.51702  104.705
 3566.00    0.48597   0.50944   35.685
 3567.00    0.47781   0.51163   36.663
 3568.00    0.48286   0.51183   36.281
 3569.00    0.48900   0.49786   36.446
 3570.00    0.47619   0.48454   37.561
 3571.00    0.46053   0.48795   37.752
 3572.00    0.47400   0.49956   36.416
 3573.00    0.49900   0.51018   45.616
 3574.00    0.51491   0.51499  325.942
 3575.00    0.52365   0.51672  325.942
 3576.00    0.52003   0.52091  325.942
 3577.00    0.52566   0.52133  325.942
 3578.00    0.54228   0.51268   -1.000
 3579.00    0.53146   0.49345   -1.000
 3580.00    0.48788   0.47370   37.209
 3581.00    0.47899   0.46328   39.961
 3582.00    0.46074   0.46456   41.652
 3583.00    0.45763   0.47180   41.879
 3584.00    0.45272   0.46807   42.274
 3585.00    0.44813   0.45595   43.436
 3586.00    0.42712   0.45099   44.667
 3587.00    0.42668   0.45594   44.523
 3588.00    0.45046   0.47189   42.214
 3589.00    0.48399   0.49371   40.017
 3590.00    0.48044   0.51851   37.635
 3591.00    0.49408   0.53726   45.214
 3592.00    0.52394   0.54376   -1.000
 3593.00    0.53078   0.54345   -1.000
 3594.00    0.52744   0.54569   -1.000
 3595.00    0.54886   0.55799  303.753
 3596.00    0.56192   0.57156  292.649
 3597.00    0.56400   0.58228   -1.000
 3598.00    0.55487   0.59244   -1.000
 3599.00    0.57700   0.59767   -1.000
 3600.00    0.57970   0.59365   -1.000
 3601.00    0.59496   0.57717   -1.000
 3602.00    0.59243   0.55528   -1.000
 3603.00    0.56118   0.53643   -1.000
 3604.00    0.53440   0.52892  308.903
 3605.00    0.53949   0.53252  313.312
 3606.00    0.55904   0.53525   -1.000
 3607.00    0.56001   0.53010   -1.000
 3608.00    0.52615   0.51836   -1.000
 3609.00    0.53411   0.51171   -1.000
 3610.00    0.52980   0.52204   -1.000
 3611.00    0.52317   0.53491   -1.000
 3612.00    0.52260   0.54216   -1.000
 3613.00    0.52858   0.54858   -1.000
 3614.00    0.56154   0.55742  299.804
 3615.00    0.60030   0.56790   -1.000
 3616.00    0.61047   0.56446   -1.000
 3617.00    0.60137   0.53343   -1.000
 3618.00    0.56037   0.50836   -1.000
 3619.00    0.52800   0.50943  108.027
 3620.00    0.53892   0.52982   44.548
 3621.00    0.55410   0.55509  319.250
 3622.00    0.56133   0.57329   -1.000
 3623.00    0.58972   0.58172  279.311
 3624.00    0.59647   0.59020  273.537
 3625.00    0.61842   0.60904  268.468
 3626.00    0.65104   0.62928   -1.000
 3627.00    0.64695   0.64312  248.976
 3628.00    0.63799   0.63679  247.409
 3629.00    0.62167   0.60131   -1.000
 3630.00    0.59775   0.55886   -1.000
 3631.00    0.55359   0.53139   -1.000
 3632.00    0.52886   0.53036  324.641
 3633.00    0.54312   0.54555  324.703
 3634.00    0.55998   0.56082  314.102
 3635.00    0.57865   0.56724   -1.000
 3636.00    0.59547   0.56820   -1.000
 3637.00    0.59890   0.58006   -1.000
 3638.00    0.61226   0.59784   -1.000
 3639.00    0.61694   0.61512  259.257
 3640.00    0.62628   0.61993  252.656
 3641.00    0.62928   0.61004   -1.000
 3642.00    0.62783   0.59163   -1.000
 3643.00    0.61569   0.57219   -1.000
 3644.00    0.58337   0.56059   -1.000
 3645.00    0.58419   0.55603   -1.000
 3646.00    0.60161   0.54893   -1.000
 3647.00    0.60774   0.54389   -1.000
 3648.00    0.58202   0.54506   -1.000
 3649.00    0.55636   0.55275  303.771
 3650.00    0.55265   0.56626   -1.000
 3651.00    0.59334   0.58519  281.808
 3652.00    0.62432   0.60256   -1.000
 3653.00    0.64185   0.61529   -1.000
 3654.00    0.62742   0.62156  252.836
 3655.00    0.64575   0.62506   -1.000
 3656.00    0.66832   0.63408   -1.000
 3657.00    0.62967   0.64240   -1.000
 3658.00    0.61697   0.64578   -1.000
 3659.00    0.62750   0.64598   -1.000
 3660.00    0.63183   0.64323  240.053
 3661.00    0.63705   0.63661  240.667
 3662.00    0.63847   0.62772  243.369
 3663.00    0.63366   0.61938   -1.000
 3664.00    0.61680   0.61633  250.057
 3665.00    0.63101   0.61832   -1.000
 3666.00    0.65053   0.62004   -1.000
 3667.00    0.64212   0.61586   -1.000
 3668.00    0.62469   0.60336   -1.000
 3669.00    0.61127   0.59834   -1.000
 3670.00    0.60355   0.60679  262.684
 3671.00    0.60978   0.62283   -1.000
 3672.00    0.64212   0.63497  250.058
 3673.00    0.65145   0.63597   -1.000
 3674.00    0.65706   0.63073   -1.000
 3675.00    0.65550   0.61903   -1.000
 3676.00    0.63301   0.60406   -1.000
 3677.00    0.61327   0.58978   -1.000
 3678.00    0.60282   0.57733   -1.000
 3679.00    0.58743   0.57290   -1.000
 3680.00    0.59097   0.57500   -1.000
 3681.00    0.60797   0.58388   -1.000
 3682.00    0.59568   0.59420  266.411
 3683.00    0.60509   0.59983  259.933
 3684.00    0.61070   0.59572   -1.000
 3685.00    0.59312   0.57545   -1.000
 3686.00    0.59036   0.55628   -1.000
 3687.00    0.60285   0.55280   -1.000
 3688.00    0.59631   0.57023   -1.000
 3689.00    0.62230   0.59806   -1.000
 3690.00    0.65319   0.62293   -1.000
 3691.00    0.65271   0.63177   -1.000
 3692.00    0.66224   0.62909   -1.000
 3693.00    0.68995   0.62607   -1.000
 3694.00    0.66404   0.62349   -1.000
 3695.00    0.66697   0.61877   -1.000
 3696.00    0.65993   0.61400   -1.000
 3697.00    0.64224   0.62080   -1.000
 3698.00    0.64760   0.64072  243.427
 3699.00    0.68900   0.66551   -1.000
 3700.00    0.69928   0.67796   -1.000
 3701.00    0.67226   0.66593  229.170
 3702.00    0.66650   0.62534   -1.000
 3703.00    0.65265   0.57658   -1.000
 3704.00    0.60956   0.53807   -1.000
 3705.00    0.57545   0.52497   -1.000
 3706.00    0.57086   0.53802   -1.000
 3707.00    0.59125   0.55680   -1.000
 3708.00    0.60382   0.57060   -1.000
 3709.00    0.58683   0.57352   -1.000
 3710.00    0.59117   0.57269   -1.000
 3711.00    0.62028   0.57873   -1.000
 3712.00    0.64429   0.60194   -1.000
 3713.00    0.67016   0.63286   -1.000
 3714.00    0.69375   0.66148   -1.000
 3715.00    0.72299   0.67893   -1.000
 3716.00    0.71247   0.67683   -1.000
 3717.00    0.69052   0.65861   -1.000
 3718.00    0.64305   0.62190   -1.000
 3719.00    0.59324   0.55863   -1.000
 3720.00    0.56849   0.50285   -1.000
 3721.00    0.55992   0.48177   -1.000
 3722.00    0.54784   0.49563   44.351
 3723.00    0.57805   0.54061   -1.000
 3724.00    0.61733   0.59707   -1.000
 3725.00    0.64570   0.63206   -1.000
 3726.00    0.67339   0.63531   -1.000
 3727.00    0.67620   0.63702   -1.000
 3728.00    0.63876   0.64469  263.428
 3729.00    0.61860   0.65056   -1.000
 3730.00    0.63698   0.64153  261.109
 3731.00    0.64551   0.60277   -1.000
 3732.00    0.61664   0.54537   -1.000
 3733.00    0.57069   0.48824   -1.000
 3734.00    0.51756   0.44607   35.704
 3735.00    0.51472   0.43895   -1.000
 3736.00    0.52321   0.46762   40.049
 3737.00    0.53948   0.51831   37.593
 3738.00    0.58136   0.57988   43.267
 3739.00    0.64735   0.63651   -1.000
 3740.00    0.67400   0.66563  273.055
 3741.00    0.65676   0.66882  260.547
 3742.00    0.65951   0.65307  261.818
 3743.00    0.67053   0.62536   -1.000
 3744.00    0.63296   0.59861   -1.000
 3745.00    0.57489   0.57590  308.286
 3746.00    0.55069   0.54912  325.540
 3747.00    0.54784   0.51562   -1.000
 3748.00    0.52560   0.47189   35.821
 3749.00    0.50372   0.44669   37.733
 3750.00    0.51496   0.46564   47.171
 3751.00    0.54912   0.51764   -1.000
 3752.00    0.60047   0.57966   -1.000
 3753.00    0.66621   0.63758   -1.000
 3754.00    0.71059   0.67852   -1.000
 3755.00    0.72770   0.69192   -1.000
 3756.00    0.71372   0.67429   -1.000
 3757.00    0.66626   0.63485   -1.000
 3758.00    0.62216   0.60059   -1.000
 3759.00    0.61394   0.59203   -1.000
 3760.00    0.61338   0.60538   -1.000
 3761.00    0.63663   0.62100   -1.000
 3762.00    0.65826   0.63435   -1.000
 3763.00    0.66014   0.64309   -1.000
 3764.00    0.66128   0.64431   -1.000
 3765.00    0.65026   0.63408   -1.000
 3766.00    0.64620   0.61607   -1.000
 3767.00    0.63332   0.59587   -1.000
 3768.00    0.63777   0.57168   -1.000
 3769.00    0.64413   0.54724   -1.000
 3770.00    0.64072   0.53207   -1.000
 3771.00    0.61925   0.54314   -1.000
 3772.00    0.65729   0.58471   -1.000
 3773.00    0.68022   0.62671   -1.000
 3774.00    0.69086   0.65118   -1.000
 3775.00    0.70250   0.66892   -1.000
 3776.00    0.70123   0.68322   -1.000
 3777.00    0.71528   0.70094   -1.000
 3778.00    0.73316   0.72088   -1.000
 3779.00    0.74885   0.73839  234.896
 3780.00    0.75420   0.75294  227.431
 3781.00    0.76422   0.76032  222.989
 3782.00    0.77448   0.76430  221.583
 3783.00    0.75665   0.76297  220.556
 3784.00    0.76873   0.75108   -1.000
 3785.00    0.76367   0.72508   -1.000
 3786.00    0.73812   0.69511   -1.000
 3787.00    0.71163   0.67219   -1.000
 3788.00    0.66687   0.66252  270.003
 3789.00    0.63830   0.66206   -1.000
 3790.00    0.63321   0.66576   -1.000
 3791.00    0.67499   0.66633  267.918
 3792.00    0.69774   0.65329   -1.000
 3793.00    0.69506   0.62983   -1.000
 3794.00    0.64558   0.59822   -1.000
 3795.00    0.63854   0.56243   -1.000
 3796.00    0.64314   0.52499   -1.000
 3797.00    0.60857   0.48452   -1.000
 3798.00    0.57759   0.47160   -1.000
 3799.00    0.57879   0.50835   -1.000
 3800.00    0.61126   0.57030   -1.000
 3801.00    0.66447   0.63399   -1.000
 3802.00    0.68759   0.68288  261.083
 3803.00    0.70307   0.70823  251.022
 3804.00    0.72498   0.71789  246.436
 3805.00    0.72402   0.71155   -1.000
 3806.00    0.68956   0.69691  251.253
 3807.00    0.67813   0.69884   -1.000
 3808.00    0.70603   0.71911   -1.000
 3809.00    0.72229   0.74448   -1.000
 3810.00    0.71131   0.75694   -1.000
 3811.00    0.73566   0.74496  245.063
 3812.00    0.76299   0.71548   -1.000
 3813.00    0.71957   0.67832   -1.000
 3814.00    0.65229   0.64921  282.527
 3815.00    0.64095   0.64170  298.640
 3816.00    0.64161   0.65635   -1.000
 3817.00    0.65959   0.66840  301.064
 3818.00    0.66864   0.66125  292.853
 3819.00    0.63024   0.63514  301.289
 3820.00    0.61763   0.61191  321.841
 3821.00    0.63860   0.61810   -1.000
 3822.00    0.64879   0.63594   -1.000
 3823.00    0.64672   0.63431   -1.000
 3824.00    0.62283   0.61241   -1.000
 3825.00    0.57567   0.58785  127.318
 3826.00    0.58185   0.57474   36.694
 3827.00    0.58647   0.57295   37.244
 3828.00    0.58994   0.57490   36.844
 3829.00    0.58748   0.57149   36.240
 3830.00    0.58311   0.55992   35.858
 3831.00    0.57192   0.53437   36.564
 3832.00    0.56097   0.49934   38.512
 3833.00    0.52010   0.45771   41.260
 3834.00    0.51086   0.42728   -1.000
 3835.00    0.48732   0.42308   40.994
 3836.00    0.48738   0.43774   39.472
 3837.00    0.51289   0.46014   38.967
 3838.00    0.49699   0.48281   39.859
 3839.00    0.51527   0.50833   40.482
 3840.00    0.55214   0.54631   39.384
 3841.00    0.59435   0.59260   45.611
 3842.00    0.64392   0.63701  325.942
 3843.00    0.69784   0.67380   -1.000
 3844.00    0.71600   0.69177   -1.000
 3845.00    0.72098   0.70186   -1.000
 3846.00    0.73098   0.71104   -1.000
 3847.00    0.73952   0.72009   -1.000
 3848.00    0.71676   0.71761  285.079
 3849.00    0.68893   0.71003   -1.000
 3850.00    0.71736   0.70865   -1.000
 3851.00    0.71035   0.71737  305.473
 3852.00    0.69984   0.73081   -1.000
 3853.00    0.70237   0.73213   -1.000
 3854.00    0.68639   0.71712   -1.000
 3855.00    0.67412   0.70074   -1.000
 3856.00    0.67781   0.68642  311.324
 3857.00    0.68118   0.67120   -1.000
 3858.00    0.66436   0.65549  123.166
 3859.00    0.63821   0.64625   35.011
 3860.00    0.61474   0.65923   36.638
 3861.00    0.64150   0.68674   43.442
 3862.00    0.69988   0.71711   -1.000
 3863.00    0.75419   0.72790   -1.000
 3864.00    0.76701   0.72537   -1.000
 3865.00    0.74506   0.72229   -1.000
 3866.00    0.71951   0.71983  284.841
 3867.00    0.72093   0.72238  289.349
 3868.00    0.73023   0.72528  296.198
 3869.00    0.72214   0.71660  308.890
 3870.00    0.67123   0.69628   -1.000
 3871.00    0.63914   0.66878   -1.000
 3872.00    0.64346   0.65422   42.354
 3873.00    0.64611   0.66247   -1.000
 3874.00    0.66906   0.69611   -1.000
 3875.00    0.70782   0.71975  277.571
 3876.00    0.71630   0.71095  271.063
 3877.00    0.69153   0.68423  282.655
 3878.00    0.66528   0.66528  306.023
 3879.00    0.65881   0.66504  322.978
 3880.00    0.67297   0.67182  324.478
 3881.00    0.65531   0.67121   -1.000
 3882.00    0.63283   0.66386   -1.000
 3883.00    0.64849   0.65659  317.870
 3884.00    0.65871   0.64205   -1.000
 3885.00    0.64978   0.60898   -1.000
 3886.00    0.62886   0.55566   -1.000
 3887.00    0.60803   0.50976   -1.000
 3888.00    0.58177   0.48575   -1.000
 3889.00    0.55789   0.49806   -1.000
 3890.00    0.57674   0.54361   -1.000
 3891.00    0.64584   0.60732   -1.000
 3892.00    0.70904   0.65400   -1.000
 3893.00    0.73614   0.67114   -1.000
 3894.00    0.72874   0.67764   -1.000
 3895.00    0.71199   0.68753   -1.000
 3896.00    0.72023   0.70653   -1.000
 3897.00    0.75404   0.72017   -1.000
 3898.00    0.76711   0.72150   -1.000
 3899.00    0.76089   0.72056   -1.000
 3900.00    0.75922   0.72767   -1.000
 3901.00    0.77472   0.73868   -1.000
 3902.00    0.77048   0.74316   -1.000
 3903.00    0.75589   0.73370   -1.000
 3904.00    0.75428   0.71882   -1.000
 3905.00    0.73943   0.71169   -1.000
 3906.00    0.73758   0.71922   -1.000
 3907.00    0.75111   0.74477  249.428
 3908.00    0.78524   0.78015  234.055
 3909.00    0.83392   0.80204   -1.000
 3910.00    0.84971   0.81166   -1.000
 3911.00    0.83616   0.81711   -1.000
 3912.00    0.84519   0.81436   -1.000
 3913.00    0.83016   0.80414   -1.000
 3914.00    0.78709   0.79434  214.380
 3915.00    0.77165   0.78692   -1.000
 3916.00    0.78038   0.78280  223.741
 3917.00    0.77478   0.77618  226.551
 3918.00    0.77097   0.76201  230.250
 3919.00    0.76501   0.74417   -1.000
 3920.00    0.72874   0.72776  248.539
 3921.00    0.72171   0.72288  259.237
 3922.00    0.71650   0.72889  262.955
 3923.00    0.73861   0.73652  259.932
 3924.00    0.75736   0.73474   -1.000
 3925.00    0.74047   0.71787   -1.000
 3926.00    0.70686   0.68852   -1.000
 3927.00    0.66172   0.64641   -1.000
 3928.00    0.56909   0.59939   -1.000
 3929.00    0.49087   0.55375   39.741
 3930.00    0.44010   0.49928   46.584
 3931.00    0.40541   0.44631   54.597
 3932.00    0.34322   0.39073   64.509
 3933.00    0.30688   0.35634   -1.000
 3934.00    0.29422   0.36897   -1.000
 3935.00    0.32422   0.41969   -1.000
 3936.00    0.36086   0.48071   -1.000
 3937.00    0.43591   0.54600   -1.000
 3938.00    0.51765   0.60225   -1.000
 3939.00    0.58719   0.64793   45.004
 3940.00    0.65019   0.68417   -1.000
 3941.00    0.66220   0.70050   -1.000
 3942.00    0.65734   0.70453   -1.000
 3943.00    0.66089   0.70311   -1.000
 3944.00    0.66883   0.70796   -1.000
 3945.00    0.71781   0.72639  276.307
 3946.00    0.76697   0.74611   -1.000
 3947.00    0.77789   0.75490   -1.000
 3948.00    0.78060   0.75964   -1.000
 3949.00    0.78343   0.77002   -1.000
 3950.00    0.78324   0.77841  226.314
 3951.00    0.79473   0.77818   -1.000
 3952.00    0.79527   0.77856   -1.000
 3953.00    0.79231   0.78593  224.039
 3954.00    0.80380   0.79332  219.619
 3955.00    0.81865   0.78603   -1.000
 3956.00    0.80536   0.77067   -1.000
 3957.00    0.78616   0.76620   -1.000
 3958.00    0.80071   0.76916   -1.000
 3959.00    0.78773   0.75764   -1.000
 3960.00    0.75278   0.72330   -1.000
 3961.00    0.70634   0.67454   -1.000
 3962.00    0.65793   0.63661   -1.000
 3963.00    0.60955   0.60970  322.531
 3964.00    0.58715   0.57511  138.350
 3965.00    0.52917   0.52456   37.353
 3966.00    0.44764   0.44384   44.206
 3967.00    0.37854   0.36673   54.525
 3968.00    0.32784   0.31975   65.654
 3969.00    0.31685   0.31533   70.276
 3970.00    0.33913   0.35228   63.625
 3971.00    0.42566   0.42116   52.337
 3972.00    0.51524   0.49505   43.156
 3973.00    0.57614   0.56643   43.982
 3974.00    0.64640   0.63141   -1.000
 3975.00    0.70877   0.68315   -1.000
 3976.00    0.74434   0.72875   -1.000
 3977.00    0.77308   0.76287  233.870
 3978.00    0.80186   0.79802  220.449
 3979.00    0.83600   0.82532  208.854
 3980.00    0.86915   0.83574   -1.000
 3981.00    0.86394   0.83212   -1.000
 3982.00    0.84596   0.82518   -1.000
 3983.00    0.85071   0.82978   -1.000
 3984.00    0.87235   0.84395   -1.000
 3985.00    0.87921   0.85533   -1.000
 3986.00    0.88213   0.86437   -1.000
 3987.00    0.89824   0.87450   -1.000
 3988.00    0.91102   0.88668   -1.000
 3989.00    0.91318   0.89413   -1.000
 3990.00    0.93910   0.89905   -1.000
 3991.00    0.95580   0.90806   -1.000
 3992.00    0.95954   0.91960   -1.000
 3993.00    0.96849   0.92299   -1.000
 3994.00    0.95324   0.91397   -1.000
 3995.00    0.92770   0.89668   -1.000
 3996.00    0.90682   0.87979   -1.000
 3997.00    0.89699   0.87485   -1.000
 3998.00    0.91123   0.88579   -1.000
 3999.00    0.92604   0.90326   -1.000
 4000.00    0.94413   0.92451   -1.000
 4001.00    0.96914   0.93854   -1.000
 4002.00    0.99029   0.93888   -1.000
 4003.00    0.98991   0.92235   -1.000
 4004.00    0.94490   0.89272   -1.000
 4005.00    0.90331   0.86276   -1.000
 4006.00    0.90223   0.86625   -1.000
 4007.00    0.94510   0.89603   -1.000
 4008.00    0.97465   0.92693   -1.000
 4009.00    0.99323   0.94488   -1.000
 4010.00    0.99422   0.95112   -1.000
 4011.00    0.99417   0.95287   -1.000
 4012.00    0.98308   0.95332   -1.000
 4013.00    0.96792   0.95649  168.546
 4014.00    0.95139   0.96100  169.088
 4015.00    1.01350   0.96260   -1.000
 4016.00    1.00750   0.96269   -1.000
 4017.00    0.98883   0.96331   -1.000
 4018.00    1.00596   0.97069   -1.000
 4019.00    1.02579   0.97830   -1.000
 4020.00    1.01440   0.98256   -1.000
 4021.00    0.99821   0.97882   -1.000
 4022.00    1.00318   0.97235   -1.000
 4023.00    0.99439   0.96229   -1.000
 4024.00    0.97525   0.95102   -1.000
 4025.00    0.98623   0.95218   -1.000
 4026.00    1.01157   0.96956   -1.000
 4027.00    1.02699   0.99067   -1.000
 4028.00    1.03112   0.98941   -1.000
 4029.00    1.01804   0.96270   -1.000
 4030.00    0.96159   0.92899   -1.000
 4031.00    0.91435   0.90036  179.513
 4032.00    0.91410   0.89070   -1.000
 4033.00    0.96798   0.89586   -1.000
 4034.00    0.97036   0.91629   -1.000
 4035.00    0.97639   0.94628   -1.000
 4036.00    1.00000   0.98598  168.717
 4037.00    1.06922   1.02203   -1.000
 4038.00    1.09534   1.03512   -1.000
 4039.00    1.06225   1.02193   -1.000
 4040.00    1.01433   1.00802  159.691
 4041.00    1.02031   1.00205  163.198
 4042.00    1.03157   0.99162   -1.000
 4043.00    1.02101   0.96056   -1.000
 4044.00    0.97188   0.90197   -1.000
 4045.00    0.91138   0.86787   -1.000
 4046.00    0.88369   0.87996  204.326
 4047.00    0.94039   0.92398   -1.000
 4048.00    1.01616   0.97405   -1.000
 4049.00    1.04843   1.00624   -1.000
 4050.00    1.04283   1.01844   -1.000
 4051.00    1.04589   1.01581   -1.000
 4052.00    1.04505   1.00191   -1.000
 4053.00    1.01648   0.98180   -1.000
 4054.00    0.99451   0.97225   -1.000
 4055.00    0.99702   0.96992   -1.000
 4056.00    0.99579   0.96372   -1.000
 4057.00    0.99686   0.96110   -1.000
 4058.00    0.99692   0.96939   -1.000
 4059.00    1.00573   0.98928  173.958
 4060.00    1.03348   1.00069   -1.000
 4061.00    1.03021   0.97944   -1.000
 4062.00    1.00273   0.94167   -1.000
 4063.00    0.94057   0.90494   -1.000
 4064.00    0.93281   0.89282   -1.000
 4065.00    0.94209   0.90164   -1.000
 4066.00    0.96725   0.92201   -1.000
 4067.00    0.98852   0.94409   -1.000
 4068.00    1.02168   0.96613   -1.000
 4069.00    1.01862   0.97141   -1.000
 4070.00    1.01108   0.95029   -1.000
 4071.00    0.98648   0.92434   -1.000
 4072.00    0.97390   0.92013   -1.000
 4073.00    1.00470   0.93928   -1.000
 4074.00    1.00575   0.94919   -1.000
 4075.00    0.96546   0.92925   -1.000
 4076.00    0.92765   0.89683   -1.000
 4077.00    0.88254   0.87598  194.450
 4078.00    0.88354   0.88799  198.090
 4079.00    0.94925   0.92536   -1.000
 4080.00    0.99365   0.97206   -1.000
 4081.00    1.02392   0.99332   -1.000
 4082.00    1.03013   0.98666   -1.000
 4083.00    1.00252   0.96536   -1.000
 4084.00    1.00203   0.95157   -1.000
 4085.00    0.98590   0.95991   -1.000
 4086.00    1.02059   0.98303   -1.000
 4087.00    1.08147   1.01245   -1.000
 4088.00    1.10672   1.02909   -1.000
 4089.00    1.09575   1.02823   -1.000
 4090.00    1.08162   1.01375   -1.000
 4091.00    1.05932   1.00140   -1.000
 4092.00    1.04972   0.99535   -1.000
 4093.00    1.05021   0.98615   -1.000
 4094.00    1.03250   0.96934   -1.000
 4095.00    0.99741   0.93883   -1.000
 4096.00    0.99091   0.90746   -1.000
 4097.00    0.98270   0.87733   -1.000
 4098.00    0.93803   0.84022   -1.000
 4099.00    0.89811   0.78521   -1.000
 4100.00    0.85862   0.71292   -1.000
 4101.00    0.77179   0.66357   -1.000
 4102.00    0.75213   0.67056   -1.000
 4103.00    0.81573   0.72906   -1.000
 4104.00    0.89540   0.81421   -1.000
 4105.00    0.94692   0.88010   -1.000
 4106.00    0.98267   0.91527   -1.000
 4107.00    0.98092   0.93675   -1.000
 4108.00    0.98083   0.94414   -1.000
 4109.00    0.97746   0.94519   -1.000
 4110.00    0.98479   0.95126   -1.000
 4111.00    1.00863   0.96207   -1.000
 4112.00    1.01228   0.97672   -1.000
 4113.00    1.03345   0.99205   -1.000
 4114.00    1.03771   1.01225   -1.000
 4115.00    1.04707   1.02491   -1.000
 4116.00    1.04254   1.02503  164.200
 4117.00    1.04499   1.01317   -1.000
 4118.00    1.02275   0.99883   -1.000
 4119.00    0.98832   0.98952  174.698
 4120.00    0.99326   0.99053  176.000
 4121.00    1.00935   0.99646  173.717
 4122.00    1.01377   1.00068  172.216
 4123.00    1.00467   1.00763  172.160
 4124.00    1.06342   1.01939   -1.000
 4125.00    1.09390   1.02808   -1.000
 4126.00    1.05069   1.02158   -1.000
 4127.00    1.01293   1.00667  169.814
 4128.00    1.01592   0.99608   -1.000
 4129.00    1.01571   0.99432   -1.000
 4130.00    1.00354   0.98730  175.551
 4131.00    0.98704   0.96750   -1.000
 4132.00    1.00072   0.94999   -1.000
 4133.00    0.99183   0.95077   -1.000
 4134.00    0.98969   0.97573  188.465
 4135.00    0.99778   1.00907  181.544
 4136.00    1.03235   1.04192  172.717
 4137.00    1.06310   1.06129  167.595
 4138.00    1.09766   1.07575   -1.000
 4139.00    1.11793   1.08225   -1.000
 4140.00    1.10133   1.06899   -1.000
 4141.00    1.06823   1.03065   -1.000
 4142.00    1.01822   0.98733   -1.000
 4143.00    0.97357   0.95464   -1.000
 4144.00    0.95677   0.96128  198.472
 4145.00    0.99019   0.99897  189.978
 4146.00    1.02825   1.03152  179.000
 4147.00    1.05345   1.04336  173.124
 4148.00    1.06755   1.03713   -1.000
 4149.00    1.03345   1.03258  175.844
 4150.00    1.03351   1.03746  180.470
 4151.00    1.02880   1.04122  182.127
 4152.00    1.03622   1.03568  180.722
 4153.00    1.01542   1.02069  180.068
 4154.00    0.98343   1.00807   -1.000
 4155.00    0.99172   1.00889   -1.000
 4156.00    1.04075   1.02099   -1.000
 4157.00    1.04644   1.03650  178.683
 4158.00    1.13200   1.05461   -1.000
 4159.00    1.35787   1.06913   -1.000
 4160.00    1.29766   1.07664   -1.000
 4161.00    0.79795   1.08177   -1.000
 4162.00    0.90530   1.08903   -1.000
 4163.00    1.15032   1.09580   -1.000
 4164.00    1.11411   1.09714  167.628
 4165.00    1.08137   1.08763  170.435
 4166.00    1.06806   1.07149  173.142
 4167.00    1.04798   1.05827  176.945
 4168.00    1.03924   1.05733   -1.000
 4169.00    1.05745   1.05832  177.321
 4170.00    1.05135   1.03887  174.824
 4171.00    1.04111   1.00409   -1.000
 4172.00    1.01162   0.96752   -1.000
 4173.00    0.96289   0.96042  199.068
 4174.00    0.96829   0.98399   -1.000
 4175.00    0.99864   1.01316  190.783
 4176.00    1.03331   1.02427  184.775
 4177.00    1.02588   1.02545  185.009
 4178.00    1.02093   1.03343  185.901
 4179.00    1.03467   1.04970   -1.000
 4180.00    1.05633   1.05600  181.906
 4181.00    1.05465   1.04859  180.446
 4182.00    1.06415   1.04129   -1.000
 4183.00    1.05521   1.04767  178.132
 4184.00    1.03767   1.06069   -1.000
 4185.00    1.03392   1.05927   -1.000
 4186.00    1.02465   1.04399   -1.000
 4187.00    1.02300   1.02885  178.981
 4188.00    1.01514   1.02808  183.191
 4189.00    1.03221   1.03953  180.986
 4190.00    1.05282   1.04988  177.167
 4191.00    1.06808   1.06119  176.033
 4192.00    1.07045   1.07696  173.435
 4193.00    1.08107   1.08609  169.800
 4194.00    1.07074   1.07765  168.520
 4195.00    1.02934   1.05316   -1.000
 4196.00    0.99716   1.02201   -1.000
 4197.00    0.98926   0.99817  188.764
 4198.00    0.97509   0.98231  191.606
 4199.00    0.98920   0.97492  191.582
 4200.00    1.01048   0.97817   -1.000
 4201.00    1.00224   0.98692  186.493
 4202.00    1.00881   0.99678  185.999
 4203.00    1.02523   1.01288  184.541
 4204.00    1.02772   1.03508  181.758
 4205.00    1.03139   1.05761   -1.000
 4206.00    1.06492   1.08010  176.488
 4207.00    1.07110   1.09592   -1.000
 4208.00    1.08265   1.09991   -1.000
 4209.00    1.08734   1.09525  168.617
 4210.00    1.07069   1.09205   -1.000
 4211.00    1.09044   1.09959  168.736
 4212.00    1.09740   1.10691  167.782
 4213.00    1.08419   1.09572  169.414
 4214.00    1.04678   1.06654   -1.000
 4215.00    1.01907   1.04051   -1.000
 4216.00    0.99375   1.03387   -1.000
 4217.00    1.01647   1.05423   -1.000
 4218.00    1.06145   1.09023   -1.000
 4219.00    1.09730   1.11414  161.033
 4220.00    1.10117   1.12247   -1.000
 4221.00    1.09564   1.11302  155.797
 4222.00    1.07771   1.08235  157.941
 4223.00    1.04657   1.02648   -1.000
 4224.00    0.99070   0.96049   -1.000
 4225.00    0.91417   0.89803   -1.000
 4226.00    0.84701   0.86950   -1.000
 4227.00    0.85435   0.89446   -1.000
 4228.00    0.93969   0.97275   -1.000
 4229.00    1.02150   1.03997   -1.000
 4230.00    1.07918   1.07381  170.283
 4231.00    1.09692   1.07452   -1.000
 4232.00    1.08283   1.05765   -1.000
 4233.00    1.04820   1.04226  166.215
 4234.00    1.06206   1.03439   -1.000
 4235.00    1.03822   1.02988  172.131
 4236.00    1.02811   1.02824  176.195
 4237.00    1.04723   1.03277  178.798
 4238.00    1.06132   1.04906  176.916
 4239.00    1.04593   1.06724   -1.000
 4240.00    1.04188   1.08334   -1.000
 4241.00    1.06322   1.09254   -1.000
 4242.00    1.08608   1.10047  165.119
 4243.00    1.09642   1.11211  164.205
 4244.00    1.11442   1.12288  161.197
 4245.00    1.12668   1.11886  158.365
 4246.00    1.09596   1.09417  160.917
 4247.00    1.03617   1.06199   -1.000
 4248.00    1.02218   1.04186   -1.000
 4249.00    1.03497   1.03618  178.645
 4250.00    1.04223   1.04651  179.926
 4251.00    1.05919   1.06072  179.031
 4252.00    1.08380   1.07294  173.647
 4253.00    1.07124   1.06459  169.448
 4254.00    1.05955   1.04735  171.112
 4255.00    1.06662   1.05450  175.169
 4256.00    1.08064   1.07807  172.013
 4257.00    1.08671   1.08864  165.680
 4258.00    1.06404   1.06952  165.451
 4259.00    1.02728   1.03324  172.522
 4260.00    0.99432   1.01872   -1.000
 4261.00    1.00252   1.03892   -1.000
 4262.00    1.06883   1.08659   -1.000
 4263.00    1.11022   1.12620  165.857
 4264.00    1.12807   1.14885   -1.000
 4265.00    1.14667   1.15043  155.432
 4266.00    1.15173   1.14097  155.534
 4267.00    1.12049   1.12457  158.522
 4268.00    1.07966   1.09935   -1.000
 4269.00    1.07267   1.06016  168.996
 4270.00    1.02793   1.01864  176.101
 4271.00    0.97519   0.98156  187.947
 4272.00    0.95291   0.96739  198.440
 4273.00    0.96101   0.97712   -1.000
 4274.00    0.97417   0.99773   -1.000
 4275.00    0.99654   1.02859   -1.000
 4276.00    1.06330   1.07615  179.981
 4277.00    1.10374   1.11474  168.487
 4278.00    1.09849   1.12588   -1.000
 4279.00    1.07853   1.10908   -1.000
 4280.00    1.05456   1.09075   -1.000
 4281.00    1.05238   1.08343   -1.000
 4282.00    1.05668   1.08956   -1.000
 4283.00    1.06659   1.09003   -1.000
 4284.00    1.06911   1.07973  171.685
 4285.00    1.03807   1.06904   -1.000
 4286.00    1.01520   1.05348   -1.000
 4287.00    0.99451   1.03583   -1.000
 4288.00    0.96562   1.00808   -1.000
 4289.00    0.92982   0.97570   -1.000
 4290.00    0.92290   0.96799   -1.000
 4291.00    0.95681   0.99611   -1.000
 4292.00    1.00294   1.03122   -1.000
 4293.00    1.03829   1.05083  179.829
 4294.00    1.03751   1.04441  177.350
 4295.00    1.02123   1.02873  179.373
 4296.00    1.01048   1.00632  182.526
 4297.00    0.98093   0.97646  187.297
 4298.00    0.92624   0.92928  197.781
 4299.00    0.86922   0.88918   -1.000
 4300.00    0.81895   0.86950   -1.000
 4301.00    0.81686   0.87151   -1.000
 4302.00    0.84221   0.88220   -1.000
 4303.00    0.86454   0.89977   -1.000
 4304.00    0.89567   0.91973   -1.000
 4305.00    0.90679   0.92507   -1.000
 4306.00    0.88231   0.90575   -1.000
 4307.00    0.85958   0.87605   -1.000
 4308.00    0.82961   0.85697   -1.000
 4309.00    0.81476   0.86818   -1.000
 4310.00    0.86718   0.90396   -1.000
 4311.00    0.90501   0.93964   -1.000
 4312.00    0.92869   0.96980   -1.000
 4313.00    0.98221   1.01033   -1.000
 4314.00    1.02814   1.06135   -1.000
 4315.00    1.06477   1.13281   -1.000
 4316.00    1.15800   1.19361   -1.000
 4317.00    1.21347   1.22989  150.484
 4318.00    1.21168   1.23395   -1.000
 4319.00    1.20924   1.22055  146.510
 4320.00    1.19466   1.20069  149.034
 4321.00    1.16324   1.16954  152.649
 4322.00    1.10963   1.11913  158.173
 4323.00    1.04998   1.05617  166.514
 4324.00    0.99944   1.00160  179.357
 4325.00    0.96227   0.98568   -1.000
 4326.00    0.98030   1.01905   -1.000
 4327.00    1.07001   1.09522   -1.000
 4328.00    1.15146   1.15333  165.801
 4329.00    1.17372   1.17885  155.094
 4330.00    1.15510   1.17883   -1.000
 4331.00    1.15271   1.17755   -1.000
 4332.00    1.16755   1.18603   -1.000
 4333.00    1.15845   1.18962   -1.000
 4334.00    1.15918   1.18120   -1.000
 4335.00    1.17103   1.14708   -1.000
 4336.00    1.12557   1.07950   -1.000
 4337.00    1.06199   0.97604   -1.000
 4338.00    0.99682   0.87952   -1.000
 4339.00    0.89780   0.81137   -1.000
 4340.00    0.84595   0.79977   -1.000
 4341.00    0.86638   0.85219  212.288
 4342.00    0.94976   0.94737  195.015
 4343.00    1.02260   1.02617  176.249
 4344.00    1.09218   1.07964  166.306
 4345.00    1.13486   1.11922  161.393
 4346.00    1.15982   1.15216  157.197
 4347.00    1.17186   1.18302  154.726
 4348.00    1.18491   1.20223  153.061
 4349.00    1.16278   1.19358   -1.000
 4350.00    1.12824   1.15201   -1.000
 4351.00    1.08540   1.10384   -1.000
 4352.00    1.03939   1.08980   -1.000
 4353.00    1.08453   1.11338   -1.000
 4354.00    1.14798   1.15923  165.918
 4355.00    1.16436   1.19245   -1.000
 4356.00    1.19392   1.20870  154.003
 4357.00    1.22233   1.21325  151.198
 4358.00    1.19238   1.21039   -1.000
 4359.00    1.16295   1.20895   -1.000
 4360.00    1.15286   1.21976   -1.000
 4361.00    1.18871   1.24117   -1.000
 4362.00    1.23910   1.25655  148.504
 4363.00    1.24077   1.26690   -1.000
 4364.00    1.24709   1.27669   -1.000
 4365.00    1.24507   1.27484   -1.000
 4366.00    1.23378   1.25177  145.318
 4367.00    1.17994   1.22619   -1.000
 4368.00    1.17279   1.20968   -1.000
 4369.00    1.17559   1.20141   -1.000
 4370.00    1.18726   1.19669  154.895
 4371.00    1.18702   1.18950  154.060
 4372.00    1.18303   1.17317  154.129
 4373.00    1.16179   1.14512  156.212
 4374.00    1.12429   1.11974  162.930
 4375.00    1.11584   1.11850  168.804
 4376.00    1.13665   1.15151  167.826
 4377.00    1.19792   1.18861  160.329
 4378.00    1.22529   1.21301  152.675
 4379.00    1.19129   1.21432   -1.000
 4380.00    1.19185   1.19219  151.886
 4381.00    1.18574   1.13680   -1.000
 4382.00    1.11210   1.06101   -1.000
 4383.00    1.00941   0.98881   -1.000
 4384.00    0.96525   0.97724  201.639
 4385.00    1.04251   1.03159  200.463
 4386.00    1.11576   1.09707   -1.000
 4387.00    1.16871   1.13637   -1.000
 4388.00    1.13840   1.14563  160.522
 4389.00    1.13920   1.14715  161.076
 4390.00    1.14650   1.15116  162.825
 4391.00    1.16411   1.16422  162.921
 4392.00    1.19838   1.18220  159.483
 4393.00    1.19931   1.18314  156.275
 4394.00    1.18075   1.17438  157.850
 4395.00    1.16846   1.18171  161.163
 4396.00    1.18663   1.20961   -1.000
 4397.00    1.22364   1.23239  152.157
 4398.00    1.23472   1.22501  148.486
 4399.00    1.19302   1.20278  151.281
 4400.00    1.17157   1.18748  157.035
 4401.00    1.17768   1.18890  161.042
 4402.00    1.20560   1.19017  158.642
 4403.00    1.18835   1.16665   -1.000
 4404.00    1.13297   1.13252  162.834
 4405.00    1.09501   1.12030   -1.000
 4406.00    1.12416   1.13371  172.148
 4407.00    1.16803   1.15692  166.208
 4408.00    1.17308   1.17596  164.099
 4409.00    1.19147   1.20777   -1.000
 4410.00    1.22407   1.25507   -1.000
 4411.00    1.24254   1.28741   -1.000
 4412.00    1.27195   1.28767  144.374
 4413.00    1.27537   1.25901  143.344
 4414.00    1.20447   1.20940  147.961
 4415.00    1.14884   1.16790   -1.000
 4416.00    1.15741   1.16595  161.449
 4417.00    1.17985   1.20537   -1.000
 4418.00    1.21109   1.25503   -1.000
 4419.00    1.25075   1.30046   -1.000
 4420.00    1.26930   1.31088   -1.000
 4421.00    1.25027   1.29246   -1.000
 4422.00    1.21299   1.27147   -1.000
 4423.00    1.21256   1.26325   -1.000
 4424.00    1.22750   1.26550   -1.000
 4425.00    1.21771   1.26366   -1.000
 4426.00    1.20677   1.25531   -1.000
 4427.00    1.18874   1.25798   -1.000
 4428.00    1.18942   1.26578   -1.000
 4429.00    1.20340   1.27342   -1.000
 4430.00    1.20369   1.27949   -1.000
 4431.00    1.21482   1.28149   -1.000
 4432.00    1.23198   1.27693   -1.000
 4433.00    1.20868   1.25574   -1.000
 4434.00    1.16259   1.22145   -1.000
 4435.00    1.13235   1.20782   -1.000
 4436.00    1.15391   1.23565   -1.000
 4437.00    1.22483   1.28812   -1.000
 4438.00    1.26548   1.33155   -1.000
 4439.00    1.29361   1.34343   -1.000
 4440.00    1.29011   1.32207   -1.000
 4441.00    1.24228   1.27511   -1.000
 4442.00    1.20700   1.23965   -1.000
 4443.00    1.18204   1.23683   -1.000
 4444.00    1.19938   1.27329   -1.000
 4445.00    1.25708   1.31925   -1.000
 4446.00    1.29431   1.34715   -1.000
 4447.00    1.28787   1.35218   -1.000
 4448.00    1.28921   1.34827   -1.000
 4449.00    1.29468   1.34478   -1.000
 4450.00    1.26448   1.34056   -1.000
 4451.00    1.24528   1.33401   -1.000
 4452.00    1.27125   1.31913   -1.000
 4453.00    1.25857   1.27966   -1.000
 4454.00    1.21403   1.23386   -1.000
 4455.00    1.18006   1.20746   -1.000
 4456.00    1.20063   1.21233  162.270
 4457.00    1.24254   1.23221  159.127
 4458.00    1.22401   1.24564   -1.000
 4459.00    1.22336   1.24947   -1.000
 4460.00    1.21748   1.25182   -1.000
 4461.00    1.21792   1.25794   -1.000
 4462.00    1.22734   1.27193   -1.000
 4463.00    1.26636   1.29682   -1.000
 4464.00    1.29573   1.31835   -1.000
 4465.00    1.29476   1.32857   -1.000
 4466.00    1.30085   1.32302   -1.000
 4467.00    1.26792   1.30781   -1.000
 4468.00    1.23927   1.29203   -1.000
 4469.00    1.23224   1.28751   -1.000
 4470.00    1.23732   1.30249   -1.000
 4471.00    1.26897   1.33216   -1.000
 4472.00    1.31176   1.36706   -1.000
 4473.00    1.34171   1.39637   -1.000
 4474.00    1.35182   1.41025   -1.000
 4475.00    1.37274   1.41246   -1.000
 4476.00    1.36832   1.41309   -1.000
 4477.00    1.38859   1.41566   -1.000
 4478.00    1.38982   1.40627  134.434
 4479.00    1.34789   1.37648   -1.000
 4480.00    1.30049   1.32861   -1.000
 4481.00    1.27762   1.29864   -1.000
 4482.00    1.29902   1.30643  151.396
 4483.00    1.31557   1.33999   -1.000
 4484.00    1.35070   1.38747   -1.000
 4485.00    1.39037   1.42336   -1.000
 4486.00    1.40701   1.43245   -1.000
 4487.00    1.38032   1.41231   -1.000
 4488.00    1.33614   1.38336   -1.000
 4489.00    1.29673   1.35931   -1.000
 4490.00    1.30060   1.35797   -1.000
 4491.00    1.33311   1.37540   -1.000
 4492.00    1.34701   1.39514   -1.000
 4493.00    1.35505   1.39829   -1.000
 4494.00    1.33538   1.37995   -1.000
 4495.00    1.30788   1.37043   -1.000
 4496.00    1.30619   1.37827   -1.000
 4497.00    1.32074   1.39528   -1.000
 4498.00    1.35884   1.41060   -1.000
 4499.00    1.38220   1.41810   -1.000
 4500.00    1.36320   1.41394   -1.000
 4501.00    1.35743   1.41424   -1.000
 4502.00    1.37614   1.43577   -1.000
 4503.00    1.40599   1.46640   -1.000
 4504.00    1.42692   1.49428   -1.000
 4505.00    1.41746   1.50433   -1.000
 4506.00    1.40871   1.49795   -1.000
 4507.00    1.40315   1.48246   -1.000
 4508.00    1.41021   1.47346   -1.000
 4509.00    1.43130   1.47660   -1.000
 4510.00    1.43195   1.48296   -1.000
 4511.00    1.42937   1.48168   -1.000
 4512.00    1.41078   1.46856   -1.000
 4513.00    1.39128   1.45273   -1.000
 4514.00    1.39322   1.43936   -1.000
 4515.00    1.39439   1.43169   -1.000
 4516.00    1.40781   1.43411   -1.000
 4517.00    1.39755   1.43464   -1.000
 4518.00    1.38338   1.42750   -1.000
 4519.00    1.37716   1.42716   -1.000
 4520.00    1.40049   1.43549   -1.000
 4521.00    1.40911   1.44263   -1.000
 4522.00    1.36996   1.43765   -1.000
 4523.00    1.34513   1.42187   -1.000
 4524.00    1.35166   1.40679   -1.000
 4525.00    1.35019   1.39151   -1.000
 4526.00    1.32032   1.36697   -1.000
 4527.00    1.28633   1.33453   -1.000
 4528.00    1.26415   1.30698   -1.000
 4529.00    1.27790   1.30301   -1.000
 4530.00    1.30390   1.31767  154.183
 4531.00    1.32929   1.33876  151.366
 4532.00    1.32604   1.34232  148.714
 4533.00    1.30371   1.32390   -1.000
 4534.00    1.26656   1.30496   -1.000
 4535.00    1.24999   1.30877   -1.000
 4536.00    1.32518   1.34854   -1.000
 4537.00    1.40574   1.40698  145.580
 4538.00    1.46315   1.45590  137.247
 4539.00    1.43941   1.46910   -1.000
 4540.00    1.41064   1.45603   -1.000
 4541.00    1.42215   1.44099   -1.000
 4542.00    1.41602   1.44060   -1.000
 4543.00    1.40571   1.44729   -1.000
 4544.00    1.38523   1.44388   -1.000
 4545.00    1.38682   1.43209   -1.000
 4546.00    1.38648   1.42381   64.017
 4547.00    1.21154   1.41455   -1.000
 4548.00    0.33356   1.39521   -1.000
 4549.00    0.04010   1.37457   -1.000
 4550.00    0.20055   1.37544   -1.000
 4551.00    0.97649   1.39964   -1.000
 4552.00    0.51907   1.41625   -1.000
 4553.00    0.96882   1.40849   -1.000
 4554.00    1.34643   1.39249   -1.000
 4555.00    1.33498   1.38679   -1.000
 4556.00    1.36493   1.40756   -1.000
 4557.00    1.41986   1.44918   -1.000
 4558.00    1.46255   1.48419   -1.000
 4559.00    1.47103   1.50534   -1.000
 4560.00    1.45651   1.51661   -1.000
 4561.00    1.45606   1.51882   -1.000
 4562.00    1.43391   1.50766   -1.000
 4563.00    1.41910   1.48352   -1.000
 4564.00    1.39262   1.45906   -1.000
 4565.00    1.38514   1.45140   -1.000
 4566.00    1.42455   1.46637   -1.000
 4567.00    1.47541   1.49675   -1.000
 4568.00    1.50485   1.51774  132.443
 4569.00    1.49643   1.51878   -1.000
 4570.00    1.46351   1.49760   -1.000
 4571.00    1.40300   1.46873   -1.000
 4572.00    1.38987   1.45621   -1.000
 4573.00    1.42748   1.47485   -1.000
 4574.00    1.46372   1.50412   -1.000
 4575.00    1.47138   1.51743   -1.000
 4576.00    1.45643   1.51767   -1.000
 4577.00    1.46086   1.51181   -1.000
 4578.00    1.46013   1.49746   -1.000
 4579.00    1.44106   1.46976   -1.000
 4580.00    1.41120   1.44146   -1.000
 4581.00    1.40128   1.42274   -1.000
 4582.00    1.41412   1.41959  142.932
 4583.00    1.42240   1.42568  140.865
 4584.00    1.42510   1.43559  139.952
 4585.00    1.42533   1.44062  140.475
 4586.00    1.43025   1.44905   -1.000
 4587.00    1.44891   1.46508  139.053
 4588.00    1.47507   1.48723  135.331
 4589.00    1.49685   1.50361  132.618
 4590.00    1.48320   1.50370   -1.000
 4591.00    1.44416   1.48947   -1.000
 4592.00    1.39819   1.47215   -1.000
 4593.00    1.40524   1.46654   -1.000
 4594.00    1.42552   1.47480   -1.000
 4595.00    1.42961   1.48549   -1.000
 4596.00    1.43636   1.49504   -1.000
 4597.00    1.46063   1.50315   -1.000
 4598.00    1.48569   1.50673   -1.000
 4599.00    1.48060   1.50051   -1.000
 4600.00    1.45355   1.48964   -1.000
 4601.00    1.42151   1.48005   -1.000
 4602.00    1.39926   1.47914   -1.000
 4603.00    1.42527   1.48426   -1.000
 4604.00    1.45377   1.49143   -1.000
 4605.00    1.47099   1.49906   -1.000
 4606.00    1.47624   1.50826   -1.000
 4607.00    1.49213   1.52283   -1.000
 4608.00    1.52734   1.54192  131.733
 4609.00    1.54130   1.56200   -1.000
 4610.00    1.54826   1.56968   -1.000
 4611.00    1.53304   1.55757   -1.000
 4612.00    1.51188   1.54600   -1.000
 4613.00    1.50374   1.53904   -1.000
 4614.00    1.48090   1.54001   -1.000
 4615.00    1.48256   1.54351   -1.000
 4616.00    1.52074   1.54224   -1.000
 4617.00    1.51703   1.53618  129.942
 4618.00    1.50594   1.52952   -1.000
 4619.00    1.51208   1.52827  131.835
 4620.00    1.53523   1.53733  131.600
 4621.00    1.52348   1.55637   -1.000
 4622.00    1.53405   1.57231   -1.000
 4623.00    1.55854   1.57388  128.293
 4624.00    1.55441   1.56854  128.632
 4625.00    1.53536   1.56449   -1.000
 4626.00    1.50859   1.55749   -1.000
 4627.00    1.51363   1.55369   -1.000
 4628.00    1.49450   1.55154   -1.000
 4629.00    1.47433   1.55036   -1.000
 4630.00    1.47394   1.55280   -1.000
 4631.00    1.52634   1.56360   -1.000
 4632.00    1.54726   1.57263   -1.000
 4633.00    1.53044   1.56500   -1.000
 4634.00    1.52280   1.55073   -1.000
 4635.00    1.51388   1.54243   -1.000
 4636.00    1.49483   1.53958   -1.000
 4637.00    1.49527   1.53444   -1.000
 4638.00    1.48991   1.53052   -1.000
 4639.00    1.46850   1.53139   -1.000
 4640.00    1.48131   1.54312   -1.000
 4641.00    1.52851   1.56278   -1.000
 4642.00    1.55546   1.58157   -1.000
 4643.00    1.55278   1.58424   -1.000
 4644.00    1.54125   1.56799   -1.000
 4645.00    1.49570   1.54374   -1.000
 4646.00    1.45972   1.51291   -1.000
 4647.00    1.45082   1.48988   -1.000
 4648.00    1.47455   1.49348   -1.000
 4649.00    1.51271   1.51726  137.193
 4650.00    1.51542   1.54539   -1.000
 4651.00    1.51615   1.56070   -1.000
 4652.00    1.51582   1.56134   -1.000
 4653.00    1.50187   1.55622   -1.000
 4654.00    1.49689   1.54385   -1.000
 4655.00    1.48772   1.53127   -1.000
 4656.00    1.48273   1.53015   -1.000
 4657.00    1.49968   1.55105   -1.000
 4658.00    1.53967   1.59002   -1.000
 4659.00    1.59398   1.63042   -1.000
 4660.00    1.62883   1.64672  124.459
 4661.00    1.59303   1.63881   -1.000
 4662.00    1.55488   1.61694   -1.000
 4663.00    1.52522   1.59352   -1.000
 4664.00    1.51474   1.57121   -1.000
 4665.00    1.52833   1.54599  132.090
 4666.00    1.48366   1.50878   -1.000
 4667.00    1.43638   1.47129   -1.000
 4668.00    1.40905   1.45624   -1.000
 4669.00    1.42495   1.47541   -1.000
 4670.00    1.45199   1.51398   -1.000
 4671.00    1.51152   1.55263   -1.000
 4672.00    1.53316   1.57414   -1.000
 4673.00    1.53268   1.58139   -1.000
 4674.00    1.51977   1.58508   -1.000
 4675.00    1.54067   1.59690   -1.000
 4676.00    1.58037   1.61006   -1.000
 4677.00    1.58080   1.60454   -1.000
 4678.00    1.56925   1.58182  128.164
 4679.00    1.52790   1.55486   -1.000
 4680.00    1.51238   1.53770   -1.000
 4681.00    1.50219   1.53276   -1.000
 4682.00    1.50338   1.53519   -1.000
 4683.00    1.53606   1.54706  135.051
 4684.00    1.54545   1.56118  131.571
 4685.00    1.55122   1.57023  130.002
 4686.00    1.56513   1.57361  130.570
 4687.00    1.55471   1.57580   -1.000
 4688.00    1.54967   1.57804   -1.000
 4689.00    1.54690   1.57978   -1.000
 4690.00    1.55502   1.58102   -1.000
 4691.00    1.55082   1.57810   -1.000
 4692.00    1.54215   1.57916   -1.000
 4693.00    1.58291   1.58978  130.863
 4694.00    1.61271   1.60137  128.868
 4695.00    1.60981   1.60830  125.957
 4696.00    1.61201   1.61161  124.476
 4697.00    1.60585   1.60234  125.294
 4698.00    1.57028   1.57922  129.116
 4699.00    1.55404   1.55770  132.981
 4700.00    1.56411   1.54139  134.318
 4701.00    1.56375   1.52994   -1.000
 4702.00    1.54617   1.51536   -1.000
 4703.00    1.52618   1.50945  136.723
 4704.00    1.54759   1.52277  137.255
 4705.00    1.57003   1.54484  134.455
 4706.00    1.56399   1.55124  132.588
 4707.00    1.52988   1.53718  134.701
 4708.00    1.50746   1.52216  137.434
 4709.00    1.51856   1.52588  138.629
 4710.00    1.53397   1.54478  137.710
 4711.00    1.55628   1.56728  133.448
 4712.00    1.59413   1.58711  129.854
 4713.00    1.57788   1.58805  128.757
 4714.00    1.56919   1.57674  130.169
 4715.00    1.57133   1.57474  132.676
 4716.00    1.56077   1.58972   -1.000
 4717.00    1.59048   1.61581   -1.000
 4718.00    1.62391   1.63372  127.222
 4719.00    1.59517   1.64188   -1.000
 4720.00    1.61957   1.64253   -1.000
 4721.00    1.61753   1.64123   -1.000
 4722.00    1.59408   1.64003   -1.000
 4723.00    1.60341   1.64254   -1.000
 4724.00    1.61362   1.64747   -1.000
 4725.00    1.60826   1.64717   -1.000
 4726.00    1.57846   1.63388   -1.000
 4727.00    1.53331   1.60406   -1.000
 4728.00    1.51781   1.57286   -1.000
 4729.00    1.51277   1.55904   -1.000
 4730.00    1.52674   1.56004   -1.000
 4731.00    1.54987   1.56603  134.750
 4732.00    1.56542   1.57943  133.705
 4733.00    1.56436   1.59504   -1.000
 4734.00    1.56587   1.60255   -1.000
 4735.00    1.56007   1.60186   -1.000
 4736.00    1.57826   1.59920   -1.000
 4737.00    1.60249   1.59724  131.051
 4738.00    1.59908   1.60232  131.110
 4739.00    1.59544   1.61522   -1.000
 4740.00    1.59497   1.62385   -1.000
 4741.00    1.58171   1.62282   -1.000
 4742.00    1.57841   1.62549   -1.000
 4743.00    1.58835   1.63375   -1.000
 4744.00    1.60722   1.64119   -1.000
 4745.00    1.60118   1.64456   -1.000
 4746.00    1.60794   1.64569   -1.000
 4747.00    1.63703   1.65251  127.280
 4748.00    1.65233   1.66521  125.979
 4749.00    1.64507   1.67536   -1.000
 4750.00    1.63269   1.68390   -1.000
 4751.00    1.61136   1.68327   -1.000
 4752.00    1.60942   1.67158   -1.000
 4753.00    1.61943   1.65209   -1.000
 4754.00    1.60189   1.63324   -1.000
 4755.00    1.59101   1.62667   -1.000
 4756.00    1.61579   1.63042  130.164
 4757.00    1.61769   1.64037   -1.000
 4758.00    1.58753   1.65096   -1.000
 4759.00    1.58840   1.66148   -1.000
 4760.00    1.59701   1.66346   -1.000
 4761.00    1.57146   1.64987   -1.000
 4762.00    1.53453   1.62030   -1.000
 4763.00    1.51795   1.58680   -1.000
 4764.00    1.50143   1.57249   -1.000
 4765.00    1.52663   1.57070   -1.000
 4766.00    1.55083   1.57622   -1.000
 4767.00    1.57975   1.59057  136.476
 4768.00    1.58546   1.61890   -1.000
 4769.00    1.58371   1.64810   -1.000
 4770.00    1.60360   1.66116   -1.000
 4771.00    1.58114   1.65621   -1.000
 4772.00    1.58974   1.64972   -1.000
 4773.00    1.58433   1.65244   -1.000
 4774.00    1.60892   1.67133   -1.000
 4775.00    1.62323   1.68847   -1.000
 4776.00    1.60848   1.69543   -1.000
 4777.00    1.62887   1.69284   -1.000
 4778.00    1.62846   1.68339   -1.000
 4779.00    1.62169   1.67276   -1.000
 4780.00    1.58530   1.66410   -1.000
 4781.00    1.58672   1.66126   -1.000
 4782.00    1.60339   1.65507   -1.000
 4783.00    1.57783   1.64567   -1.000
 4784.00    1.57678   1.63909   -1.000
 4785.00    1.58222   1.63446   -1.000
 4786.00    1.58683   1.63151   -1.000
 4787.00    1.56735   1.63023   -1.000
 4788.00    1.58476   1.63382   -1.000
 4789.00    1.58309   1.64118   -1.000
 4790.00    1.59270   1.65300   -1.000
 4791.00    1.59673   1.67009   -1.000
 4792.00    1.63167   1.69050   -1.000
 4793.00    1.64510   1.71287   -1.000
 4794.00    1.66939   1.73284   -1.000
 4795.00    1.67502   1.74735   -1.000
 4796.00    1.68672   1.74656   -1.000
 4797.00    1.65081   1.73230   -1.000
 4798.00    1.60565   1.71246   -1.000
 4799.00    1.61378   1.69517   -1.000
 4800.00    1.63094   1.69215   -1.000
 4801.00    1.64146   1.70766   -1.000
 4802.00    1.65854   1.72879   -1.000
 4803.00    1.67937   1.73703   -1.000
 4804.00    1.65072   1.73071   -1.000
 4805.00    1.60406   1.71648   -1.000
 4806.00    1.60365   1.70767   -1.000
 4807.00    1.61526   1.70378   -1.000
 4808.00    1.61449   1.70292   -1.000
 4809.00    1.61127   1.70959   -1.000
 4810.00    1.62365   1.71998   -1.000
 4811.00    1.64595   1.72587   -1.000
 4812.00    1.65135   1.72937   -1.000
 4813.00    1.65744   1.73531   -1.000
 4814.00    1.67618   1.74227   -1.000
 4815.00    1.68419   1.75248   -1.000
 4816.00    1.68688   1.76482   -1.000
 4817.00    1.69111   1.77370   -1.000
 4818.00    1.69792   1.77558   -1.000
 4819.00    1.67761   1.77483   -1.000
 4820.00    1.65801   1.77503   -1.000
 4821.00    1.66891   1.76572   -1.000
 4822.00    1.64096   1.73932   -1.000
 4823.00    1.63537   1.70299   -1.000
 4824.00    1.62992   1.67841   -1.000
 4825.00    1.65234   1.68829   -1.000
 4826.00    1.67587   1.71552   -1.000
 4827.00    1.65892   1.73419   -1.000
 4828.00    1.65157   1.73558   -1.000
 4829.00    1.65652   1.72784   -1.000
 4830.00    1.65589   1.72451   -1.000
 4831.00    1.63288   1.71453   -1.000
 4832.00    1.63042   1.70078   -1.000
 4833.00    1.65638   1.69896   -1.000
 4834.00    1.66686   1.70872   -1.000
 4835.00    1.67720   1.72343   -1.000
 4836.00    1.67245   1.73292   -1.000
 4837.00    1.66171   1.73308   -1.000
 4838.00    1.65009   1.72579   -1.000
 4839.00    1.62909   1.71015   -1.000
 4840.00    1.64003   1.69436   -1.000
 4841.00    1.63890   1.68641   -1.000
 4842.00    1.64329   1.69021   -1.000
 4843.00    1.62983   1.69643   -1.000
 4844.00    1.64304   1.70168   -1.000
 4845.00    1.69447   1.71561   -1.000
 4846.00    1.70658   1.73095   -1.000
 4847.00    1.68445   1.72639   -1.000
 4848.00    1.63594   1.71004   -1.000
 4849.00    1.62637   1.70238   -1.000
 4850.00    1.63812   1.70914   -1.000
 4851.00    1.64947   1.71778   -1.000
 4852.00    1.65476   1.71302   -1.000
 4853.00    1.65258   1.69484   -1.000
 4854.00    1.62777   1.65651   -1.000
 4855.00    1.57802   1.61210   -1.000
 4856.00    1.56533   1.58065  137.826
 4857.00    1.58373   1.56462  137.351
 4858.00    1.54973   1.53615  135.910
 4859.00    1.44063   1.44507  139.847
 4860.00    1.29138   1.31576   -1.000
 4861.00    1.19720   1.21540   -1.000
 4862.00    1.23237   1.20896   -1.000
 4863.00    1.33773   1.30005   -1.000
 4864.00    1.45498   1.41332   -1.000
 4865.00    1.52082   1.50840  142.955
 4866.00    1.55554   1.57499   -1.000
 4867.00    1.59606   1.61957   -1.000
 4868.00    1.61477   1.64555   -1.000
 4869.00    1.61155   1.64975   -1.000
 4870.00    1.59118   1.62714   -1.000
 4871.00    1.56518   1.58547   -1.000
 4872.00    1.53372   1.56008   -1.000
 4873.00    1.57263   1.58529  140.570
 4874.00    1.61747   1.63562  136.460
 4875.00    1.62807   1.67497   -1.000
 4876.00    1.61868   1.68325   -1.000
 4877.00    1.61888   1.68247   -1.000
 4878.00    1.64420   1.69675   -1.000
 4879.00    1.65740   1.72409   -1.000
 4880.00    1.64977   1.74649   -1.000
 4881.00    1.63949   1.74866   -1.000
 4882.00    1.62309   1.73272   -1.000
 4883.00    1.61914   1.72280   -1.000
 4884.00    1.63748   1.71442   -1.000
 4885.00    1.63801   1.70083   -1.000
 4886.00    1.63195   1.68714   -1.000
 4887.00    1.63581   1.68153   -1.000
 4888.00    1.64077   1.68293   -1.000
 4889.00    1.63288   1.67187   -1.000
 4890.00    1.57775   1.64118   -1.000
 4891.00    1.55337   1.61910   -1.000
 4892.00    1.61059   1.63718   -1.000
 4893.00    1.65894   1.70631   -1.000
 4894.00    1.73766   1.78785   -1.000
 4895.00    1.78573   1.83593   -1.000
 4896.00    1.78413   1.85698   -1.000
 4897.00    1.79427   1.85887   -1.000
 4898.00    1.77839   1.84819   -1.000
 4899.00    1.75123   1.82673   -1.000
 4900.00    1.70524   1.80811   -1.000
 4901.00    1.70187   1.79822   -1.000
 4902.00    1.70483   1.79273   -1.000
 4903.00    1.68208   1.77963   -1.000
 4904.00    1.69429   1.77269   -1.000
 4905.00    1.73342   1.79373   -1.000
 4906.00    1.76316   1.82496   -1.000
 4907.00    1.76906   1.83607   -1.000
 4908.00    1.75195   1.82173   -1.000
 4909.00    1.71545   1.78453   -1.000
 4910.00    1.69538   1.74850   -1.000
 4911.00    1.70624   1.73185   -1.000
 4912.00    1.74333   1.74895  131.613
 4913.00    1.74941   1.77913   -1.000
 4914.00    1.74071   1.80623   -1.000
 4915.00    1.75762   1.82650   -1.000
 4916.00    1.76972   1.82944   -1.000
 4917.00    1.72549   1.79351   -1.000
 4918.00    1.65092   1.72394   -1.000
 4919.00    1.57519   1.64051   -1.000
 4920.00    1.54525   1.58566   -1.000
 4921.00    1.59760   1.58420  145.083
 4922.00    1.65910   1.62518   -1.000
 4923.00    1.69545   1.67076  135.170
 4924.00    1.69213   1.69669  133.194
 4925.00    1.69245   1.72170   -1.000
 4926.00    1.73521   1.75718   -1.000
 4927.00    1.78343   1.79793  127.907
 4928.00    1.80344   1.83465   -1.000
 4929.00    1.81542   1.85606   -1.000
 4930.00    1.82290   1.86529   -1.000
 4931.00    1.81750   1.85874   -1.000
 4932.00    1.78410   1.82729   -1.000
 4933.00    1.69879   1.77962   -1.000
 4934.00    1.66612   1.74866   -1.000
 4935.00    1.70255   1.74869   -1.000
 4936.00    1.73923   1.76682   -1.000
 4937.00    1.69619   1.75724   -1.000
 4938.00    1.65824   1.71876   -1.000
 4939.00    1.64983   1.70013   -1.000
 4940.00    1.69395   1.72078   -1.000
 4941.00    1.75791   1.77649  131.689
 4942.00    1.79476   1.82907   -1.000
 4943.00    1.82003   1.85523   -1.000
 4944.00    1.79319   1.86012   -1.000
 4945.00    1.78405   1.85094   -1.000
 4946.00    1.79923   1.84102   -1.000
 4947.00    1.80638   1.84327   -1.000
 4948.00    1.80914   1.86333   -1.000
 4949.00    1.83115   1.88512   -1.000
 4950.00    1.84258   1.89316   -1.000
 4951.00    1.82871   1.88725   -1.000
 4952.00    1.81394   1.87776   -1.000
 4953.00    1.79746   1.86836   -1.000
 4954.00    1.79011   1.85652   -1.000
 4955.00    1.75215   1.82791   -1.000
 4956.00    1.68043   1.75880   -1.000
 4957.00    1.61471   1.67774   -1.000
 4958.00    1.59549   1.64882   -1.000
 4959.00    1.67454   1.69253   -1.000
 4960.00    1.75995   1.77730  130.996
 4961.00    1.78762   1.83528   -1.000
 4962.00    1.78242   1.85634   -1.000
 4963.00    1.76816   1.85588   -1.000
 4964.00    1.75441   1.84212   -1.000
 4965.00    1.72594   1.81831   -1.000
 4966.00    1.70657   1.79533   -1.000
 4967.00    1.72128   1.78191   -1.000
 4968.00    1.73167   1.77756   -1.000
 4969.00    1.72068   1.78130   -1.000
 4970.00    1.73344   1.79525   -1.000
 4971.00    1.75695   1.81381   -1.000
 4972.00    1.78634   1.83369   -1.000
 4973.00    1.79761   1.85166   -1.000
 4974.00    1.78941   1.86522   -1.000
 4975.00    1.79413   1.86741   -1.000
 4976.00    1.79003   1.86248   -1.000
 4977.00    1.77339   1.84874   -1.000
 4978.00    1.77363   1.82997   -1.000
 4979.00    1.77560   1.80960   -1.000
 4980.00    1.72246   1.78463   -1.000
 4981.00    1.67468   1.74217   -1.000
 4982.00    1.62242   1.68164   -1.000
 4983.00    1.61272   1.63477   -1.000
 4984.00    1.62699   1.63103  144.266
 4985.00    1.67382   1.67464  141.568
 4986.00    1.70458   1.73332   -1.000
 4987.00    1.74185   1.78333   -1.000
 4988.00    1.76288   1.81367   -1.000
 4989.00    1.75428   1.81310   -1.000
 4990.00    1.72778   1.79323   -1.000
 4991.00    1.72880   1.77659   -1.000
 4992.00    1.74780   1.77718   -1.000
 4993.00    1.76314   1.78844   -1.000
 4994.00    1.76125   1.79989   -1.000
 4995.00    1.76149   1.80969   -1.000
 4996.00    1.77782   1.82097   -1.000
 4997.00    1.77437   1.82714   -1.000
 4998.00    1.75384   1.81559   -1.000
 4999.00    1.72764   1.78143   -1.000
 5000.00    1.69621   1.74187   -1.000
 5001.00    1.68699   1.71730   -1.000
 5002.00    1.70489   1.72020  137.238
 5003.00    1.72179   1.73753  135.949
 5004.00    1.72589   1.74374  135.043
 5005.00    1.70672   1.72212  136.946
 5006.00    1.67712   1.68669  140.441
 5007.00    1.69700   1.68305  141.274
 5008.00    1.75207   1.71901   -1.000
 5009.00    1.76946   1.76585  133.656
 5010.00    1.75095   1.78920   -1.000
 5011.00    1.72599   1.77034   -1.000
 5012.00    1.67045   1.72416   -1.000
 5013.00    1.63231   1.67511   -1.000
 5014.00    1.63165   1.65369   -1.000
 5015.00    1.67485   1.65800  145.797
 5016.00    1.68552   1.67525  142.594
 5017.00    1.69602   1.68706  139.601
 5018.00    1.68779   1.69293  138.974
 5019.00    1.71711   1.71107  138.999
 5020.00    1.73534   1.73544  137.440
 5021.00    1.73032   1.74888  136.305
 5022.00    1.72149   1.74843   -1.000
 5023.00    1.73876   1.74634  137.195
 5024.00    1.75218   1.76712  136.427
 5025.00    1.77263   1.79572   -1.000
 5026.00    1.77433   1.79808   -1.000
 5027.00    1.76002   1.78492   -1.000
 5028.00    1.75881   1.77871  135.338
 5029.00    1.77946   1.78607  134.132
 5030.00    1.80252   1.80723  131.617
 5031.00    1.82914   1.83553  129.728
 5032.00    1.84520   1.86194  127.622
 5033.00    1.83259   1.87686   -1.000
 5034.00    1.81617   1.86377   -1.000
 5035.00    1.78120   1.82035   -1.000
 5036.00    1.74574   1.77823   -1.000
 5037.00    1.75078   1.75671  137.810
 5038.00    1.73753   1.75243  138.325
 5039.00    1.67769   1.72262   -1.000
 5040.00    1.62615   1.66139   -1.000
 5041.00    1.61439   1.62361  151.414
 5042.00    1.66119   1.64316  151.605
 5043.00    1.75310   1.71832   -1.000
 5044.00    1.82318   1.80353  135.463
 5045.00    1.86915   1.86197  129.884
 5046.00    1.88146   1.89191  127.109
 5047.00    1.84284   1.89052   -1.000
 5048.00    1.84581   1.85866  125.889
 5049.00    1.26824   1.80903   -1.000
 5050.00    0.23977   1.76744   -1.000
 5051.00    0.01174   1.74984   -1.000
 5052.00    0.48886   1.76409   -1.000
 5053.00    1.61005   1.80647   -1.000
 5054.00    1.87138   1.85246  129.796
 5055.00    1.89475   1.87179  127.414
 5056.00    1.87267   1.88137  126.181
 5057.00    1.88138   1.89145  125.759
 5058.00    1.88179   1.90235  125.980
 5059.00    1.89312   1.91142  126.215
 5060.00    1.87124   1.91573   -1.000
 5061.00    1.88893   1.91716   -1.000
 5062.00    1.88880   1.91478   -1.000
 5063.00    1.84828   1.88738   -1.000
 5064.00    1.78480   1.83823   -1.000
 5065.00    1.75256   1.80268   -1.000
 5066.00    1.77375   1.79248  137.009
 5067.00    1.79603   1.80624  135.403
 5068.00    1.81598   1.81664  133.349
 5069.00    1.82901   1.82043  132.894
 5070.00    1.86311   1.82762   -1.000
 5071.00    1.85190   1.83085  131.398
 5072.00    1.83893   1.81956  132.426
 5073.00    1.83942   1.80957   -1.000
 5074.00    1.84835   1.81734   -1.000
 5075.00    1.84833   1.83392  130.838
 5076.00    1.84719   1.84299  130.648
 5077.00    1.84250   1.83535  130.544
 5078.00    1.80750   1.80689  131.789
 5079.00    1.74327   1.75744  136.335
 5080.00    1.69552   1.72312   -1.000
 5081.00    1.70752   1.72160  144.596
 5082.00    1.76353   1.73965   -1.000
 5083.00    1.79264   1.76336   -1.000
 5084.00    1.79973   1.78582  136.714
 5085.00    1.83247   1.81769  134.143
 5086.00    1.87203   1.85038  131.836
 5087.00    1.88407   1.86693  130.868
 5088.00    1.87273   1.87248  130.675
 5089.00    1.86898   1.87706  130.026
 5090.00    1.87229   1.88339  129.089
 5091.00    1.87924   1.89206  128.372
 5092.00    1.90838   1.90553  127.707
 5093.00    1.93680   1.92138  126.246
 5094.00    1.92674   1.92799  125.103
 5095.00    1.89699   1.90982  126.200
 5096.00    1.89200   1.86621   -1.000
 5097.00    1.86677   1.82077   -1.000
 5098.00    1.81474   1.78725   -1.000
 5099.00    1.80139   1.77610   -1.000
 5100.00    1.81965   1.78919   -1.000
 5101.00    1.86341   1.82666   -1.000
 5102.00    1.90031   1.86010   -1.000
 5103.00    1.89297   1.87006  129.688
 5104.00    1.85426   1.86448  130.414
 5105.00    1.84206   1.84869  132.122
 5106.00    1.82987   1.82593  133.798
 5107.00    1.79624   1.80155  135.437
 5108.00    1.78315   1.78660  137.138
 5109.00    1.80102   1.78728  136.973
 5110.00    1.82243   1.80133  136.104
 5111.00    1.85438   1.82676   -1.000
 5112.00    1.86841   1.85563  133.203
 5113.00    1.88115   1.87719  131.563
 5114.00    1.88513   1.89637  129.959
 5115.00    1.89803   1.91377  128.777
 5116.00    1.92178   1.92928  128.078
 5117.00    1.93183   1.93851  126.739
 5118.00    1.92958   1.93976  125.671
 5119.00    1.92937   1.93251  126.011
 5120.00    1.91307   1.91332  127.637
 5121.00    1.89532   1.88768  129.560
 5122.00    1.85766   1.86022  131.697
 5123.00    1.81326   1.83133  135.067
 5124.00    1.79489   1.80118  139.142
 5125.00    1.81253   1.78638   -1.000
 5126.00    1.83053   1.78743   -1.000
 5127.00    1.82190   1.79462   -1.000
 5128.00    1.80481   1.79615  137.467
 5129.00    1.81424   1.79746  137.642
 5130.00    1.84928   1.80607   -1.000
 5131.00    1.87986   1.82378   -1.000
 5132.00    1.89506   1.84554   -1.000
 5133.00    1.89733   1.86176   -1.000
 5134.00    1.90457   1.87374   -1.000
 5135.00    1.92493   1.88178   -1.000
 5136.00    1.91646   1.87949   -1.000
 5137.00    1.86739   1.85885  131.852
 5138.00    1.83158   1.83031  135.059
 5139.00    1.83046   1.80534   -1.000
 5140.00    1.83151   1.79999   -1.000
 5141.00    1.81609   1.80635  136.273
 5142.00    1.81366   1.81194  137.230
 5143.00    1.81085   1.81608  139.451
 5144.00    1.83606   1.82389  138.717
 5145.00    1.85145   1.83381  136.404
 5146.00    1.85080   1.83054  135.882
 5147.00    1.84802   1.81445   -1.000
 5148.00    1.85147   1.81501   -1.000
 5149.00    1.88653   1.83398   -1.000
 5150.00    1.85798   1.83654  135.050
 5151.00    1.81625   1.82176  136.666
 5152.00    1.81142   1.80460  139.157
 5153.00    1.80362   1.79252  140.118
 5154.00    1.82356   1.79482   -1.000
 5155.00    1.87878   1.81954   -1.000
 5156.00    1.93837   1.86416   -1.000
 5157.00    1.97570   1.90586   -1.000
 5158.00    1.98936   1.93556   -1.000
 5159.00    1.98739   1.94812   -1.000
 5160.00    1.97358   1.94953  126.491
 5161.00    1.97218   1.94201   -1.000
 5162.00    1.95437   1.92285   -1.000
 5163.00    1.93479   1.89530   -1.000
 5164.00    1.91064   1.85525   -1.000
 5165.00    1.80852   1.77304   -1.000
 5166.00    1.65093   1.64453  147.075
 5167.00    1.53032   1.52609  162.426
 5168.00    1.51144   1.47551   -1.000
 5169.00    1.60204   1.53074   -1.000
 5170.00    1.66445   1.58751   -1.000
 5171.00    1.61114   1.56556   -1.000
 5172.00    1.51796   1.50398  168.269
 5173.00    1.51422   1.47709   -1.000
 5174.00    1.65091   1.56528   -1.000
 5175.00    1.79322   1.70334   -1.000
 5176.00    1.85159   1.80711   -1.000
 5177.00    1.87562   1.86209  136.035
 5178.00    1.89786   1.87660  134.396
 5179.00    1.90154   1.87405   -1.000
 5180.00    1.85621   1.84157  135.385
 5181.00    1.77163   1.75409  140.037
 5182.00    1.62333   1.62856  150.051
 5183.00    1.50960   1.50603  167.366
 5184.00    1.51731   1.47868   -1.000
 5185.00    1.65521   1.55916   -1.000
 5186.00    1.81161   1.69674   -1.000
 5187.00    1.89429   1.80681   -1.000
 5188.00    1.89544   1.84639   -1.000
 5189.00    1.89683   1.86248   -1.000
 5190.00    1.89663   1.86698   -1.000
 5191.00    1.85141   1.84352  135.312
 5192.00    1.78618   1.80611  139.552
 5193.00    1.80118   1.78799  143.443
 5194.00    1.83658   1.79479   -1.000
 5195.00    1.85109   1.81950   -1.000
 5196.00    1.87521   1.83902   -1.000
 5197.00    1.92814   1.86334   -1.000
 5198.00    1.92706   1.90065   -1.000
 5199.00    1.93801   1.93426  130.964
 5200.00    1.95025   1.95253  129.861
 5201.00    1.94848   1.95283  129.710
 5202.00    1.92042   1.92827  130.728
 5203.00    1.87800   1.88082  133.071
 5204.00    1.83490   1.81944  136.109
 5205.00    1.79477   1.75913   -1.000
 5206.00    1.75988   1.72086   -1.000
 5207.00    1.77218   1.70933   -1.000
 5208.00    1.77596   1.70991   -1.000
 5209.00    1.78947   1.72220   -1.000
 5210.00    1.82965   1.76068   -1.000
 5211.00    1.90288   1.82691   -1.000
 5212.00    1.99794   1.91001   -1.000
 5213.00    2.04945   1.96884   -1.000
 5214.00    2.02245   1.98373   -1.000
 5215.00    1.97898   1.95196   -1.000
 5216.00    1.96451   1.91505   -1.000
 5217.00    1.95970   1.90973   -1.000
 5218.00    1.98991   1.94125   -1.000
 5219.00    2.02786   1.99151   -1.000
 5220.00    2.04935   2.02998  126.728
 5221.00    2.06598   2.05223  125.729
 5222.00    2.04066   2.04974  125.213
 5223.00    2.00997   2.02281  126.775
 5224.00    1.95576   1.96702  130.597
 5225.00    1.86677   1.87904  135.965
 5226.00    1.80767   1.79258  142.334
 5227.00    1.82045   1.76144   -1.000
 5228.00    1.90255   1.80143   -1.000
 5229.00    1.99678   1.89194   -1.000
 5230.00    2.04245   1.95749   -1.000
 5231.00    2.04344   1.97708   -1.000
 5232.00    2.01224   1.95524   -1.000
 5233.00    1.98299   1.91860   -1.000
 5234.00    1.96584   1.90309   -1.000
 5235.00    1.98832   1.93074   -1.000
 5236.00    2.04580   1.98474   -1.000
 5237.00    2.06003   2.03327   -1.000
 5238.00    2.06538   2.06183  124.430
 5239.00    2.07306   2.06771  124.284
 5240.00    2.06567   2.06528  124.669
 5241.00    2.07856   2.05881  124.467
 5242.00    2.07647   2.05203  123.743
 5243.00    2.07961   2.05409  123.904
 5244.00    2.06910   2.06828  123.665
 5245.00    2.06311   2.07032  123.465
 5246.00    2.03279   2.04351  125.867
 5247.00    1.97393   2.00336   -1.000
 5248.00    1.97977   1.97172  132.851
 5249.00    1.97419   1.96297  133.272
 5250.00    1.93376   1.96209   -1.000
 5251.00    1.93578   1.96359   -1.000
 5252.00    1.98066   1.97366  133.766
 5253.00    2.00518   1.98699  131.938
 5254.00    2.02326   1.98885   -1.000
 5255.00    2.03678   1.99166   -1.000
 5256.00    2.06487   2.01619   -1.000
 5257.00    2.10543   2.05470   -1.000
 5258.00    2.12611   2.09102   -1.000
 5259.00    2.11201   2.09832  122.131
 5260.00    2.06442   2.06949  123.212
 5261.00    2.00626   2.00826  126.534
 5262.00    1.93436   1.92988  131.856
 5263.00    1.87922   1.85117   -1.000
 5264.00    1.85357   1.78931   -1.000
 5265.00    1.84024   1.75941   -1.000
 5266.00    1.86597   1.77127   -1.000
 5267.00    1.91697   1.79542   -1.000
 5268.00    1.89168   1.79290   -1.000
 5269.00    1.80734   1.75336   -1.000
 5270.00    1.80141   1.71549   -1.000
 5271.00    1.89167   1.75464   -1.000
 5272.00    1.99661   1.84008   -1.000
 5273.00    2.02578   1.90611   -1.000
 5274.00    2.04011   1.93494   -1.000
 5275.00    2.02414   1.94247   -1.000
 5276.00    2.03897   1.96596   -1.000
 5277.00    2.10734   2.01526   -1.000
 5278.00    2.15387   2.07137   -1.000
 5279.00    2.15973   2.09765   -1.000
 5280.00    2.12160   2.07278   -1.000
 5281.00    2.06821   2.02630   -1.000
 5282.00    2.02345   1.98171   -1.000
 5283.00    2.00786   1.95450   -1.000
 5284.00    2.05716   1.96195   -1.000
 5285.00    2.12131   2.01513   -1.000
 5286.00    2.17067   2.08279   -1.000
 5287.00    2.16123   2.13421   -1.000
 5288.00    2.16072   2.14962  120.616
 5289.00    2.16684   2.15021  121.212
 5290.00    2.16613   2.15381  121.224
 5291.00    2.18136   2.15210   -1.000
 5292.00    2.19358   2.14665   -1.000
 5293.00    2.16678   2.14495  120.934
 5294.00    2.14828   2.13568  122.069
 5295.00    2.11811   2.10862  123.676
 5296.00    2.06284   2.05525  126.977
 5297.00    2.01071   1.98663   -1.000
 5298.00    1.99949   1.95162   -1.000
 5299.00    2.03977   1.96504   -1.000
 5300.00    2.07532   2.00202   -1.000
 5301.00    2.07692   2.03468   -1.000
 5302.00    2.09176   2.05100   -1.000
 5303.00    2.13549   2.07859   -1.000
 5304.00    2.18279   2.12022   -1.000
 5305.00    2.21546   2.14475   -1.000
 5306.00    2.20212   2.14590   -1.000
 5307.00    2.18056   2.13222   -1.000
 5308.00    2.17555   2.12662   -1.000
 5309.00    2.18195   2.14462   -1.000
 5310.00    2.20873   2.16814   -1.000
 5311.00    2.20369   2.18255  119.850
 5312.00    2.18708   2.17974  119.936
 5313.00    2.18839   2.16469  120.596
 5314.00    2.18808   2.14453   -1.000
 5315.00    2.17900   2.11922   -1.000
 5316.00    2.14099   2.09145   -1.000
 5317.00    2.13513   2.08265   -1.000
 5318.00    2.15514   2.10077   -1.000
 5319.00    2.18545   2.13323   -1.000
 5320.00    2.18057   2.14615   -1.000
 5321.00    2.17399   2.13385   -1.000
 5322.00    2.14538   2.10649   -1.000
 5323.00    2.11622   2.06651   -1.000
 5324.00    2.09260   2.03060   -1.000
 5325.00    2.08973   2.00632   -1.000
 5326.00    2.07711   1.97954   -1.000
 5327.00    1.98257   1.91652   -1.000
 5328.00    1.88339   1.84155   -1.000
 5329.00    1.92714   1.83266   -1.000
 5330.00    2.07254   1.89868   -1.000
 5331.00    2.12496   2.00353   -1.000
 5332.00    2.13700   2.06584   -1.000
 5333.00    2.16024   2.08525   -1.000
 5334.00    2.17498   2.10384   -1.000
 5335.00    2.18442   2.12265   -1.000
 5336.00    2.18082   2.12783   -1.000
 5337.00    2.16934   2.11980   -1.000
 5338.00    2.16425   2.09993   -1.000
 5339.00    2.14306   2.06373   -1.000
 5340.00    2.09704   2.02007   -1.000
 5341.00    2.07870   2.00205   -1.000
 5342.00    2.12551   2.02756   -1.000
 5343.00    2.17066   2.08114   -1.000
 5344.00    2.17657   2.10960   -1.000
 5345.00    2.16911   2.10480   -1.000
 5346.00    2.15578   2.08435   -1.000
 5347.00    2.13581   2.06600   -1.000
 5348.00    2.11297   2.05827   -1.000
 5349.00    2.12340   2.05914   -1.000
 5350.00    2.15609   2.07453   -1.000
 5351.00    2.18306   2.10721   -1.000
 5352.00    2.21027   2.14433   -1.000
 5353.00    2.20599   2.16378   -1.000
 5354.00    2.21640   2.17364   -1.000
 5355.00    2.24519   2.19252   -1.000
 5356.00    2.26199   2.21275   -1.000
 5357.00    2.27781   2.22647   -1.000
 5358.00    2.27426   2.22783   -1.000
 5359.00    2.26384   2.22380   -1.000
 5360.00    2.25708   2.21393   -1.000
 5361.00    2.22512   2.19043   -1.000
 5362.00    2.19615   2.15926   -1.000
 5363.00    2.18392   2.13066   -1.000
 5364.00    2.18097   2.10721   -1.000
 5365.00    2.16518   2.09481   -1.000
 5366.00    2.14793   2.09437   -1.000
 5367.00    2.17114   2.09935   -1.000
 5368.00    2.16644   2.09222   -1.000
 5369.00    2.11856   2.06001   -1.000
 5370.00    2.07388   2.00278   -1.000
 5371.00    2.07343   1.95662   -1.000
 5372.00    2.12222   1.95880   -1.000
 5373.00    2.19825   2.01939   -1.000
 5374.00    2.24188   2.10947   -1.000
 5375.00    2.25262   2.17175   -1.000
 5376.00    2.26624   2.19855   -1.000
 5377.00    2.26646   2.19939   -1.000
 5378.00    2.27428   2.19384   -1.000
 5379.00    2.26238   2.18652   -1.000
 5380.00    2.24510   2.17506   -1.000
 5381.00    2.21303   2.15989   -1.000
 5382.00    2.19464   2.14245   -1.000
 5383.00    2.18614   2.12974   -1.000
 5384.00    2.19048   2.13396   -1.000
 5385.00    2.23826   2.15903   -1.000
 5386.00    2.25594   2.18944   -1.000
 5387.00    2.23133   2.20213   -1.000
 5388.00    2.21833   2.19526  122.410
 5389.00    2.20297   2.17278   -1.000
 5390.00    2.19122   2.14661   -1.000
 5391.00    2.18483   2.12504   -1.000
 5392.00    2.16866   2.10763   -1.000
 5393.00    2.17194   2.09599   -1.000
 5394.00    2.16352   2.09307   -1.000
 5395.00    2.13104   2.07865   -1.000
 5396.00    2.09989   2.04732   -1.000
 5397.00    2.10345   2.01786   -1.000
 5398.00    2.16114   2.01528   -1.000
 5399.00    2.21292   2.05976   -1.000
 5400.00    2.22523   2.10915   -1.000
 5401.00    2.21556   2.13571   -1.000
 5402.00    2.20979   2.13673   -1.000
 5403.00    2.17067   2.10504   -1.000
 5404.00    2.12315   2.04039   -1.000
 5405.00    2.08665   1.98384   -1.000
 5406.00    2.08729   1.96759   -1.000
 5407.00    2.10909   1.99519   -1.000
 5408.00    2.13858   2.03693   -1.000
 5409.00    2.13296   2.04309   -1.000
 5410.00    2.13654   2.03345   -1.000
 5411.00    2.16056   2.04749   -1.000
 5412.00    2.21973   2.08651   -1.000
 5413.00    2.24313   2.12955   -1.000
 5414.00    2.23775   2.14403   -1.000
 5415.00    2.23366   2.14794   -1.000
 5416.00    2.25860   2.16903   -1.000
 5417.00    2.27006   2.19219   -1.000
 5418.00    2.27750   2.20701   -1.000
 5419.00    2.26059   2.20733   -1.000
 5420.00    2.23572   2.19843   -1.000
 5421.00    2.24440   2.19217   -1.000
 5422.00    2.25710   2.18362   -1.000
 5423.00    2.23535   2.16357   -1.000
 5424.00    2.21873   2.14452   -1.000
 5425.00    2.24366   2.14375   -1.000
 5426.00    2.26197   2.17882   -1.000
 5427.00    2.27720   2.20562   -1.000
 5428.00    2.24901   2.17684   -1.000
 5429.00    2.17635   2.11936   -1.000
 5430.00    2.17311   2.07345   -1.000
 5431.00    2.22486   2.07998   -1.000
 5432.00    2.21815   2.10588   -1.000
 5433.00    2.17066   2.10191   -1.000
 5434.00    2.17431   2.08074   -1.000
 5435.00    2.17729   2.06888   -1.000
 5436.00    2.18082   2.09322   -1.000
 5437.00    2.22686   2.15083   -1.000
 5438.00    2.26575   2.20874   -1.000
 5439.00    2.29870   2.24671   -1.000
 5440.00    2.33316   2.26049   -1.000
 5441.00    2.34402   2.27314   -1.000
 5442.00    2.31238   2.27982   -1.000
 5443.00    2.28828   2.26907  119.688
 5444.00    2.26174   2.22959   -1.000
 5445.00    2.19397   2.15823   -1.000
 5446.00    2.11091   2.08874  129.106
 5447.00    2.07975   2.05181   -1.000
 5448.00    2.13571   2.07385   -1.000
 5449.00    2.21223   2.13589   -1.000
 5450.00    2.24928   2.18931   -1.000
 5451.00    2.25466   2.21949   -1.000
 5452.00    2.23825   2.21928  123.598
 5453.00    2.20171   2.19142  124.613
 5454.00    2.14944   2.14014  127.441
 5455.00    2.10046   2.08441  131.098
 5456.00    2.12853   2.06621   -1.000
 5457.00    2.22133   2.11396   -1.000
 5458.00    2.27533   2.18052   -1.000
 5459.00    2.26262   2.22738   -1.000
 5460.00    2.24515   2.23145  123.411
 5461.00    2.25268   2.20448   -1.000
 5462.00    2.24542   2.16552   -1.000
 5463.00    2.21203   2.13957   -1.000
 5464.00    2.22552   2.14205   -1.000
 5465.00    2.23827   2.16716   -1.000
 5466.00    2.24361   2.19723   -1.000
 5467.00    2.26218   2.21579   -1.000
 5468.00    2.27612   2.22922   -1.000
 5469.00    2.26939   2.23720   -1.000
 5470.00    2.26582   2.23145   -1.000
 5471.00    2.26633   2.21905   -1.000
 5472.00    2.24689   2.20730   -1.000
 5473.00    2.22269   2.19279   -1.000
 5474.00    2.20407   2.17009   -1.000
 5475.00    2.18346   2.13263   -1.000
 5476.00    2.15047   2.09000   -1.000
 5477.00    2.14379   2.07459   -1.000
 5478.00    2.19810   2.09859   -1.000
 5479.00    2.25138   2.15117   -1.000
 5480.00    2.24692   2.18303   -1.000
 5481.00    2.22027   2.17679   -1.000
 5482.00    2.20858   2.17014   -1.000
 5483.00    2.23674   2.18180   -1.000
 5484.00    2.28049   2.21503   -1.000
 5485.00    2.28991   2.24327   -1.000
 5486.00    2.28063   2.24437   -1.000
 5487.00    2.25266   2.22573   -1.000
 5488.00    2.23715   2.20484   -1.000
 5489.00    2.24387   2.20332   -1.000
 5490.00    2.24496   2.21712   -1.000
 5491.00    2.26898   2.23092   -1.000
 5492.00    2.27553   2.23917   -1.000
 5493.00    2.29749   2.24092   -1.000
 5494.00    2.30584   2.24253   -1.000
 5495.00    2.28987   2.23912   -1.000
 5496.00    2.27206   2.22499   -1.000
 5497.00    2.23369   2.20799   -1.000
 5498.00    2.24561   2.20019   -1.000
 5499.00    2.27927   2.20788   -1.000
 5500.00    2.27965   2.21343   -1.000
 5501.00    2.25218   2.19255   -1.000
 5502.00    2.22872   2.17142   -1.000
 5503.00    2.25875   2.17690   -1.000
 5504.00    2.27268   2.18678   -1.000
 5505.00    2.25869   2.18438   -1.000
 5506.00    2.23416   2.16222   -1.000
 5507.00    2.22573   2.14608   -1.000
 5508.00    2.25070   2.16530   -1.000
 5509.00    2.28427   2.19508   -1.000
 5510.00    2.27032   2.21266   -1.000
 5511.00    2.23839   2.20050   -1.000
 5512.00    2.22247   2.16765   -1.000
 5513.00    2.21023   2.13882   -1.000
 5514.00    2.20927   2.13487   -1.000
 5515.00    2.23837   2.15815   -1.000
 5516.00    2.28295   2.19038   -1.000
 5517.00    2.32244   2.22446   -1.000
 5518.00    2.35186   2.25461   -1.000
 5519.00    2.36411   2.27634   -1.000
 5520.00    2.36517   2.28377   -1.000
 5521.00    2.35911   2.28248   -1.000
 5522.00    2.35810   2.27988   -1.000
 5523.00    2.36566   2.28087   -1.000
 5524.00    2.35429   2.27474   -1.000
 5525.00    2.31147   2.25046   -1.000
 5526.00    2.26287   2.20876   -1.000
 5527.00    2.21493   2.15772   -1.000
 5528.00    2.19789   2.12739   -1.000
 5529.00    2.22247   2.13593   -1.000
 5530.00    2.28327   2.18964   -1.000
 5531.00    2.30904   2.24266   -1.000
 5532.00    2.31776   2.26263   -1.000
 5533.00    2.30533   2.25484   -1.000
 5534.00    2.28614   2.23574   -1.000
 5535.00    2.29310   2.22457   -1.000
 5536.00    2.30661   2.22983   -1.000
 5537.00    2.32464   2.24773   -1.000
 5538.00    2.33679   2.25901   -1.000
 5539.00    2.32928   2.26490   -1.000
 5540.00    2.35921   2.27899   -1.000
 5541.00    2.37603   2.29236   -1.000
 5542.00    2.35981   2.28704   -1.000
 5543.00    2.33694   2.27028   -1.000
 5544.00    2.32343   2.25638   -1.000
 5545.00    2.32982   2.25847   -1.000
 5546.00    2.32094   2.26931   -1.000
 5547.00    2.33317   2.27907   -1.000
 5548.00    2.35047   2.29556   -1.000
 5549.00    2.37667   2.31549   -1.000
 5550.00    2.39651   2.32361   -1.000
 5551.00    2.39180   2.32302   -1.000
 5552.00    2.37407   2.31512   -1.000
 5553.00    2.34790   2.30042   -1.000
 5554.00    2.34832   2.28723   -1.000
 5555.00    2.35460   2.28497   -1.000
 5556.00    2.35354   2.29169   -1.000
 5557.00    2.36329   2.29584   -1.000
 5558.00    2.37345   2.29956   -1.000
 5559.00    2.37888   2.30566   -1.000
 5560.00    2.36363   2.30733   -1.000
 5561.00    2.35084   2.29759   -1.000
 5562.00    2.35627   2.27886   -1.000
 5563.00    2.34331   2.26422   -1.000
 5564.00    2.31717   2.25728   -1.000
 5565.00    2.32337   2.25200   -1.000
 5566.00    2.32929   2.24685   -1.000
 5567.00    2.29952   2.24316   -1.000
 5568.00    2.30299   2.24053   -1.000
 5569.00    2.31088   2.23840   -1.000
 5570.00    2.31832   2.23684   -1.000
 5571.00    2.31634   2.23359   -1.000
 5572.00    2.31581   2.22637   -1.000
 5573.00    2.31047   2.21899   -1.000
 5574.00    2.35530   2.22843   -1.000
 5575.00    2.45920   2.24694   -1.000
 5576.00    2.56663   2.25648   -1.000
 5577.00    2.56939   2.26717   -1.000
 5578.00    2.30450   2.28468  121.648
 5579.00    1.93274   2.29956   -1.000
 5580.00    1.63121   2.30319   -1.000
 5581.00    1.79012   2.29921   -1.000
 5582.00    2.16871   2.29521   -1.000
 5583.00    2.34550   2.29227   -1.000
 5584.00    2.37733   2.28861   -1.000
 5585.00    2.34329   2.27031   -1.000
 5586.00    2.28132   2.21638   -1.000
 5587.00    2.23009   2.14937   -1.000
 5588.00    2.19714   2.11016   -1.000
 5589.00    2.22054   2.10586   -1.000
 5590.00    2.26925   2.13632   -1.000
 5591.00    2.29382   2.17957   -1.000
 5592.00    2.30858   2.21363   -1.000
 5593.00    2.29408   2.22164   -1.000
 5594.00    2.30589   2.22176   -1.000
 5595.00    2.32087   2.23211   -1.000
 5596.00    2.34307   2.25244   -1.000
 5597.00    2.33971   2.26116   -1.000
 5598.00    2.29702   2.23708   -1.000
 5599.00    2.26945   2.21131   -1.000
 5600.00    2.27069   2.20276   -1.000
 5601.00    2.27118   2.18871   -1.000
 5602.00    2.27284   2.17616   -1.000
 5603.00    2.28845   2.19252   -1.000
 5604.00    2.31976   2.23771   -1.000
 5605.00    2.37073   2.29726   -1.000
 5606.00    2.41071   2.34428   -1.000
 5607.00    2.41700   2.36725   -1.000
 5608.00    2.41046   2.37467   -1.000
 5609.00    2.40326   2.37346   -1.000
 5610.00    2.40672   2.37356   -1.000
 5611.00    2.42598   2.37793   -1.000
 5612.00    2.43478   2.37632   -1.000
 5613.00    2.40380   2.34642   -1.000
 5614.00    2.33054   2.28499   -1.000
 5615.00    2.26113   2.21427   -1.000
 5616.00    2.26691   2.17930   -1.000
 5617.00    2.32109   2.21209   -1.000
 5618.00    2.36195   2.25927   -1.000
 5619.00    2.36661   2.29252   -1.000
 5620.00    2.38042   2.31079   -1.000
 5621.00    2.40487   2.32227   -1.000
 5622.00    2.39699   2.32602   -1.000
 5623.00    2.37232   2.30939   -1.000
 5624.00    2.34288   2.27627   -1.000
 5625.00    2.34753   2.25927   -1.000
 5626.00    2.35119   2.27033   -1.000
 5627.00    2.37223   2.30113   -1.000
 5628.00    2.38817   2.33226   -1.000
 5629.00    2.41691   2.35188   -1.000
 5630.00    2.43118   2.36538   -1.000
 5631.00    2.42943   2.37109   -1.000
 5632.00    2.41770   2.36447   -1.000
 5633.00    2.41833   2.35251   -1.000
 5634.00    2.41755   2.34260   -1.000
 5635.00    2.40898   2.33063   -1.000
 5636.00    2.38986   2.31891   -1.000
 5637.00    2.37923   2.30946   -1.000
 5638.00    2.37649   2.30562   -1.000
 5639.00    2.36266   2.31054   -1.000
 5640.00    2.36899   2.31230   -1.000
 5641.00    2.37428   2.30555   -1.000
 5642.00    2.38023   2.30651   -1.000
 5643.00    2.38199   2.31454   -1.000
 5644.00    2.37908   2.32102   -1.000
 5645.00    2.38472   2.32861   -1.000
 5646.00    2.40112   2.33733   -1.000
 5647.00    2.40676   2.34225   -1.000
 5648.00    2.41068   2.34205   -1.000
 5649.00    2.42929   2.33763   -1.000
 5650.00    2.42449   2.33630   -1.000
 5651.00    2.43195   2.34459   -1.000
 5652.00    2.46094   2.35194   -1.000
 5653.00    2.44808   2.35156   -1.000
 5654.00    2.41428   2.34125   -1.000
 5655.00    2.39973   2.32474   -1.000
 5656.00    2.38687   2.30203   -1.000
 5657.00    2.33281   2.26372   -1.000
 5658.00    2.27886   2.22397   -1.000
 5659.00    2.29958   2.21794   -1.000
 5660.00    2.35067   2.24155   -1.000
 5661.00    2.36418   2.26567   -1.000
 5662.00    2.37050   2.27853   -1.000
 5663.00    2.35804   2.28352   -1.000
 5664.00    2.36816   2.30254   -1.000
 5665.00    2.39277   2.33208   -1.000
 5666.00    2.38604   2.34254   -1.000
 5667.00    2.39299   2.33490   -1.000
 5668.00    2.37311   2.32605   -1.000
 5669.00    2.38420   2.32494   -1.000
 5670.00    2.40548   2.33380   -1.000
 5671.00    2.41142   2.34685   -1.000
 5672.00    2.41544   2.36056   -1.000
 5673.00    2.45032   2.37183   -1.000
 5674.00    2.46029   2.37975   -1.000
 5675.00    2.44157   2.37946   -1.000
 5676.00    2.44685   2.37950   -1.000
 5677.00    2.46056   2.38341   -1.000
 5678.00    2.45843   2.38642   -1.000
 5679.00    2.45232   2.38165   -1.000
 5680.00    2.45876   2.36800   -1.000
 5681.00    2.43601   2.34458   -1.000
 5682.00    2.39966   2.31584   -1.000
 5683.00    2.38886   2.29566   -1.000
 5684.00    2.40321   2.29498   -1.000
 5685.00    2.44277   2.31403   -1.000
 5686.00    2.41784   2.32554   -1.000
 5687.00    2.37955   2.31564   -1.000
 5688.00    2.39814   2.30154   -1.000
 5689.00    2.41628   2.30007   -1.000
 5690.00    2.44090   2.32090   -1.000
 5691.00    2.44857   2.35209   -1.000
 5692.00    2.46957   2.37599   -1.000
 5693.00    2.49901   2.38833   -1.000
 5694.00    2.49853   2.39279   -1.000
 5695.00    2.49510   2.39479   -1.000
 5696.00    2.49464   2.39208   -1.000
 5697.00    2.48540   2.38680   -1.000
 5698.00    2.46079   2.37372   -1.000
 5699.00    2.42421   2.35446   -1.000
 5700.00    2.38940   2.33715   -1.000
 5701.00    2.36195   2.32428   -1.000
 5702.00    2.36907   2.32242   -1.000
 5703.00    2.39378   2.32932   -1.000
 5704.00    2.40316   2.34138   -1.000
 5705.00    2.40746   2.34243   -1.000
 5706.00    2.38001   2.32861   -1.000
 5707.00    2.34679   2.30585   -1.000
 5708.00    2.32477   2.27533   -1.000
 5709.00    2.30393   2.24510   -1.000
 5710.00    2.32239   2.23448   -1.000
 5711.00    2.33782   2.24486   -1.000
 5712.00    2.37224   2.27251   -1.000
 5713.00    2.42697   2.31608   -1.000
 5714.00    2.45612   2.35768   -1.000
 5715.00    2.46401   2.38280   -1.000
 5716.00    2.46781   2.39057   -1.000
 5717.00    2.46837   2.39676   -1.000
 5718.00    2.47389   2.40362   -1.000
 5719.00    2.49256   2.41286   -1.000
 5720.00    2.49763   2.42554   -1.000
 5721.00    2.51215   2.43932   -1.000
 5722.00    2.51520   2.44819   -1.000
 5723.00    2.51588   2.45251   -1.000
 5724.00    2.50018   2.45390   -1.000
 5725.00    2.50816   2.44734   -1.000
 5726.00    2.48993   2.42804   -1.000
 5727.00    2.46267   2.41076   -1.000
 5728.00    2.48542   2.40666   -1.000
 5729.00    2.50154   2.41453   -1.000
 5730.00    2.47923   2.42356   -1.000
 5731.00    2.47786   2.41972   -1.000
 5732.00    2.47991   2.41556   -1.000
 5733.00    2.51063   2.42329   -1.000
 5734.00    2.51592   2.44089   -1.000
 5735.00    2.51050   2.45509   -1.000
 5736.00    2.51255   2.45569   -1.000
 5737.00    2.51153   2.45010   -1.000
 5738.00    2.51041   2.44535   -1.000
 5739.00    2.50572   2.44600   -1.000
 5740.00    2.50624   2.44892   -1.000
 5741.00    2.49897   2.44743   -1.000
 5742.00    2.48329   2.44219   -1.000
 5743.00    2.49475   2.44195   -1.000
 5744.00    2.52400   2.44854   -1.000
 5745.00    2.53928   2.45862   -1.000
 5746.00    2.53431   2.45783   -1.000
 5747.00    2.51819   2.44738   -1.000
 5748.00    2.50702   2.44037   -1.000
 5749.00    2.51498   2.44694   -1.000
 5750.00    2.52074   2.45628   -1.000
 5751.00    2.49999   2.44772   -1.000
 5752.00    2.48212   2.42240   -1.000
 5753.00    2.47918   2.39541   -1.000
 5754.00    2.47878   2.38526   -1.000
 5755.00    2.49642   2.40524   -1.000
 5756.00    2.52818   2.43896   -1.000
 5757.00    2.54756   2.47040   -1.000
 5758.00    2.54187   2.48311   -1.000
 5759.00    2.53050   2.47806   -1.000
 5760.00    2.50472   2.45984   -1.000
 5761.00    2.48536   2.43317   -1.000
 5762.00    2.47481   2.40559   -1.000
 5763.00    2.48204   2.40059   -1.000
 5764.00    2.50974   2.42135   -1.000
 5765.00    2.52583   2.45726   -1.000
 5766.00    2.53092   2.48409   -1.000
 5767.00    2.53797   2.49227   -1.000
 5768.00    2.55897   2.49131   -1.000
 5769.00    2.53955   2.48845   -1.000
 5770.00    2.53280   2.48596   -1.000
 5771.00    2.50690   2.48051   -1.000
 5772.00    2.50130   2.46919   -1.000
 5773.00    2.48487   2.45661   -1.000
 5774.00    2.46894   2.45012  124.270
 5775.00    2.48099   2.44915   -1.000
 5776.00    2.49501   2.45593   -1.000
 5777.00    2.50589   2.46476   -1.000
 5778.00    2.47501   2.45883  123.438
 5779.00    2.42441   2.43457  123.790
 5780.00    2.35290   2.40196   -1.000
 5781.00    2.28906   2.37274   -1.000
 5782.00    2.30322   2.36161   -1.000
 5783.00    2.37530   2.36693  129.977
 5784.00    2.42468   2.37760   -1.000
 5785.00    2.44287   2.38243   -1.000
 5786.00    2.45868   2.39021   -1.000
 5787.00    2.49227   2.41490   -1.000
 5788.00    2.51183   2.43960   -1.000
 5789.00    2.51741   2.44789   -1.000
 5790.00    2.50829   2.44162   -1.000
 5791.00    2.50569   2.43301   -1.000
 5792.00    2.51673   2.44104   -1.000
 5793.00    2.54222   2.46164   -1.000
 5794.00    2.54673   2.48290   -1.000
 5795.00    2.53703   2.49762   -1.000
 5796.00    2.51026   2.50006  122.206
 5797.00    2.47027   2.48757  122.869
 5798.00    2.47691   2.47605  123.663
 5799.00    2.51927   2.48292   -1.000
 5800.00    2.55256   2.49991   -1.000
 5801.00    2.58227   2.51588   -1.000
 5802.00    2.59999   2.52209   -1.000
 5803.00    2.58703   2.51509   -1.000
 5804.00    2.57107   2.49889   -1.000
 5805.00    2.56775   2.48555   -1.000
 5806.00    2.56186   2.48369   -1.000
 5807.00    2.56121   2.48996   -1.000
 5808.00    2.56713   2.49664   -1.000
 5809.00    2.55886   2.50047   -1.000
 5810.00    2.56141   2.50583   -1.000
 5811.00    2.58285   2.51044   -1.000
 5812.00    2.58517   2.51012   -1.000
 5813.00    2.58334   2.50538   -1.000
 5814.00    2.56543   2.49711   -1.000
 5815.00    2.56365   2.48254   -1.000
 5816.00    2.56690   2.47134   -1.000
 5817.00    2.57475   2.47885   -1.000
 5818.00    2.58073   2.50140   -1.000
 5819.00    2.57693   2.51784   -1.000
 5820.00    2.57734   2.52297   -1.000
 5821.00    2.58288   2.52210   -1.000
 5822.00    2.58211   2.52123   -1.000
 5823.00    2.58043   2.52156   -1.000
 5824.00    2.59345   2.52091   -1.000
 5825.00    2.61030   2.52004   -1.000
 5826.00    2.62342   2.52308   -1.000
 5827.00    2.60622   2.52868   -1.000
 5828.00    2.61644   2.53331   -1.000
 5829.00    2.62268   2.53329   -1.000
 5830.00    2.62495   2.53281   -1.000
 5831.00    2.62880   2.53293   -1.000
 5832.00    2.61103   2.53238   -1.000
 5833.00    2.61761   2.52830   -1.000
 5834.00    2.61569   2.52082   -1.000
 5835.00    2.59664   2.51765   -1.000
 5836.00    2.57540   2.52301   -1.000
 5837.00    2.60134   2.53164   -1.000
 5838.00    2.61219   2.53362   -1.000
 5839.00    2.60754   2.53253   -1.000
 5840.00    2.61172   2.53511   -1.000
 5841.00    2.63029   2.54124   -1.000
 5842.00    2.61795   2.54468   -1.000
 5843.00    2.61036   2.54285   -1.000
 5844.00    2.62595   2.53855   -1.000
 5845.00    2.61175   2.53050   -1.000
 5846.00    2.57158   2.51850   -1.000
 5847.00    2.57035   2.50856   -1.000
 5848.00    2.57895   2.50748   -1.000
 5849.00    2.56731   2.51065   -1.000
 5850.00    2.56043   2.50737   -1.000
 5851.00    2.56214   2.49455   -1.000
 5852.00    2.52431   2.47353   -1.000
 5853.00    2.49594   2.45737   -1.000
 5854.00    2.51049   2.44851   -1.000
 5855.00    2.51240   2.44337   -1.000
 5856.00    2.50231   2.42403   -1.000
 5857.00    2.48028   2.38490   -1.000
 5858.00    2.48178   2.36853   -1.000
 5859.00    2.51736   2.39146   -1.000
 5860.00    2.55954   2.42717   -1.000
 5861.00    2.56570   2.45567   -1.000
 5862.00    2.55504   2.46744   -1.000
 5863.00    2.56747   2.47559   -1.000
 5864.00    2.56990   2.48637   -1.000
 5865.00    2.55894   2.48353   -1.000
 5866.00    2.54492   2.46959   -1.000
 5867.00    2.53010   2.45969   -1.000
 5868.00    2.55172   2.46498   -1.000
 5869.00    2.58567   2.48830   -1.000
 5870.00    2.59374   2.51175   -1.000
 5871.00    2.59018   2.52241   -1.000
 5872.00    2.61360   2.51756   -1.000
 5873.00    2.62295   2.50651   -1.000
 5874.00    2.59328   2.49693   -1.000
 5875.00    2.57731   2.49151   -1.000
 5876.00    2.58287   2.48820   -1.000
 5877.00    2.58077   2.48549   -1.000
 5878.00    2.57253   2.48056   -1.000
 5879.00    2.56521   2.47188   -1.000
 5880.00    2.55128   2.46262   -1.000
 5881.00    2.55845   2.45539   -1.000
 5882.00    2.55478   2.44570   -1.000
 5883.00    2.53580   2.43145   -1.000
 5884.00    2.54231   2.41606   -1.000
 5885.00    2.53464   2.40508   -1.000
 5886.00    2.49402   2.38801   -1.000
 5887.00    2.37054   2.32038   -1.000
 5888.00    2.20320   2.18087   -1.000
 5889.00    1.92228   2.01176   -1.000
 5890.00    1.50693   1.91388   -1.000
 5891.00    1.29884   1.96293   -1.000
 5892.00    1.43210   2.05805   -1.000
 5893.00    1.81609   2.11606   -1.000
 5894.00    2.06111   2.09671   -1.000
 5895.00    2.00786   2.03218   -1.000
 5896.00    1.82250   1.99523   -1.000
 5897.00    1.71656   2.03694   -1.000
 5898.00    1.85223   2.14736   -1.000
 5899.00    2.11945   2.24018   -1.000
 5900.00    2.36564   2.30633   -1.000
 5901.00    2.50199   2.36497   -1.000
 5902.00    2.53409   2.40965   -1.000
 5903.00    2.54753   2.43529   -1.000
 5904.00    2.55027   2.44587   -1.000
 5905.00    2.55561   2.44967   -1.000
 5906.00    2.57006   2.45604   -1.000
 5907.00    2.56462   2.46336   -1.000
 5908.00    2.55542   2.47074   -1.000
 5909.00    2.55829   2.47760   -1.000
 5910.00    2.56496   2.48301   -1.000
 5911.00    2.56014   2.48441   -1.000
 5912.00    2.53874   2.47762   -1.000
 5913.00    2.52196   2.45690   -1.000
 5914.00    2.51907   2.43594   -1.000
 5915.00    2.51261   2.42754   -1.000
 5916.00    2.50019   2.43142   -1.000
 5917.00    2.51246   2.44579   -1.000
 5918.00    2.54616   2.46613   -1.000
 5919.00    2.56285   2.48361   -1.000
 5920.00    2.55037   2.48963   -1.000
 5921.00    2.54065   2.48947   -1.000
 5922.00    2.54549   2.48537   -1.000
 5923.00    2.55482   2.48407   -1.000
 5924.00    2.57202   2.48790   -1.000
 5925.00    2.58385   2.49765   -1.000
 5926.00    2.57664   2.50798   -1.000
 5927.00    2.57316   2.50862   -1.000
 5928.00    2.55556   2.49400   -1.000
 5929.00    2.53275   2.47428   -1.000
 5930.00    2.53709   2.46518   -1.000
 5931.00    2.55726   2.47340   -1.000
 5932.00    2.56932   2.49207   -1.000
 5933.00    2.57543   2.49621   -1.000
 5934.00    2.56878   2.48954   -1.000
 5935.00    2.55869   2.49169   -1.000
 5936.00    2.56099   2.50280   -1.000
 5937.00    2.57645   2.51602   -1.000
 5938.00    2.57859   2.52247   -1.000
 5939.00    2.58569   2.51678   -1.000
 5940.00    2.57535   2.50374   -1.000
 5941.00    2.56175   2.49088   -1.000
 5942.00    2.55386   2.48901   -1.000
 5943.00    2.57090   2.49625   -1.000
 5944.00    2.60173   2.50789   -1.000
 5945.00    2.61460   2.51601   -1.000
 5946.00    2.60587   2.51664   -1.000
 5947.00    2.57633   2.50653   -1.000
 5948.00    2.54498   2.49253   -1.000
 5949.00    2.54261   2.48713   -1.000
 5950.00    2.55795   2.49209   -1.000
 5951.00    2.56428   2.49874   -1.000
 5952.00    2.56520   2.49191   -1.000
 5953.00    2.55998   2.48472   -1.000
 5954.00    2.57126   2.49155   -1.000
 5955.00    2.54855   2.49473   -1.000
 5956.00    2.52225   2.48657   -1.000
 5957.00    2.53869   2.48210   -1.000
 5958.00    2.56350   2.48721   -1.000
 5959.00    2.59226   2.50471   -1.000
 5960.00    2.60538   2.52527   -1.000
 5961.00    2.59945   2.53781   -1.000
 5962.00    2.60322   2.54280   -1.000
 5963.00    2.59601   2.54232   -1.000
 5964.00    2.59312   2.53650   -1.000
 5965.00    2.59632   2.52812   -1.000
 5966.00    2.60537   2.52247   -1.000
 5967.00    2.62182   2.52391   -1.000
 5968.00    2.61743   2.53051   -1.000
 5969.00    2.62540   2.53786   -1.000
 5970.00    2.64028   2.54834   -1.000
 5971.00    2.63044   2.55624   -1.000
 5972.00    2.61650   2.55762   -1.000
 5973.00    2.59349   2.55382   -1.000
 5974.00    2.58082   2.54278   -1.000
 5975.00    2.58341   2.52369   -1.000
 5976.00    2.57795   2.50301   -1.000
 5977.00    2.55314   2.49171   -1.000
 5978.00    2.53501   2.49760   -1.000
 5979.00    2.56131   2.51534   -1.000
 5980.00    2.58330   2.53500   -1.000
 5981.00    2.60137   2.54244   -1.000
 5982.00    2.59721   2.53205   -1.000
 5983.00    2.55612   2.50747   -1.000
 5984.00    2.53325   2.48708   -1.000
 5985.00    2.54714   2.48593   -1.000
 5986.00    2.56146   2.50066   -1.000
 5987.00    2.57257   2.51853   -1.000
 5988.00    2.59202   2.53120   -1.000
 5989.00    2.60645   2.53939   -1.000
 5990.00    2.61041   2.54131   -1.000
 5991.00    2.61095   2.54069   -1.000
 5992.00    2.62444   2.54638   -1.000
 5993.00    2.63926   2.56591   -1.000
 5994.00    2.62849   2.58028   -1.000
 5995.00    2.61650   2.57621   -1.000
 5996.00    2.62380   2.56303   -1.000
 5997.00    2.61632   2.54915   -1.000
 5998.00    2.61530   2.54510   -1.000
 5999.00    2.61419   2.54799   -1.000
 6000.00    2.60055   2.55173   -1.000
 6001.00    2.60696   2.54881   -1.000
 6002.00    2.61764   2.53786   -1.000
 6003.00    2.61156   2.52859   -1.000
 6004.00    2.58440   2.53075   -1.000
 6005.00    2.58694   2.53698   -1.000
 6006.00    2.57674   2.52674   -1.000
 6007.00    2.54542   2.50206   -1.000
 6008.00    2.54990   2.48902   -1.000
 6009.00    2.58242   2.50040   -1.000
 6010.00    2.59678   2.52978   -1.000
 6011.00    2.60897   2.54901   -1.000
 6012.00    2.58903   2.54573   -1.000
 6013.00    2.57342   2.53769   -1.000
 6014.00    2.59528   2.53045   -1.000
 6015.00    2.58747   2.52930   -1.000
 6016.00    2.58858   2.52872   -1.000
 6017.00    2.60416   2.52653   -1.000
 6018.00    2.61441   2.52418   -1.000
 6019.00    2.59838   2.51717   -1.000
 6020.00    2.58358   2.50503   -1.000
 6021.00    2.58533   2.49906   -1.000
 6022.00    2.60079   2.50696   -1.000
 6023.00    2.60637   2.51378   -1.000
 6024.00    2.61989   2.51891   -1.000
 6025.00    2.64064   2.53735   -1.000
 6026.00    2.64227   2.56052   -1.000
 6027.00    2.61884   2.57225   -1.000
 6028.00    2.62576   2.58238   -1.000
 6029.00    2.65151   2.59529   -1.000
 6030.00    2.65606   2.60232   -1.000
 6031.00    2.65870   2.60305   -1.000
 6032.00    2.66624   2.60520   -1.000
 6033.00    2.67665   2.61120   -1.000
 6034.00    2.67167   2.61810   -1.000
 6035.00    2.66595   2.62010   -1.000
 6036.00    2.67725   2.61696   -1.000
 6037.00    2.68016   2.61372   -1.000
 6038.00    2.65794   2.60965   -1.000
 6039.00    2.63971   2.60278   -1.000
 6040.00    2.64464   2.59528   -1.000
 6041.00    2.66578   2.59105   -1.000
 6042.00    2.68106   2.59270   -1.000
 6043.00    2.66591   2.59993   -1.000
 6044.00    2.65968   2.61104   -1.000
 6045.00    2.67075   2.62060   -1.000
 6046.00    2.67045   2.62505   -1.000
 6047.00    2.67497   2.63114   -1.000
 6048.00    2.68160   2.63752   -1.000
 6049.00    2.67216   2.63931   -1.000
 6050.00    2.68434   2.63835   -1.000
 6051.00    2.68935   2.63775   -1.000
 6052.00    2.67421   2.63491   -1.000
 6053.00    2.66130   2.62503   -1.000
 6054.00    2.66178   2.61118   -1.000
 6055.00    2.67397   2.59690   -1.000
 6056.00    2.65942   2.59064   -1.000
 6057.00    2.65891   2.59535   -1.000
 6058.00    2.65900   2.60771   -1.000
 6059.00    2.64813   2.61911   -1.000
 6060.00    2.64341   2.62716  124.929
 6061.00    2.65171   2.62909   -1.000
 6062.00    2.65544   2.61939   -1.000
 6063.00    2.61728   2.59640  126.837
 6064.00    2.59882   2.56307   -1.000
 6065.00    2.59200   2.53813   -1.000
 6066.00    2.60360   2.54881   -1.000
 6067.00    2.25618   2.58241   -1.000
 6068.00    1.41728   2.61306   -1.000
 6069.00    2.21246   2.63562   -1.000
 6070.00    2.70613   2.64690   -1.000
 6071.00    2.69182   2.65103   -1.000
 6072.00    2.68458   2.65303   -1.000
 6073.00    2.35625   2.65596   -1.000
 6074.00    1.20877   2.65872   -1.000
 6075.00    1.90563   2.65679   -1.000
 6076.00    2.60869   2.64899   -1.000
 6077.00    2.67528   2.63399   -1.000
 6078.00    2.64660   2.61404   -1.000
 6079.00    2.63708   2.60268   -1.000
 6080.00    2.63202   2.60108   -1.000
 6081.00    2.63791   2.59616   -1.000
 6082.00    2.63547   2.58959   -1.000
 6083.00    2.65287   2.58730   -1.000
 6084.00    2.63951   2.58649   -1.000
 6085.00    2.63270   2.59018   -1.000
 6086.00    2.65075   2.60164   -1.000
 6087.00    2.65612   2.61507   -1.000
 6088.00    2.65117   2.61859   -1.000
 6089.00    2.64154   2.61209   -1.000
 6090.00    2.61136   2.60252  127.791
 6091.00    2.62474   2.59635   -1.000
 6092.00    2.65184   2.59958   -1.000
 6093.00    2.67544   2.60956   -1.000
 6094.00    2.70284   2.62229   -1.000
 6095.00    2.70143   2.63236   -1.000
 6096.00    2.68171   2.64051   -1.000
 6097.00    2.67413   2.64565   -1.000
 6098.00    2.66751   2.64824  125.966
 6099.00    2.65603   2.64374  126.088
 6100.00    2.64328   2.61740   -1.000
 6101.00    2.60260   2.56481   -1.000
 6102.00    2.54361   2.50491   -1.000
 6103.00    2.54803   2.48300   -1.000
 6104.00    2.61189   2.51833   -1.000
 6105.00    2.65230   2.56647   -1.000
 6106.00    2.63793   2.60145   -1.000
 6107.00    2.63624   2.62124  127.022
 6108.00    2.64515   2.63317  127.391
 6109.00    2.64837   2.64450  127.752
 6110.00    2.65541   2.64818  127.752
 6111.00    2.66988   2.64509   -1.000
 6112.00    2.68182   2.64595   -1.000
 6113.00    2.69134   2.65232   -1.000
 6114.00    2.69856   2.66078   -1.000
 6115.00    2.68927   2.66328   -1.000
 6116.00    2.67055   2.65835  126.293
 6117.00    2.66051   2.65570  127.093
 6118.00    2.65857   2.64938  127.387
 6119.00    2.63051   2.62751  127.914
 6120.00    2.59453   2.58413  129.580
 6121.00    2.57602   2.52567   -1.000
 6122.00    2.56205   2.48997   -1.000
 6123.00    2.58144   2.49572   -1.000
 6124.00    2.62578   2.52853   -1.000
 6125.00    2.63522   2.57017   -1.000
 6126.00    2.62062   2.59759   -1.000
 6127.00    2.63036   2.60894   -1.000
 6128.00    2.64755   2.61079   -1.000
 6129.00    2.66612   2.62332   -1.000
 6130.00    2.68436   2.64649   -1.000
 6131.00    2.68622   2.66611  127.260
 6132.00    2.68477   2.67752  126.835
 6133.00    2.64897   2.67469  127.017
 6134.00    2.58534   2.64204   -1.000
 6135.00    2.54447   2.57563   -1.000
 6136.00    2.50491   2.49892  134.472
 6137.00    2.50577   2.45911   -1.000
 6138.00    2.54554   2.48071   -1.000
 6139.00    2.58346   2.50947   -1.000
 6140.00    2.60852   2.52232   -1.000
 6141.00    2.59859   2.54656   -1.000
 6142.00    2.60012   2.58239  130.277
 6143.00    2.64439   2.62247   -1.000
 6144.00    2.70229   2.65020   -1.000
 6145.00    2.70207   2.65721   -1.000
 6146.00    2.68107   2.65261   -1.000
 6147.00    2.66133   2.64032   -1.000
 6148.00    2.63786   2.62487  128.770
 6149.00    2.62225   2.60929  129.688
 6150.00    2.60782   2.59513  130.479
 6151.00    2.60758   2.59862  130.615
 6152.00    2.62731   2.62054  130.200
 6153.00    2.63359   2.63021  129.352
 6154.00    2.60960   2.61933  129.054
 6155.00    2.60337   2.60561  129.955
 6156.00    2.60781   2.59994  130.731
 6157.00    2.58071   2.59995  130.909
 6158.00    2.54567   2.59339   -1.000
 6159.00    2.51608   2.56252   -1.000
 6160.00    2.46428   2.49363   -1.000
 6161.00    2.41545   2.40672  138.848
 6162.00    2.39532   2.34274   -1.000
 6163.00    2.41798   2.33862   -1.000
 6164.00    2.44787   2.38071   -1.000
 6165.00    2.47952   2.43242   -1.000
 6166.00    2.48107   2.47569  137.011
 6167.00    2.47025   2.49026  136.208
 6168.00    2.45887   2.46830  136.432
 6169.00    2.43899   2.43685  137.987
 6170.00    2.44969   2.44540  139.492
 6171.00    2.46762   2.48209  138.876
 6172.00    2.49525   2.51970   -1.000
 6173.00    2.52869   2.54902  134.332
 6174.00    2.54680   2.56773  134.135
 6175.00    2.52916   2.57567   -1.000
 6176.00    2.53917   2.57849   -1.000
 6177.00    2.53884   2.58679   -1.000
 6178.00    2.55285   2.59592   -1.000
 6179.00    2.56478   2.60067   -1.000
 6180.00    2.58186   2.60608  132.281
 6181.00    2.58360   2.61776   -1.000
 6182.00    2.57620   2.63004   -1.000
 6183.00    2.58541   2.63397   -1.000
 6184.00    2.59539   2.62800   -1.000
 6185.00    2.59031   2.61591   -1.000
 6186.00    2.55434   2.59839   -1.000
 6187.00    2.51368   2.58176   -1.000
 6188.00    2.50293   2.56933   -1.000
 6189.00    2.50179   2.54990   -1.000
 6190.00    2.47133   2.51305   -1.000
 6191.00    2.43809   2.48233   -1.000
 6192.00    2.45964   2.49574   -1.000
 6193.00    2.50209   2.53471   -1.000
 6194.00    2.52283   2.56746   -1.000
 6195.00    2.54390   2.59354   -1.000
 6196.00    2.56436   2.61095   -1.000
 6197.00    2.56519   2.61598   -1.000
 6198.00    2.53799   2.60640   -1.000
 6199.00    2.51260   2.58856   -1.000
 6200.00    2.51025   2.57935   -1.000
 6201.00    2.53404   2.58818   -1.000
 6202.00    2.55719   2.60481   -1.000
 6203.00    2.55119   2.62373   -1.000
 6204.00    2.52598   2.63871   -1.000
 6205.00    2.54423   2.64727   -1.000
 6206.00    2.58135   2.65137   -1.000
 6207.00    2.59417   2.65518   -1.000
 6208.00    2.59538   2.65697   -1.000
 6209.00    2.58910   2.65223   -1.000
 6210.00    2.57319   2.63842   -1.000
 6211.00    2.54999   2.61410   -1.000
 6212.00    2.51487   2.58044   -1.000
 6213.00    2.47939   2.54845   -1.000
 6214.00    2.46925   2.53138   -1.000
 6215.00    2.48142   2.52923   -1.000
 6216.00    2.50070   2.53415   -1.000
 6217.00    2.51176   2.53619   -1.000
 6218.00    2.50903   2.52873  138.030
 6219.00    2.49734   2.52239   -1.000
 6220.00    2.48393   2.52753   -1.000
 6221.00    2.49736   2.54567   -1.000
 6222.00    2.53638   2.56022  138.154
 6223.00    2.55349   2.56519  146.765
 6224.00    2.53551   2.56984   -1.000
 6225.00    2.53354   2.57232   -1.000
 6226.00    2.55187   2.57391  136.662
 6227.00    2.52486   2.56774   -1.000
 6228.00    2.50043   2.54396   -1.000
 6229.00    2.48391   2.50402  139.185
 6230.00    2.46324   2.46647  141.457
 6231.00    2.46446   2.45583  143.371
 6232.00    2.47686   2.47586  143.191
 6233.00    2.51130   2.51347  141.323
 6234.00    2.54365   2.55043  138.728
 6235.00    2.54576   2.57154   -1.000
 6236.00    2.52433   2.57423   -1.000
 6237.00    2.51518   2.56159   -1.000
 6238.00    2.48976   2.54744   -1.000
 6239.00    2.46364   2.53699   -1.000
 6240.00    2.47181   2.53156   -1.000
 6241.00    2.48715   2.52771   -1.000
 6242.00    2.48648   2.51844   -1.000
 6243.00    2.46622   2.50159   -1.000
 6244.00    2.47415   2.48374  142.963
 6245.00    2.49242   2.47141   -1.000
 6246.00    2.49990   2.47593   -1.000
 6247.00    2.52440   2.50493  140.934
 6248.00    2.54912   2.54451  139.199
 6249.00    2.53699   2.57469   -1.000
 6250.00    2.52748   2.57530   -1.000
 6251.00    2.50165   2.54937   -1.000
 6252.00    2.47532   2.51162   -1.000
 6253.00    2.46148   2.48618   -1.000
 6254.00    2.46097   2.47976  143.730
 6255.00    2.45851   2.48287   -1.000
 6256.00    2.44901   2.48439   -1.000
 6257.00    2.43879   2.47912   -1.000
 6258.00    2.41566   2.47948   -1.000
 6259.00    2.41349   2.49096   -1.000
 6260.00    2.45014   2.51451   -1.000
 6261.00    2.49068   2.54552   -1.000
 6262.00    2.53316   2.57616   -1.000
 6263.00    2.56139   2.59264   -1.000
 6264.00    2.55746   2.59324   -1.000
 6265.00    2.55480   2.59315   -1.000
 6266.00    2.55326   2.60064   -1.000
 6267.00    2.54185   2.61130   -1.000
 6268.00    2.54459   2.61231   -1.000
 6269.00    2.53505   2.60264   -1.000
 6270.00    2.54563   2.59650   -1.000
 6271.00    2.54569   2.60142   -1.000
 6272.00    2.55461   2.61214   -1.000
 6273.00    2.56416   2.61398   -1.000
 6274.00    2.55134   2.59583   -1.000
 6275.00    2.54672   2.56583  138.809
 6276.00    2.53837   2.53227  139.925
 6277.00    2.51493   2.50929  141.940
 6278.00    2.45114   2.49627   -1.000
 6279.00    2.39256   2.48808   -1.000
 6280.00    2.37179   2.49315   -1.000
 6281.00    2.37689   2.51372   -1.000
 6282.00    2.39732   2.54251   -1.000
 6283.00    2.40967   2.57474   -1.000
 6284.00    2.39660   2.59981   -1.000
 6285.00    2.40874   2.61691   -1.000
 6286.00    2.46544   2.62727   -1.000
 6287.00    2.51569   2.63499   -1.000
 6288.00    2.52804   2.63754   -1.000
 6289.00    2.54776   2.62898   -1.000
 6290.00    2.54638   2.61762   -1.000
 6291.00    2.52754   2.61051   -1.000
 6292.00    2.53421   2.60668   -1.000
 6293.00    2.54137   2.60651   -1.000
 6294.00    2.55335   2.60758   -1.000
 6295.00    2.53675   2.60093   -1.000
 6296.00    2.51772   2.58177   -1.000
 6297.00    2.49486   2.56430   -1.000
 6298.00    2.49470   2.56045   -1.000
 6299.00    2.50845   2.56175   -1.000
 6300.00    2.48392   2.55507   -1.000
 6301.00    2.43810   2.54221   -1.000
 6302.00    2.44326   2.54517   -1.000
 6303.00    2.47880   2.57352   -1.000
 6304.00    2.51665   2.60694   -1.000
 6305.00    2.55897   2.63066   -1.000
 6306.00    2.58823   2.64665   -1.000
 6307.00    2.58770   2.65573   -1.000
 6308.00    2.59159   2.65755   -1.000
 6309.00    2.59208   2.65727   -1.000
 6310.00    2.58490   2.65642   -1.000
 6311.00    2.58191   2.65315   -1.000
 6312.00    2.58089   2.64791   -1.000
 6313.00    2.57922   2.63519   -1.000
 6314.00    2.56938   2.61852   -1.000
 6315.00    2.57697   2.60577   -1.000
 6316.00    2.57157   2.59522  140.395
 6317.00    2.56446   2.58613  140.405
 6318.00    2.56681   2.58584  140.264
 6319.00    2.57567   2.60417   -1.000
 6320.00    2.58056   2.63183   -1.000
 6321.00    2.59209   2.64841   -1.000
 6322.00    2.60001   2.65715   -1.000
 6323.00    2.59833   2.67347   -1.000
 6324.00    2.60832   2.69091   -1.000
 6325.00    2.63118   2.69930   -1.000
 6326.00    2.65498   2.70072   -1.000
 6327.00    2.66394   2.69837   -1.000
 6328.00    2.66778   2.69823   -1.000
 6329.00    2.67085   2.69940   -1.000
 6330.00    2.66532   2.70175   -1.000
 6331.00    2.67153   2.70872   -1.000
 6332.00    2.67233   2.71277   -1.000
 6333.00    2.64301   2.69986   -1.000
 6334.00    2.61297   2.66976   -1.000
 6335.00    2.59716   2.63699   -1.000
 6336.00    2.61453   2.62150  136.689
 6337.00    2.67355   2.63075   -1.000
 6338.00    2.70144   2.65024   -1.000
 6339.00    2.68162   2.67377  135.488
 6340.00    2.68028   2.69918  134.016
 6341.00    2.70138   2.71370  133.166
 6342.00    2.70583   2.71096  132.539
 6343.00    2.69626   2.69811  132.459
 6344.00    2.68721   2.68599  133.425
 6345.00    2.67494   2.68243  133.891
 6346.00    2.68660   2.68863  133.619
 6347.00    2.70373   2.70734  132.966
 6348.00    2.72309   2.73273  132.072
 6349.00    2.72735   2.75072  131.463
 6350.00    2.71445   2.75697   -1.000
 6351.00    2.70711   2.75549   -1.000
 6352.00    2.69585   2.74682   -1.000
 6353.00    2.68497   2.73061   -1.000
 6354.00    2.67774   2.71193   -1.000
 6355.00    2.67111   2.70153   -1.000
 6356.00    2.65898   2.69796   -1.000
 6357.00    2.64131   2.68724   -1.000
 6358.00    2.62391   2.67328   -1.000
 6359.00    2.62489   2.66612   -1.000
 6360.00    2.64309   2.66023  137.595
 6361.00    2.65466   2.65041  137.286
 6362.00    2.65358   2.64442  136.788
 6363.00    2.64292   2.64805  136.590
 6364.00    2.66390   2.65937  136.210
 6365.00    2.69081   2.67434  135.403
 6366.00    2.69031   2.69126  134.520
 6367.00    2.69181   2.70750  133.767
 6368.00    2.71233   2.71551  132.952
 6369.00    2.74358   2.71331   -1.000
 6370.00    2.74238   2.71071   -1.000
 6371.00    2.73389   2.71709  131.596
 6372.00    2.75769   2.73157   -1.000
 6373.00    2.77150   2.74467   -1.000
 6374.00    2.75967   2.74948  130.907
 6375.00    2.74471   2.74709  131.097
 6376.00    2.73221   2.73943  131.325
 6377.00    2.71727   2.72833  131.768
 6378.00    2.69269   2.71863  132.400
 6379.00    2.66714   2.71006   -1.000
 6380.00    2.67927   2.70167  133.869
 6381.00    2.69930   2.69526  134.052
 6382.00    2.71656   2.69269   -1.000
 6383.00    2.74000   2.69414   -1.000
 6384.00    2.72499   2.70122   -1.000
 6385.00    2.69573   2.71373  134.381
 6386.00    2.69244   2.72432   -1.000
 6387.00    2.69635   2.72611   -1.000
 6388.00    2.69466   2.72418   -1.000
 6389.00    2.67832   2.72349   -1.000
 6390.00    2.66024   2.71950   -1.000
 6391.00    2.64526   2.70092   -1.000
 6392.00    2.62003   2.67348   -1.000
 6393.00    2.59317   2.65749   -1.000
 6394.00    2.58796   2.66636   -1.000
 6395.00    2.61361   2.69562   -1.000
 6396.00    2.64645   2.72105   -1.000
 6397.00    2.64307   2.72425   -1.000
 6398.00    2.59196   2.69835   -1.000
 6399.00    2.54200   2.66411   -1.000
 6400.00    2.52466   2.65290   -1.000
 6401.00    2.54769   2.67151   -1.000
 6402.00    2.58272   2.70803   -1.000
 6403.00    2.59741   2.74177   -1.000
 6404.00    2.58863   2.76084   -1.000
 6405.00    2.56327   2.75719   -1.000
 6406.00    2.53367   2.73618   -1.000
 6407.00    2.51422   2.71782   -1.000
 6408.00    2.50675   2.71729   -1.000
 6409.00    2.50086   2.72443   -1.000
 6410.00    2.47626   2.71938   -1.000
 6411.00    2.44042   2.71110   -1.000
 6412.00    2.42867   2.71502   -1.000
 6413.00    2.43062   2.72709   -1.000
 6414.00    2.42384   2.73539   -1.000
 6415.00    2.42124   2.73993   -1.000
 6416.00    2.42183   2.74557   -1.000
 6417.00    2.39839   2.74660   -1.000
 6418.00    2.35486   2.73350   -1.000
 6419.00    2.30769   2.70956   -1.000
 6420.00    2.26653   2.68864   -1.000
 6421.00    2.26555   2.68796   -1.000
 6422.00    2.28518   2.71754   -1.000
 6423.00    2.29083   2.75280   -1.000
 6424.00    2.27863   2.77601   -1.000
 6425.00    2.25137   2.79380   -1.000
 6426.00    2.24071   2.80519   -1.000
 6427.00    2.23841   2.80594   -1.000
 6428.00    2.21698   2.78712   -1.000
