###################################################################
## OUTPUT of StarlightChains_v04.for    [Cid@UFSC - 01/Apr/2007] ##
###################################################################

## Some input info
NGC6637_a_1.cxt                          [arq_obs]
Base.BC03.N                              [arq_base]
NGC6637_a_1.msk                          [arq_masks]
StCv04.C99.config                        [arq_config]
   45                                    [N_base]
    0                                    [N_YAV_components = # of components with extra extinction!]
    0                                    [i_FitPowerLaw (1/0 = Yes/No)]
-9.99                                    [alpha_PowerLaw]
CCM                                      [red_law_option]
 1.458241                                [q_norm = A(l_norm)/A(V)]

## (Re)Sampling Parameters
 3359.00                                 [l_ini (A)]
 6428.00                                 [l_fin (A)]
    1.00                                 [dl    (A)]     (OBS: dl_cushion =    50.00 A)

## Normalization info
 4020.00                                 [l_norm (A) - for base]
 4010.00                                 [llow_norm (A) - window for f_obs]
 4060.00                                 [lupp_norm (A) - window for f_obs]
1.782031E-14                             [fobs_norm (in input units)]

## S/N
 4730.00                                 [llow_SN (A) - window for S/N]
 4780.00                                 [lupp_SN (A) - window for S/N]
  44.619                                 [S/N in S/N window]
  30.665                                 [S/N in norm. window]
  98.004                                 [S/N_err in S/N window]
  67.353                                 [S/N_err in norm. window]
  1.0000                                 [fscale_chi2]

## etc...
  2147483594                             [idum_orig]
  3067                                   [NOl_eff]
  1282                                   [Nl_eff]
  1785    NSIGMA                         [Ntot_cliped & clip_method]
  1438360                                [Nglobal_steps]
   7                                     [N_chains]
   7                                     [NEX0s_base = N_base in EX0s-fits]
 0   0   1      151   2.0   8.103E+02    [Clip-Bug, RC-Crash & Burn-In warning-flags, n_censored_weights, wei_nsig_threshold & wei_limit]
    22     21.922     21.922      0.000  [idt_all, wdt_TotTime, wdt_UsrTime & wdt_SysTime (sec)]

## Synthesis Results - Best model ##

 2.62461E+00                             [chi2/Nl_eff]
     1.61384                             [adev (%)]

   100.55436                             [sum-of-x (%)]
 4.04487E-14                             [Flux_tot (units of input spectrum!)]
 1.48541E-09                             [Mini_tot (???)]
 7.46036E-10                             [Mcor_tot (???)]

   7.69                                  [v0_min  (km/s)]
  75.08                                  [vd_min  (km/s)]
 0.6062                                  [AV_min  (mag)]
 0.0000                                  [YAV_min (mag)]

# j     x_j(%)      Mini_j(%)     Mcor_j(%)     age_j(yr)     Z_j      (L/M)_j    YAV?  Mstars   component_j        a/Fe...       SSP_chi2r SSP_adev(%)   SSP_AV   SSP_x(%)
  1      1.3197     3.2082E-03    6.3877E-03    1.000000E+06  0.00400  1.114E-02    0   1.0000   age020_m42            0.0000     6.3836E+02    21.8720   4.0000    81.1666
  2      2.3803     1.5826E-03    3.1507E-03    3.160000E+06  0.00400  4.073E-02    0   0.9999   age045_m42            0.0000     1.1343E+02    10.4296   3.6327    93.5253
  3      0.0000     0.0000E+00    0.0000E+00    5.010000E+06  0.00400  2.534E-02    0   0.9488   age055_m42            0.0000     1.6951E+02    12.5368   4.0000    86.1368
  4      2.3885     5.0890E-03    8.9794E-03    1.000000E+07  0.00400  1.271E-02    0   0.8862   age070_m42            0.0000     1.5361E+02    12.9310   3.3052    88.9104
  5      0.0000     0.0000E+00    0.0000E+00    2.512000E+07  0.00400  5.070E-03    0   0.8174   age090_m42            0.0000     1.4327E+02    12.4217   3.1687    90.6788
  6      0.0000     0.0000E+00    0.0000E+00    4.000000E+07  0.00400  3.505E-03    0   0.7851   age104_m42            0.0000     1.1303E+02    10.7521   2.8174    94.9810
  7      0.0000     0.0000E+00    0.0000E+00    1.015200E+08  0.00400  2.268E-03    0   0.7207   age116_m42            0.0000     3.1745E+02    12.8656   2.5808   113.7762
  8      0.0000     0.0000E+00    0.0000E+00    2.861200E+08  0.00400  1.079E-03    0   0.6613   age125_m42            0.0000     3.2589E+02    12.9143   2.0732   116.7632
  9      0.0000     0.0000E+00    0.0000E+00    6.405400E+08  0.00400  5.077E-04    0   0.6197   age132_m42            0.0000     3.6018E+02    13.1812   1.6850   122.2921
 10      0.0000     0.0000E+00    0.0000E+00    9.047900E+08  0.00400  3.535E-04    0   0.6024   age135_m42            0.0000     2.4367E+02    11.0984   1.4835   119.8556
 11      0.0000     0.0000E+00    0.0000E+00    1.434000E+09  0.00400  1.910E-04    0   0.5716   age139_m42            0.0000     1.2290E+02     7.9630   0.9985   116.6200
 12      0.0000     0.0000E+00    0.0000E+00    2.500000E+09  0.00400  9.818E-05    0   0.5463   age150_m42            0.0000     3.1801E+01     4.1705   0.7907   108.8464
 13     23.9248     1.3732E+01    1.4295E+01    5.000000E+09  0.00400  4.718E-05    0   0.5228   age161_m42            0.0000     7.8102E+00     2.2657   0.6625   103.8377
 14     68.5010     8.4129E+01    8.3418E+01    1.100000E+10  0.00400  2.205E-05    0   0.4980   age185_m42            0.0000     5.9889E+00     2.3539   0.4045   101.4431
 15      0.0016     2.2679E-03    2.2248E-03    1.300000E+10  0.00400  1.883E-05    0   0.4927   age193_m42            0.0000     6.8922E+00     2.5527   0.3911   101.1509
 16      0.0000     0.0000E+00    0.0000E+00    1.000000E+06  0.02000  1.989E-02    0   1.0000   age020_m62            0.0000     6.0451E+02    21.1755   4.0000    81.6940
 17      0.0000     0.0000E+00    0.0000E+00    3.160000E+06  0.02000  3.772E-02    0   0.9858   age045_m62            0.0000     4.4659E+02    18.6332   4.0000    83.6376
 18      0.0000     0.0000E+00    0.0000E+00    5.010000E+06  0.02000  3.227E-02    0   0.9342   age055_m62            0.0000     1.3844E+02    12.0396   3.9260    88.8855
 19      0.0000     0.0000E+00    0.0000E+00    1.000000E+07  0.02000  1.011E-02    0   0.8751   age070_m62            0.0000     2.8434E+02    16.7058   3.3902    82.1344
 20      0.0000     0.0000E+00    0.0000E+00    2.512000E+07  0.02000  4.206E-03    0   0.8099   age090_m62            0.0000     2.2193E+02    14.8785   3.2993    84.0971
 21      0.0000     0.0000E+00    0.0000E+00    4.000000E+07  0.02000  3.373E-03    0   0.7799   age104_m62            0.0000     1.3549E+02    11.4083   2.9955    97.4165
 22      0.0000     0.0000E+00    0.0000E+00    1.015200E+08  0.02000  1.878E-03    0   0.7221   age116_m62            0.0000     2.7310E+02    12.5957   2.6461   112.5283
 23      0.0000     0.0000E+00    0.0000E+00    2.861200E+08  0.02000  8.869E-04    0   0.6700   age125_m62            0.0000     5.2308E+02    15.4505   2.0185   124.7425
 24      0.0000     0.0000E+00    0.0000E+00    6.405400E+08  0.02000  3.657E-04    0   0.6322   age132_m62            0.0000     3.5639E+02    13.0284   1.3483   127.8734
 25      0.0000     0.0000E+00    0.0000E+00    9.047900E+08  0.02000  2.312E-04    0   0.6152   age135_m62            0.0000     2.1389E+02    10.2091   1.0182   124.8239
 26      0.0000     0.0000E+00    0.0000E+00    1.434000E+09  0.02000  1.168E-04    0   0.5865   age139_m62            0.0000     6.1360E+01     5.8031   0.6947   114.5764
 27      0.0000     0.0000E+00    0.0000E+00    2.500000E+09  0.02000  5.505E-05    0   0.5610   age150_m62            0.0000     2.7525E+01     4.0580   0.3486   110.2740
 28      2.0385     2.1265E+00    2.2664E+00    5.000000E+09  0.02000  2.596E-05    0   0.5353   age161_m62            0.0000     4.1516E+01     5.5768   0.0081   110.4771
 29      0.0000     0.0000E+00    0.0000E+00    1.100000E+10  0.02000  1.169E-05    0   0.5103   age185_m62            0.0000     8.2426E+01     7.9722  -0.3867   112.9980
 30      0.0000     0.0000E+00    0.0000E+00    1.300000E+10  0.02000  9.691E-06    0   0.5047   age193_m62            0.0000     9.1311E+01     8.3705  -0.4370   113.4001
 31      0.0000     0.0000E+00    0.0000E+00    1.000000E+06  0.05000  2.651E-02    0   0.9998   age020_m72            0.0000     5.8142E+02    20.7876   4.0000    82.9001
 32      0.0000     0.0000E+00    0.0000E+00    3.160000E+06  0.05000  4.817E-02    0   0.9577   age045_m72            0.0000     2.7814E+02    15.2793   4.0000    86.9755
 33      0.0000     0.0000E+00    0.0000E+00    5.010000E+06  0.05000  3.101E-02    0   0.9147   age055_m72            0.0000     1.7764E+02    13.4074   3.9867    85.3413
 34      0.0000     0.0000E+00    0.0000E+00    1.000000E+07  0.05000  8.954E-03    0   0.8524   age070_m72            0.0000     2.2185E+02    13.5851   4.0000    86.7892
 35      0.0000     0.0000E+00    0.0000E+00    2.512000E+07  0.05000  4.207E-03    0   0.7902   age090_m72            0.0000     1.3319E+02    11.3656   3.7383    91.4108
 36      0.0000     0.0000E+00    0.0000E+00    4.000000E+07  0.05000  3.198E-03    0   0.7618   age104_m72            0.0000     1.7998E+02    11.1004   3.0776   105.3225
 37      0.0000     0.0000E+00    0.0000E+00    1.015200E+08  0.05000  1.716E-03    0   0.7092   age116_m72            0.0000     3.1580E+02    13.1996   2.7014   113.7410
 38      0.0000     0.0000E+00    0.0000E+00    2.861200E+08  0.05000  7.047E-04    0   0.6618   age125_m72            0.0000     5.0995E+02    15.1489   1.7895   125.8891
 39      0.0000     0.0000E+00    0.0000E+00    6.405400E+08  0.05000  2.633E-04    0   0.6253   age132_m72            0.0000     2.7387E+02    11.4928   0.9775   126.6952
 40      0.0000     0.0000E+00    0.0000E+00    9.047900E+08  0.05000  1.484E-04    0   0.6088   age135_m72            0.0000     9.8275E+01     7.4240   0.5790   117.5585
 41      0.0000     0.0000E+00    0.0000E+00    1.434000E+09  0.05000  7.827E-05    0   0.5847   age139_m72            0.0000     4.7531E+01     5.3734   0.2264   112.0456
 42      0.0000     0.0000E+00    0.0000E+00    2.500000E+09  0.05000  3.759E-05    0   0.5583   age150_m72            0.0000     4.7669E+01     6.0815  -0.0840   110.5690
 43      0.0000     0.0000E+00    0.0000E+00    5.000000E+09  0.05000  1.548E-05    0   0.5320   age161_m72            0.0000     8.0243E+01     7.8869  -0.5240   111.0102
 44      0.0000     0.0000E+00    0.0000E+00    1.100000E+10  0.05000  6.532E-06    0   0.5070   age185_m72            0.0000     1.5079E+02    10.4708  -0.9706   113.1111
 45      0.0000     0.0000E+00    0.0000E+00    1.300000E+10  0.05000  5.316E-06    0   0.5018   age193_m72            0.0000     1.9268E+02    10.9166  -1.0000   111.6898


## Synthesis Results - Average & Chains ##

# j      x_j: min, <> & last-chain-values for 1 ...  7 chains
  1      1.3197      1.3416      1.3379      1.5164      1.3141      1.4671      1.2374      1.3954      1.2766
  2      2.3803      0.4884      0.6984      0.5771      0.6108      0.4969      0.6676      0.6195      0.6049
  3      0.0000      0.2777      0.1955      0.2610      0.4290      0.3391      0.5097      0.3651      0.1452
  4      2.3885      1.9418      2.2012      2.2407      2.1767      1.9743      2.1674      2.2193      2.0306
  5      0.0000      0.1039      0.0000      0.0000      0.0000      0.2882      0.0803      0.0000      0.2147
  6      0.0000      0.0233      0.0000      0.0000      0.0000      0.0000      0.0155      0.0000      0.0000
  7      0.0000      0.0150      0.0000      0.0000      0.0173      0.0000      0.0000      0.0000      0.0000
  8      0.0000      0.0094      0.0000      0.0000      0.0000      0.0000      0.0000      0.0297      0.0000
  9      0.0000      0.0150      0.0000      0.0000      0.0000      0.0000      0.0000      0.0424      0.0000
 10      0.0000      0.0254      0.0000      0.0000      0.0000      0.0000      0.0000      0.0000      0.0060
 11      0.0000      0.0383      0.0000      0.0000      0.0209      0.0000      0.0000      0.0000      0.0000
 12      0.0000      0.2416      0.3473      0.4635      0.1637      0.0000      0.0628      0.1097      0.1855
 13     23.9248     25.9249     26.2429     26.0485     26.1511     26.2197     25.7714     26.0988     26.1944
 14     68.5010     66.5613     66.7088     66.2362     66.6774     68.0095     67.2723     67.4349     66.8521
 15      0.0016      0.6449      0.1218      0.9097      0.1107      0.0000      0.3690      0.5352      0.5633
 16      0.0000      0.2028      0.2064      0.0835      0.1037      0.0000      0.0197      0.0000      0.2463
 17      0.0000      0.0256      0.0000      0.0226      0.0000      0.0000      0.0000      0.0000      0.0000
 18      0.0000      0.4808      0.5139      0.4713      0.6615      0.6124      0.4124      0.4630      0.5555
 19      0.0000      0.0341      0.0000      0.0000      0.0000      0.0000      0.0000      0.0695      0.0000
 20      0.0000      0.0140      0.0000      0.0000      0.0000      0.0000      0.0000      0.0000      0.0000
 21      0.0000      0.0124      0.0000      0.0000      0.0000      0.0000      0.0000      0.0000      0.0000
 22      0.0000      0.0122      0.0000      0.0000      0.0000      0.0000      0.0000      0.0000      0.0000
 23      0.0000      0.0054      0.0005      0.0000      0.0000      0.0000      0.0000      0.0000      0.0000
 24      0.0000      0.0074      0.0000      0.0000      0.0000      0.0000      0.0000      0.0000      0.0040
 25      0.0000      0.0189      0.0000      0.0000      0.0000      0.0000      0.0000      0.0000      0.0000
 26      0.0000      0.0330      0.0000      0.0000      0.0000      0.0000      0.0000      0.0000      0.0000
 27      0.0000      0.1338      0.0000      0.0989      0.0000      0.0000      0.0629      0.0791      0.0000
 28      2.0385      0.3258      0.7389      0.7497      0.0000      0.2552      0.3932      0.6328      0.4283
 29      0.0000      0.5366      0.5282      0.4141      0.5726      0.0854      0.5849      0.0014      0.4963
 30      0.0000      0.4458      0.5416      0.0000      0.2541      0.6260      0.3167      0.0000      0.0000
 31      0.0000      0.0186      0.0000      0.0000      0.0365      0.0000      0.0000      0.0000      0.0000
 32      0.0000      0.0841      0.2121      0.0306      0.0000      0.0000      0.0496      0.0000      0.1630
 33      0.0000      0.0752      0.0000      0.0000      0.0000      0.1332      0.2496      0.1976      0.0000
 34      0.0000      0.0175      0.0000      0.0000      0.0715      0.0000      0.0000      0.0000      0.0000
 35      0.0000      0.0123      0.0000      0.0000      0.0000      0.0000      0.0054      0.0000      0.0000
 36      0.0000      0.0079      0.0000      0.0000      0.0000      0.0000      0.0000      0.0000      0.0000
 37      0.0000      0.0063      0.0000      0.0000      0.0000      0.0000      0.0000      0.0000      0.0000
 38      0.0000      0.0036      0.0000      0.0000      0.0000      0.0000      0.0000      0.0000      0.0000
 39      0.0000      0.0113      0.0000      0.0000      0.0000      0.0000      0.0000      0.0000      0.0000
 40      0.0000      0.0388      0.0000      0.0000      0.0000      0.0000      0.0000      0.0000      0.0000
 41      0.0000      0.1040      0.0000      0.0000      0.0000      0.0000      0.0387      0.0000      0.0074
 42      0.0000      0.2409      0.0000      0.4226      1.2149      0.0000      0.2901      0.2242      0.5788
 43      0.0000      0.0336      0.0000      0.0000      0.0000      0.0000      0.0000      0.0000      0.0000
 44      0.0000      0.0128      0.0000      0.0000      0.0000      0.0000      0.0000      0.0000      0.0000
 45      0.0000      0.0097      0.0000      0.0000      0.0000      0.0000      0.0000      0.0000      0.0000

# j      m_j: min, <> & last-chain-values for 1 ...  7 chains
  1  6.3877E-03  6.4337E-03  6.4247E-03  7.3496E-03  6.3552E-03  7.0484E-03  5.9382E-03  6.7910E-03  6.1763E-03
  2  3.1507E-03  6.4057E-04  9.1720E-04  7.6492E-04  8.0785E-04  6.5291E-04  8.7613E-04  8.2452E-04  8.0040E-04
  3  0.0000E+00  5.5551E-04  3.9153E-04  5.2769E-04  8.6545E-04  6.7944E-04  1.0203E-03  7.4116E-04  2.9299E-04
  4  8.9794E-03  7.2331E-03  8.2100E-03  8.4352E-03  8.1766E-03  7.3672E-03  8.0786E-03  8.3895E-03  7.6308E-03
  5  0.0000E+00  8.9485E-04  0.0000E+00  0.0000E+00  0.0000E+00  2.4870E-03  6.9165E-04  0.0000E+00  1.8654E-03
  6  0.0000E+00  2.7876E-04  0.0000E+00  0.0000E+00  0.0000E+00  0.0000E+00  1.8599E-04  0.0000E+00  0.0000E+00
  7  0.0000E+00  2.5443E-04  0.0000E+00  0.0000E+00  2.9568E-04  0.0000E+00  0.0000E+00  0.0000E+00  0.0000E+00
  8  0.0000E+00  3.0825E-04  0.0000E+00  0.0000E+00  0.0000E+00  0.0000E+00  0.0000E+00  9.8589E-04  0.0000E+00
  9  0.0000E+00  9.7933E-04  0.0000E+00  0.0000E+00  0.0000E+00  0.0000E+00  0.0000E+00  2.8082E-03  0.0000E+00
 10  0.0000E+00  2.3153E-03  0.0000E+00  0.0000E+00  0.0000E+00  0.0000E+00  0.0000E+00  0.0000E+00  5.4922E-04
 11  0.0000E+00  6.1206E-03  0.0000E+00  0.0000E+00  3.3618E-03  0.0000E+00  0.0000E+00  0.0000E+00  0.0000E+00
 12  0.0000E+00  7.1820E-02  1.0339E-01  1.3924E-01  4.9087E-02  0.0000E+00  1.8678E-02  3.3104E-02  5.5642E-02
 13  1.4295E+01  1.5347E+01  1.5556E+01  1.5584E+01  1.5612E+01  1.5549E+01  1.5266E+01  1.5679E+01  1.5644E+01
 14  8.3418E+01  8.0309E+01  8.0595E+01  8.0769E+01  8.1130E+01  8.2205E+01  8.1221E+01  8.2572E+01  8.1377E+01
 15  2.2248E-03  9.0149E-01  1.7043E-01  1.2852E+00  1.5604E-01  0.0000E+00  5.1619E-01  7.5924E-01  7.9435E-01
 16  0.0000E+00  5.4469E-04  5.5521E-04  2.2667E-04  2.8084E-04  0.0000E+00  5.2960E-05  0.0000E+00  6.6745E-04
 17  0.0000E+00  3.5795E-05  0.0000E+00  3.1878E-05  0.0000E+00  0.0000E+00  0.0000E+00  0.0000E+00  0.0000E+00
 18  0.0000E+00  7.4360E-04  7.9583E-04  7.3661E-04  1.0317E-03  9.4888E-04  6.3817E-04  7.2672E-04  8.6675E-04
 19  0.0000E+00  1.5768E-04  0.0000E+00  0.0000E+00  0.0000E+00  0.0000E+00  0.0000E+00  3.2620E-04  0.0000E+00
 20  0.0000E+00  1.4351E-04  0.0000E+00  0.0000E+00  0.0000E+00  0.0000E+00  0.0000E+00  0.0000E+00  0.0000E+00
 21  0.0000E+00  1.5289E-04  0.0000E+00  0.0000E+00  0.0000E+00  0.0000E+00  0.0000E+00  0.0000E+00  0.0000E+00
 22  0.0000E+00  2.5106E-04  0.0000E+00  0.0000E+00  0.0000E+00  0.0000E+00  0.0000E+00  0.0000E+00  0.0000E+00
 23  0.0000E+00  2.1976E-04  2.0533E-05  0.0000E+00  0.0000E+00  0.0000E+00  0.0000E+00  0.0000E+00  0.0000E+00
 24  0.0000E+00  6.8760E-04  0.0000E+00  0.0000E+00  0.0000E+00  0.0000E+00  0.0000E+00  0.0000E+00  3.7579E-04
 25  0.0000E+00  2.6797E-03  0.0000E+00  0.0000E+00  0.0000E+00  0.0000E+00  0.0000E+00  0.0000E+00  0.0000E+00
 26  0.0000E+00  8.8618E-03  0.0000E+00  0.0000E+00  0.0000E+00  0.0000E+00  0.0000E+00  0.0000E+00  0.0000E+00
 27  0.0000E+00  7.2844E-02  0.0000E+00  5.4426E-02  0.0000E+00  0.0000E+00  3.4283E-02  4.3699E-02  0.0000E+00
 28  2.2664E+00  3.5894E-01  8.1503E-01  8.3464E-01  0.0000E+00  2.8164E-01  4.3341E-01  7.0739E-01  4.7605E-01
 29  0.0000E+00  1.2514E+00  1.2333E+00  9.7591E-01  1.3465E+00  1.9940E-01  1.3649E+00  3.3300E-03  1.1677E+00
 30  0.0000E+00  1.2402E+00  1.5089E+00  0.0000E+00  7.1281E-01  1.7448E+00  8.8164E-01  0.0000E+00  0.0000E+00
 31  0.0000E+00  3.7550E-05  0.0000E+00  0.0000E+00  7.4130E-05  0.0000E+00  0.0000E+00  0.0000E+00  0.0000E+00
 32  0.0000E+00  8.9298E-05  2.2559E-04  3.2844E-05  0.0000E+00  0.0000E+00  5.2690E-05  0.0000E+00  1.7467E-04
 33  0.0000E+00  1.1854E-04  0.0000E+00  0.0000E+00  0.0000E+00  2.1032E-04  3.9361E-04  3.1595E-04  0.0000E+00
 34  0.0000E+00  8.8953E-05  0.0000E+00  0.0000E+00  3.6677E-04  0.0000E+00  0.0000E+00  0.0000E+00  0.0000E+00
 35  0.0000E+00  1.2340E-04  0.0000E+00  0.0000E+00  0.0000E+00  0.0000E+00  5.3752E-05  0.0000E+00  0.0000E+00
 36  0.0000E+00  1.0005E-04  0.0000E+00  0.0000E+00  0.0000E+00  0.0000E+00  0.0000E+00  0.0000E+00  0.0000E+00
 37  0.0000E+00  1.3989E-04  0.0000E+00  0.0000E+00  0.0000E+00  0.0000E+00  0.0000E+00  0.0000E+00  0.0000E+00
 38  0.0000E+00  1.7886E-04  0.0000E+00  0.0000E+00  0.0000E+00  0.0000E+00  0.0000E+00  0.0000E+00  0.0000E+00
 39  0.0000E+00  1.4368E-03  0.0000E+00  0.0000E+00  0.0000E+00  0.0000E+00  0.0000E+00  0.0000E+00  0.0000E+00
 40  0.0000E+00  8.5013E-03  0.0000E+00  0.0000E+00  0.0000E+00  0.0000E+00  0.0000E+00  0.0000E+00  0.0000E+00
 41  0.0000E+00  4.1501E-02  0.0000E+00  0.0000E+00  0.0000E+00  0.0000E+00  1.5437E-02  0.0000E+00  2.9817E-03
 42  0.0000E+00  1.9112E-01  0.0000E+00  3.3887E-01  9.7214E-01  0.0000E+00  2.3031E-01  1.8051E-01  4.6330E-01
 43  0.0000E+00  6.1604E-02  0.0000E+00  0.0000E+00  0.0000E+00  0.0000E+00  0.0000E+00  0.0000E+00  0.0000E+00
 44  0.0000E+00  5.3198E-02  0.0000E+00  0.0000E+00  0.0000E+00  0.0000E+00  0.0000E+00  0.0000E+00  0.0000E+00
 45  0.0000E+00  4.9025E-02  0.0000E+00  0.0000E+00  0.0000E+00  0.0000E+00  0.0000E+00  0.0000E+00  0.0000E+00

# AV, chi2 & Mass for <> & i_chain = 1 ...  7 solutions
AV       0.6062      0.5946      0.5983      0.5991      0.5982      0.6003      0.5967      0.6049      0.5980
chi2 2.6246E+00  2.6482E+00  2.6383E+00  2.6367E+00  2.6381E+00  2.6368E+00  2.6374E+00  2.6346E+00  2.6383E+00
Mass 7.4604E-10  7.4136E-10  7.4401E-10  7.3795E-10  7.3871E-10  7.4566E-10  7.4291E-10  7.4068E-10  7.3819E-10
   7.84                                  [v0_min (km/s) before EX0s...]
  74.59                                  [vd_min (km/s) before EX0s...]


## Synthetic spectrum (Best Model) ##l_obs f_obs f_syn wei
 3070    [Nl_obs]
 3359.00    0.00000   0.44303   -2.000
 3360.00    0.22523   0.40594   -1.000
 3361.00    0.22510   0.39566   -1.000
 3362.00    0.24452   0.41731   -1.000
 3363.00    0.27387   0.45712   -1.000
 3364.00    0.30388   0.49223   -1.000
 3365.00    0.30649   0.50648   -1.000
 3366.00    0.31021   0.49549   -1.000
 3367.00    0.31151   0.46711   -1.000
 3368.00    0.31185   0.43813   -1.000
 3369.00    0.29816   0.41956   -1.000
 3370.00    0.28736   0.41036   -1.000
 3371.00    0.27431   0.40656   -1.000
 3372.00    0.29888   0.40954   -1.000
 3373.00    0.30974   0.42587   -1.000
 3374.00    0.30838   0.45765   -1.000
 3375.00    0.33263   0.49719   -1.000
 3376.00    0.35501   0.52598   -1.000
 3377.00    0.35583   0.52823   -1.000
 3378.00    0.36028   0.50653   -1.000
 3379.00    0.35151   0.47625   -1.000
 3380.00    0.35123   0.45458   -1.000
 3381.00    0.34465   0.45257   -1.000
 3382.00    0.34890   0.46865   -1.000
 3383.00    0.36488   0.48933   -1.000
 3384.00    0.36084   0.50563   -1.000
 3385.00    0.37055   0.51913   -1.000
 3386.00    0.37690   0.52905   -1.000
 3387.00    0.38928   0.53217   -1.000
 3388.00    0.38965   0.53009   -1.000
 3389.00    0.39721   0.52593   -1.000
 3390.00    0.40585   0.51980   -1.000
 3391.00    0.41242   0.50911   -1.000
 3392.00    0.41435   0.49380   -1.000
 3393.00    0.39959   0.48395   -1.000
 3394.00    0.42088   0.49108   -1.000
 3395.00    0.42484   0.51423   -1.000
 3396.00    0.44152   0.54374   -1.000
 3397.00    0.45469   0.57038   -1.000
 3398.00    0.47793   0.58662   -1.000
 3399.00    0.49257   0.58905   -1.000
 3400.00    0.48874   0.58105   -1.000
 3401.00    0.50638   0.56719   -1.000
 3402.00    0.48937   0.54970   -1.000
 3403.00    0.47122   0.53330   -1.000
 3404.00    0.45787   0.52287   -1.000
 3405.00    0.45839   0.51659   -1.000
 3406.00    0.45224   0.50967   -1.000
 3407.00    0.43751   0.50278   -1.000
 3408.00    0.44140   0.50058   -1.000
 3409.00    0.43073   0.50591   -1.000
 3410.00    0.43405   0.51434   -1.000
 3411.00    0.44399   0.51606   -1.000
 3412.00    0.46020   0.50680   -1.000
 3413.00    0.43640   0.49218   -1.000
 3414.00    0.43399   0.48315   -1.000
 3415.00    0.43080   0.48625   -1.000
 3416.00    0.43135   0.50008   -1.000
 3417.00    0.45214   0.51955   -1.000
 3418.00    0.48131   0.54134   -1.000
 3419.00    0.49563   0.56237   -1.000
 3420.00    0.49429   0.57667   -1.000
 3421.00    0.49879   0.57907   -1.000
 3422.00    0.49482   0.57113   -1.000
 3423.00    0.50544   0.55979   -1.000
 3424.00    0.49480   0.55269   -1.000
 3425.00    0.48971   0.55245   -1.000
 3426.00    0.49329   0.55722   -1.000
 3427.00    0.48659   0.56812   -1.000
 3428.00    0.51077   0.58731   -1.000
 3429.00    0.52209   0.60636   -1.000
 3430.00    0.53329   0.61196   -1.000
 3431.00    0.53941   0.59947   -1.000
 3432.00    0.51688   0.57724   -1.000
 3433.00    0.51506   0.55899   -1.000
 3434.00    0.50701   0.55390   -1.000
 3435.00    0.52422   0.55980   -1.000
 3436.00    0.52776   0.56437   -1.000
 3437.00    0.52410   0.55768   -1.000
 3438.00    0.49089   0.53614   -1.000
 3439.00    0.46869   0.50169   -1.000
 3440.00    0.44465   0.46130  215.909
 3441.00    0.41371   0.42981  224.593
 3442.00    0.41131   0.41900  224.953
 3443.00    0.43057   0.42673  223.991
 3444.00    0.43584   0.44348  215.070
 3445.00    0.44762   0.46341  203.277
 3446.00    0.47921   0.48838  192.020
 3447.00    0.50981   0.51997  185.353
 3448.00    0.52629   0.55165   -1.000
 3449.00    0.53726   0.57337   -1.000
 3450.00    0.54306   0.57881   -1.000
 3451.00    0.54903   0.56798   -1.000
 3452.00    0.53011   0.54896   -1.000
 3453.00    0.52705   0.53677   -1.000
 3454.00    0.54430   0.53912   -1.000
 3455.00    0.54526   0.54958  810.257
 3456.00    0.55698   0.55427   -1.000
 3457.00    0.55196   0.54419   -1.000
 3458.00    0.53810   0.52471   -1.000
 3459.00    0.52279   0.50502   -1.000
 3460.00    0.51112   0.49044   -1.000
 3461.00    0.51429   0.48890   -1.000
 3462.00    0.51610   0.50519   -1.000
 3463.00    0.53543   0.52827   -1.000
 3464.00    0.55639   0.54243   -1.000
 3465.00    0.55168   0.54371   -1.000
 3466.00    0.54774   0.54059   -1.000
 3467.00    0.55377   0.54451   -1.000
 3468.00    0.56191   0.55737   -1.000
 3469.00    0.57409   0.57226   -1.000
 3470.00    0.59231   0.57975   -1.000
 3471.00    0.59372   0.57406   -1.000
 3472.00    0.58316   0.55550   -1.000
 3473.00    0.54734   0.52782   -1.000
 3474.00    0.52510   0.49638   -1.000
 3475.00    0.50017   0.47269   -1.000
 3476.00    0.48580   0.46884   -1.000
 3477.00    0.48389   0.48573  184.836
 3478.00    0.51828   0.51312   -1.000
 3479.00    0.55094   0.53881   -1.000
 3480.00    0.57048   0.55458   -1.000
 3481.00    0.58390   0.55819   -1.000
 3482.00    0.57784   0.55199   -1.000
 3483.00    0.58455   0.54223   -1.000
 3484.00    0.57289   0.53838   -1.000
 3485.00    0.58345   0.54820   -1.000
 3486.00    0.59426   0.56799   -1.000
 3487.00    0.61167   0.57980   -1.000
 3488.00    0.60095   0.57047   -1.000
 3489.00    0.58992   0.54476   -1.000
 3490.00    0.55116   0.51993   -1.000
 3491.00    0.52293   0.50947   -1.000
 3492.00    0.53264   0.51258   -1.000
 3493.00    0.54053   0.52007   -1.000
 3494.00    0.55027   0.52270   -1.000
 3495.00    0.54382   0.51743   -1.000
 3496.00    0.52804   0.51073   -1.000
 3497.00    0.53169   0.51564   -1.000
 3498.00    0.55638   0.53653   -1.000
 3499.00    0.58159   0.56068   -1.000
 3500.00    0.61296   0.57622   -1.000
 3501.00    0.62533   0.58482   -1.000
 3502.00    0.63660   0.59226   -1.000
 3503.00    0.62649   0.59848   -1.000
 3504.00    0.62564   0.59740   -1.000
 3505.00    0.62053   0.58791   -1.000
 3506.00    0.60931   0.57732   -1.000
 3507.00    0.59378   0.57172   -1.000
 3508.00    0.60609   0.56923   -1.000
 3509.00    0.60444   0.56330   -1.000
 3510.00    0.59651   0.55230   -1.000
 3511.00    0.58780   0.54077   -1.000
 3512.00    0.57777   0.52970   -1.000
 3513.00    0.56086   0.51781   -1.000
 3514.00    0.55938   0.51399   -1.000
 3515.00    0.56036   0.52890   -1.000
 3516.00    0.58256   0.56036   -1.000
 3517.00    0.61895   0.59219   -1.000
 3518.00    0.62522   0.60607   -1.000
 3519.00    0.61713   0.59627   -1.000
 3520.00    0.59390   0.56984   -1.000
 3521.00    0.56376   0.54034   -1.000
 3522.00    0.54338   0.51489   -1.000
 3523.00    0.52993   0.49152   -1.000
 3524.00    0.51640   0.47225   -1.000
 3525.00    0.49122   0.46453   -1.000
 3526.00    0.49348   0.47535   -1.000
 3527.00    0.51643   0.50468   -1.000
 3528.00    0.54788   0.54111   -1.000
 3529.00    0.57652   0.56972   -1.000
 3530.00    0.59885   0.58335   -1.000
 3531.00    0.59894   0.58485   -1.000
 3532.00    0.58689   0.58356  810.257
 3533.00    0.59119   0.58809  810.257
 3534.00    0.60347   0.59817   -1.000
 3535.00    0.61316   0.60709   -1.000
 3536.00    0.62250   0.61215   -1.000
 3537.00    0.62109   0.61775  810.257
 3538.00    0.61087   0.62767   -1.000
 3539.00    0.63115   0.63683   -1.000
 3540.00    0.63420   0.63652   -1.000
 3541.00    0.61827   0.62989   -1.000
 3542.00    0.61618   0.62774   -1.000
 3543.00    0.62185   0.63280   -1.000
 3544.00    0.62066   0.64028   -1.000
 3545.00    0.62432   0.64295   -1.000
 3546.00    0.61949   0.63845   -1.000
 3547.00    0.60782   0.63147   -1.000
 3548.00    0.60152   0.62752   -1.000
 3549.00    0.61267   0.62819   -1.000
 3550.00    0.60795   0.63042   -1.000
 3551.00    0.59417   0.62875   -1.000
 3552.00    0.60312   0.61974   -1.000
 3553.00    0.58568   0.60734   -1.000
 3554.00    0.57101   0.59896   -1.000
 3555.00    0.56837   0.59840   -1.000
 3556.00    0.58038   0.60182   -1.000
 3557.00    0.58443   0.60138   -1.000
 3558.00    0.58301   0.59606   -1.000
 3559.00    0.59305   0.59297  810.257
 3560.00    0.58807   0.59947   -1.000
 3561.00    0.57362   0.61483   -1.000
 3562.00    0.59062   0.62650   -1.000
 3563.00    0.59399   0.61579   -1.000
 3564.00    0.55843   0.57624   -1.000
 3565.00    0.51690   0.53049  184.174
 3566.00    0.49283   0.50439  189.842
 3567.00    0.49545   0.49833  187.645
 3568.00    0.49899   0.49494  186.603
 3569.00    0.50068   0.48118   -1.000
 3570.00    0.47355   0.46667  196.559
 3571.00    0.47107   0.46883  190.380
 3572.00    0.49625   0.48669  181.845
 3573.00    0.51415   0.50689   -1.000
 3574.00    0.53122   0.51945   -1.000
 3575.00    0.53337   0.52467   -1.000
 3576.00    0.52842   0.52755  810.257
 3577.00    0.53921   0.52596   -1.000
 3578.00    0.52739   0.51277   -1.000
 3579.00    0.51212   0.48654   -1.000
 3580.00    0.47789   0.45570   -1.000
 3581.00    0.43954   0.43319  214.650
 3582.00    0.44120   0.42786   -1.000
 3583.00    0.45315   0.43461   -1.000
 3584.00    0.44324   0.43657  222.427
 3585.00    0.43010   0.42772  229.788
 3586.00    0.41434   0.41888  233.026
 3587.00    0.42096   0.42282  221.213
 3588.00    0.44072   0.44439  209.409
 3589.00    0.47258   0.47853  199.291
 3590.00    0.50767   0.51615  181.417
 3591.00    0.54364   0.54694  810.257
 3592.00    0.57349   0.56326   -1.000
 3593.00    0.57324   0.56797   -1.000
 3594.00    0.57115   0.57354  810.257
 3595.00    0.58300   0.58888   -1.000
 3596.00    0.60193   0.60988   -1.000
 3597.00    0.61285   0.62910   -1.000
 3598.00    0.63100   0.64409   -1.000
 3599.00    0.64277   0.65240   -1.000
 3600.00    0.64032   0.64865   -1.000
 3601.00    0.62417   0.62878   -1.000
 3602.00    0.60169   0.59718  810.257
 3603.00    0.57922   0.56615   -1.000
 3604.00    0.56274   0.54730   -1.000
 3605.00    0.56365   0.54237   -1.000
 3606.00    0.56101   0.54172   -1.000
 3607.00    0.54758   0.53487   -1.000
 3608.00    0.53173   0.52094   -1.000
 3609.00    0.52001   0.51153   -1.000
 3610.00    0.52095   0.51804   -1.000
 3611.00    0.53642   0.53551  810.257
 3612.00    0.55224   0.55288  810.257
 3613.00    0.56615   0.56768  810.257
 3614.00    0.57690   0.58230   -1.000
 3615.00    0.59227   0.59339  810.257
 3616.00    0.59025   0.58554   -1.000
 3617.00    0.56244   0.55082   -1.000
 3618.00    0.52506   0.51167   -1.000
 3619.00    0.50701   0.49811  181.453
 3620.00    0.52096   0.51691   -1.000
 3621.00    0.56028   0.55261   -1.000
 3622.00    0.59989   0.58581  146.544
 3623.00    0.61071   0.60841  141.718
 3624.00    0.62887   0.62714  139.979
 3625.00    0.64005   0.65159  134.762
 3626.00    0.66093   0.68006  129.088
 3627.00    0.67836   0.70059   -1.000
 3628.00    0.66433   0.69605   -1.000
 3629.00    0.63960   0.65766  137.608
 3630.00    0.59336   0.60019  154.173
 3631.00    0.54211   0.55294  167.064
 3632.00    0.52897   0.53609  168.989
 3633.00    0.53870   0.54620  163.711
 3634.00    0.55014   0.56558  157.896
 3635.00    0.57053   0.58124  154.268
 3636.00    0.59351   0.59397  148.461
 3637.00    0.61456   0.61209  141.438
 3638.00    0.64132   0.63744  135.064
 3639.00    0.65466   0.66231  130.542
 3640.00    0.66676   0.67453  130.413
 3641.00    0.65713   0.66726  133.733
 3642.00    0.63227   0.64448  138.269
 3643.00    0.61087   0.61675  145.837
 3644.00    0.59197   0.59421  150.082
 3645.00    0.57604   0.57865  152.638
 3646.00    0.57216   0.56568  154.967
 3647.00    0.55819   0.55603  157.829
 3648.00    0.55797   0.55469  157.939
 3649.00    0.56519   0.56386  153.603
 3650.00    0.58970   0.58339  147.370
 3651.00    0.61192   0.61095  140.205
 3652.00    0.63943   0.64013  134.322
 3653.00    0.65911   0.66377  131.035
 3654.00    0.66869   0.67840  129.221
 3655.00    0.66677   0.68760   -1.000
 3656.00    0.68246   0.69786  127.293
 3657.00    0.69695   0.70906  125.979
 3658.00    0.69413   0.71738   -1.000
 3659.00    0.70437   0.72185  123.968
 3660.00    0.68979   0.72167   -1.000
 3661.00    0.68357   0.71492   -1.000
 3662.00    0.68906   0.70236  126.692
 3663.00    0.67181   0.68853  128.883
 3664.00    0.66334   0.67984  129.855
 3665.00    0.67665   0.67839  128.245
 3666.00    0.68786   0.67914  128.344
 3667.00    0.67710   0.67446  131.096
 3668.00    0.65228   0.66275  132.521
 3669.00    0.64186   0.65365  135.841
 3670.00    0.64351   0.65757  134.927
 3671.00    0.67424   0.67387  129.797
 3672.00    0.68536   0.69174  127.210
 3673.00    0.69344   0.70100  126.781
 3674.00    0.68538   0.69857  126.755
 3675.00    0.68707   0.68525  127.051
 3676.00    0.67459   0.66442  131.047
 3677.00    0.64815   0.64122  135.131
 3678.00    0.63639   0.62084  139.230
 3679.00    0.62855   0.60808  142.772
 3680.00    0.60491   0.60534  142.342
 3681.00    0.62584   0.61282  138.573
 3682.00    0.65136   0.62669   -1.000
 3683.00    0.65838   0.63765  133.331
 3684.00    0.65672   0.63456  136.638
 3685.00    0.63390   0.61393  142.298
 3686.00    0.60167   0.58788  148.160
 3687.00    0.58866   0.57474  150.789
 3688.00    0.61742   0.58491   -1.000
 3689.00    0.63887   0.61571   -1.000
 3690.00    0.66847   0.65360  127.635
 3691.00    0.70263   0.68057  123.812
 3692.00    0.70449   0.68779  124.804
 3693.00    0.68626   0.68141  128.316
 3694.00    0.67889   0.67205  130.052
 3695.00    0.68980   0.66621  129.456
 3696.00    0.68747   0.66744  128.294
 3697.00    0.69093   0.67881  126.718
 3698.00    0.70773   0.69983  122.517
 3699.00    0.73171   0.72267  119.417
 3700.00    0.74096   0.73463  117.836
 3701.00    0.73411   0.72367  120.141
 3702.00    0.70062   0.68623  125.723
 3703.00    0.66664   0.63293   -1.000
 3704.00    0.62120   0.58128   -1.000
 3705.00    0.56752   0.54763   -1.000
 3706.00    0.56086   0.53783   -1.000
 3707.00    0.57310   0.54407   -1.000
 3708.00    0.57940   0.55632   -1.000
 3709.00    0.59656   0.57130   -1.000
 3710.00    0.62555   0.59120   -1.000
 3711.00    0.65592   0.61980   -1.000
 3712.00    0.68539   0.65705   -1.000
 3713.00    0.71659   0.69459  120.088
 3714.00    0.74602   0.72163  117.153
 3715.00    0.75604   0.73048  116.807
 3716.00    0.74306   0.71782  119.950
 3717.00    0.71727   0.68454   -1.000
 3718.00    0.66858   0.63086   -1.000
 3719.00    0.58578   0.56217   -1.000
 3720.00    0.52766   0.50214   -1.000
 3721.00    0.51237   0.47612   18.517
 3722.00    0.53300   0.49108   -1.000
 3723.00    0.58094   0.53693   -1.000
 3724.00    0.64404   0.59150   -1.000
 3725.00    0.68632   0.62897   -1.000
 3726.00    0.68782   0.64051   -1.000
 3727.00    0.66034   0.63960   -1.000
 3728.00    0.64692   0.64045  136.851
 3729.00    0.66708   0.64279   -1.000
 3730.00    0.65523   0.63495   -1.000
 3731.00    0.63921   0.60533   -1.000
 3732.00    0.59033   0.55457   -1.000
 3733.00    0.53324   0.49473   18.176
 3734.00    0.46714   0.44260   20.158
 3735.00    0.45079   0.41583   20.918
 3736.00    0.46231   0.42403   19.873
 3737.00    0.49814   0.46469   17.999
 3738.00    0.55114   0.52693   -1.000
 3739.00    0.60826   0.59115   -1.000
 3740.00    0.65838   0.63582   -1.000
 3741.00    0.67432   0.65020   -1.000
 3742.00    0.66247   0.63588   -1.000
 3743.00    0.62779   0.60244   -1.000
 3744.00    0.58970   0.56498   -1.000
 3745.00    0.55630   0.53353   -1.000
 3746.00    0.53477   0.50670   -1.000
 3747.00    0.52428   0.47833   18.440
 3748.00    0.48181   0.44953   19.428
 3749.00    0.46524   0.43703   19.640
 3750.00    0.50245   0.45787   -1.000
 3751.00    0.57084   0.51002   -1.000
 3752.00    0.63236   0.57643   -1.000
 3753.00    0.67583   0.63981   -1.000
 3754.00    0.72081   0.68511   -1.000
 3755.00    0.73973   0.69980   -1.000
 3756.00    0.72127   0.67899   -1.000
 3757.00    0.66047   0.63327   -1.000
 3758.00    0.58793   0.58741  159.966
 3759.00    0.57934   0.56542  159.215
 3760.00    0.59983   0.57124   -1.000
 3761.00    0.63603   0.58926   -1.000
 3762.00    0.64697   0.60520   -1.000
 3763.00    0.65325   0.61529   -1.000
 3764.00    0.65462   0.61924   -1.000
 3765.00    0.65852   0.61626   -1.000
 3766.00    0.64448   0.60833   -1.000
 3767.00    0.64749   0.59977   -1.000
 3768.00    0.65237   0.59271   -1.000
 3769.00    0.64290   0.58685   -1.000
 3770.00    0.64125   0.58463   -1.000
 3771.00    0.65686   0.59472   -1.000
 3772.00    0.69508   0.62064   -1.000
 3773.00    0.71203   0.65108   -1.000
 3774.00    0.71973   0.67343   -1.000
 3775.00    0.72177   0.68674   -1.000
 3776.00    0.71501   0.69670  124.329
 3777.00    0.72468   0.70887  123.985
 3778.00    0.74082   0.72495  122.233
 3779.00    0.75404   0.74309  118.081
 3780.00    0.77223   0.76011  115.341
 3781.00    0.78303   0.77295  114.584
 3782.00    0.78367   0.78027  113.888
 3783.00    0.77891   0.77968  113.962
 3784.00    0.76651   0.76527  116.637
 3785.00    0.74979   0.73447  122.930
 3786.00    0.71095   0.69519  132.269
 3787.00    0.66743   0.66029  138.841
 3788.00    0.64996   0.63915  141.369
 3789.00    0.64834   0.63327  141.239
 3790.00    0.65047   0.63709  138.680
 3791.00    0.65638   0.64052  137.271
 3792.00    0.65874   0.63410   -1.000
 3793.00    0.64645   0.61631   -1.000
 3794.00    0.62761   0.59246   -1.000
 3795.00    0.60872   0.56790   -1.000
 3796.00    0.58465   0.54172   -1.000
 3797.00    0.55945   0.51365   -1.000
 3798.00    0.54643   0.49923   -1.000
 3799.00    0.57467   0.51671   -1.000
 3800.00    0.61775   0.56400   -1.000
 3801.00    0.65314   0.62392   -1.000
 3802.00    0.69831   0.67670   -1.000
 3803.00    0.73108   0.70953  127.434
 3804.00    0.74190   0.71985   -1.000
 3805.00    0.71930   0.71064  128.725
 3806.00    0.69437   0.69298  133.698
 3807.00    0.68431   0.68607  136.279
 3808.00    0.68962   0.69951  132.632
 3809.00    0.71089   0.72350  127.427
 3810.00    0.73460   0.73878  126.048
 3811.00    0.73688   0.73241  128.579
 3812.00    0.70501   0.70446  135.635
 3813.00    0.65849   0.66324  144.108
 3814.00    0.62716   0.62284  152.754
 3815.00    0.59643   0.59938  159.689
 3816.00    0.59374   0.59837  156.785
 3817.00    0.62779   0.60646   -1.000
 3818.00    0.62385   0.60393   -1.000
 3819.00    0.59041   0.58367  164.409
 3820.00    0.55312   0.56013  172.934
 3821.00    0.55665   0.55312  168.759
 3822.00    0.58346   0.56054   -1.000
 3823.00    0.58912   0.56237   -1.000
 3824.00    0.56150   0.54653   -1.000
 3825.00    0.52137   0.52023   19.065
 3826.00    0.51063   0.49858   19.265
 3827.00    0.50962   0.48935   19.093
 3828.00    0.51403   0.48981   18.782
 3829.00    0.52937   0.49164   18.472
 3830.00    0.53139   0.48730   18.710
 3831.00    0.49917   0.47287   19.576
 3832.00    0.46298   0.44940   21.165
 3833.00    0.43580   0.42337   21.800
 3834.00    0.45028   0.40603   21.357
 3835.00    0.46301   0.40357   20.483
 3836.00    0.47228   0.41045   20.040
 3837.00    0.46742   0.41700   20.481
 3838.00    0.45720   0.42125   20.979
 3839.00    0.46371   0.43196   20.594
 3840.00    0.48990   0.45988   19.403
 3841.00    0.53118   0.50605   -1.000
 3842.00    0.58288   0.56115   -1.000
 3843.00    0.62876   0.61082   -1.000
 3844.00    0.64749   0.64389  146.279
 3845.00    0.65864   0.66182  146.308
 3846.00    0.65567   0.67347  146.221
 3847.00    0.66349   0.68185  146.505
 3848.00    0.65536   0.68283   -1.000
 3849.00    0.63219   0.67729   -1.000
 3850.00    0.61855   0.67346   -1.000
 3851.00    0.63021   0.67797   -1.000
 3852.00    0.65433   0.68841   -1.000
 3853.00    0.65701   0.69303   -1.000
 3854.00    0.64508   0.68319   -1.000
 3855.00    0.62396   0.66273   -1.000
 3856.00    0.60724   0.63843   -1.000
 3857.00    0.58885   0.61187   -1.000
 3858.00    0.56094   0.58533   18.057
 3859.00    0.52441   0.56878   18.997
 3860.00    0.52429   0.57489   18.557
 3861.00    0.56665   0.60612   -1.000
 3862.00    0.63995   0.64952  149.329
 3863.00    0.67912   0.68261  142.668
 3864.00    0.67651   0.69451  143.729
 3865.00    0.67154   0.69289  146.641
 3866.00    0.66433   0.68825   -1.000
 3867.00    0.65179   0.68534   -1.000
 3868.00    0.63611   0.68167   -1.000
 3869.00    0.61690   0.66967   -1.000
 3870.00    0.58753   0.64571   -1.000
 3871.00    0.55685   0.61664   18.291
 3872.00    0.54810   0.59753   -1.000
 3873.00    0.58000   0.60167  158.903
 3874.00    0.62741   0.62815  144.535
 3875.00    0.66163   0.65503  139.176
 3876.00    0.65688   0.65929  143.694
 3877.00    0.61678   0.64103   -1.000
 3878.00    0.58264   0.61928   -1.000
 3879.00    0.58246   0.60975   -1.000
 3880.00    0.59767   0.61252  167.509
 3881.00    0.58451   0.61842   -1.000
 3882.00    0.57518   0.62105   -1.000
 3883.00    0.60221   0.61916  152.348
 3884.00    0.63258   0.60936   -1.000
 3885.00    0.62684   0.58548   -1.000
 3886.00    0.60535   0.54955   -1.000
 3887.00    0.58116   0.51686   -1.000
 3888.00    0.57569   0.50323   -1.000
 3889.00    0.58903   0.51648   -1.000
 3890.00    0.62568   0.55459   -1.000
 3891.00    0.68235   0.60385   -1.000
 3892.00    0.72496   0.64200   -1.000
 3893.00    0.73134   0.65704   -1.000
 3894.00    0.71794   0.65764   -1.000
 3895.00    0.71469   0.66034   -1.000
 3896.00    0.72870   0.67203   -1.000
 3897.00    0.74659   0.68521   -1.000
 3898.00    0.74464   0.69136   -1.000
 3899.00    0.72974   0.69267   -1.000
 3900.00    0.72899   0.69596   -1.000
 3901.00    0.74066   0.70134   -1.000
 3902.00    0.74438   0.70191   -1.000
 3903.00    0.72571   0.69250   -1.000
 3904.00    0.70205   0.67705   -1.000
 3905.00    0.67934   0.66706  131.520
 3906.00    0.67110   0.67248  130.346
 3907.00    0.71216   0.69605  122.584
 3908.00    0.75326   0.73055  114.279
 3909.00    0.77702   0.76138  111.630
 3910.00    0.79600   0.78120  110.650
 3911.00    0.81093   0.79298  109.590
 3912.00    0.80951   0.79826  108.948
 3913.00    0.79831   0.79589  110.272
 3914.00    0.77705   0.78724  112.588
 3915.00    0.75903   0.77550  115.251
 3916.00    0.75490   0.76320  116.693
 3917.00    0.74900   0.74888  118.256
 3918.00    0.73383   0.72893  121.761
 3919.00    0.70438   0.70366  127.205
 3920.00    0.67318   0.67883  133.323
 3921.00    0.65088   0.66374  136.007
 3922.00    0.65874   0.66300  134.715
 3923.00    0.66663   0.66964  132.195
 3924.00    0.67287   0.66986  133.298
 3925.00    0.63874   0.65369  140.088
 3926.00    0.59536   0.61877  153.775
 3927.00    0.52774   0.56753   -1.000
 3928.00    0.45429   0.50714   20.190
 3929.00    0.39128   0.44443   23.379
 3930.00    0.33332   0.38212   27.350
 3931.00    0.28381   0.32428   32.374
 3932.00    0.24676   0.27641   37.868
 3933.00    0.22223   0.24662   41.360
 3934.00    0.22366   0.24451   39.613
 3935.00    0.25699   0.27198   34.361
 3936.00    0.30698   0.32192   28.404
 3937.00    0.36768   0.38563   23.321
 3938.00    0.43237   0.45295   19.604
 3939.00    0.49588   0.51442  158.185
 3940.00    0.54149   0.56366  160.654
 3941.00    0.57638   0.59608  154.604
 3942.00    0.59302   0.61279  153.227
 3943.00    0.59757   0.62117  153.165
 3944.00    0.61161   0.63219  145.362
 3945.00    0.65627   0.65321  131.952
 3946.00    0.70398   0.67909   -1.000
 3947.00    0.71716   0.69973  123.051
 3948.00    0.71268   0.71431  122.165
 3949.00    0.73218   0.72826  117.619
 3950.00    0.75596   0.74121  113.773
 3951.00    0.76005   0.74846  114.346
 3952.00    0.75730   0.75137  116.057
 3953.00    0.76219   0.75599  113.956
 3954.00    0.78193   0.76161  111.079
 3955.00    0.78879   0.76015   -1.000
 3956.00    0.76218   0.75047  116.526
 3957.00    0.74601   0.74103  118.396
 3958.00    0.75104   0.73366  116.242
 3959.00    0.74703   0.71696   -1.000
 3960.00    0.70562   0.67996   -1.000
 3961.00    0.63346   0.62716  149.159
 3962.00    0.56649   0.57556  165.024
 3963.00    0.52087   0.53419  173.084
 3964.00    0.47316   0.49539   18.996
 3965.00    0.41838   0.44528   22.031
 3966.00    0.35553   0.37953   27.195
 3967.00    0.29126   0.31428   33.271
 3968.00    0.25364   0.27243   36.745
 3969.00    0.25469   0.26589   34.102
 3970.00    0.30177   0.29478   28.097
 3971.00    0.36784   0.35022   23.081
 3972.00    0.44013   0.41847   19.309
 3973.00    0.51147   0.49028   -1.000
 3974.00    0.57410   0.56054  147.106
 3975.00    0.64856   0.62498   -1.000
 3976.00    0.70482   0.68193   -1.000
 3977.00    0.74179   0.73131  114.994
 3978.00    0.78922   0.77444  108.969
 3979.00    0.83306   0.80849  103.087
 3980.00    0.85266   0.82718  101.910
 3981.00    0.84585   0.83025  102.652
 3982.00    0.82629   0.82616  104.674
 3983.00    0.82502   0.82629  103.876
 3984.00    0.85097   0.83532  101.682
 3985.00    0.87644   0.84917   99.676
 3986.00    0.88501   0.86363   98.071
 3987.00    0.89478   0.87805   96.180
 3988.00    0.90630   0.89132   95.269
 3989.00    0.90708   0.90163   95.645
 3990.00    0.91638   0.90988   95.022
 3991.00    0.92187   0.91960   92.782
 3992.00    0.94002   0.93073   90.519
 3993.00    0.95774   0.93653   91.671
 3994.00    0.94264   0.93033   93.918
 3995.00    0.91516   0.91331   96.081
 3996.00    0.89285   0.89455   97.920
 3997.00    0.88359   0.88508   98.725
 3998.00    0.89261   0.89055   96.443
 3999.00    0.92439   0.90879   91.948
 4000.00    0.96359   0.93348   88.850
 4001.00    0.98401   0.95495   87.459
 4002.00    0.99790   0.96227   86.210
 4003.00    0.99384   0.94886   -1.000
 4004.00    0.93845   0.91706   94.091
 4005.00    0.88457   0.88298   98.941
 4006.00    0.88788   0.87083   98.075
 4007.00    0.92574   0.88911   -1.000
 4008.00    0.96662   0.92329   -1.000
 4009.00    0.98845   0.95407   87.534
 4010.00    0.99430   0.97245   86.590
 4011.00    1.00661   0.98029   86.313
 4012.00    0.99165   0.98331   86.955
 4013.00    0.99749   0.98552   87.426
 4014.00    1.00762   0.98763   86.750
 4015.00    1.00823   0.98816   85.497
 4016.00    1.00336   0.98627   86.278
 4017.00    0.99887   0.98463   87.359
 4018.00    0.99797   0.98747   86.910
 4019.00    1.00741   0.99418   85.535
 4020.00    1.02213   1.00026   85.771
 4021.00    1.00337   1.00251   87.061
 4022.00    1.00239   1.00123   87.557
 4023.00    0.99327   0.99760   88.132
 4024.00    0.98370   0.99388   88.827
 4025.00    0.99946   0.99649   86.563
 4026.00    1.02810   1.00953   83.441
 4027.00    1.05842   1.02517   81.775
 4028.00    1.06020   1.02531   82.564
 4029.00    1.02548   0.99977   86.047
 4030.00    0.97379   0.95733   92.038
 4031.00    0.91424   0.91602   95.876
 4032.00    0.91243   0.89115   96.975
 4033.00    0.91593   0.88877   95.695
 4034.00    0.94450   0.90726   -1.000
 4035.00    0.97582   0.94227   87.897
 4036.00    1.02415   0.98810   83.556
 4037.00    1.05727   1.03260   80.636
 4038.00    1.07316   1.05831   80.379
 4039.00    1.06677   1.05858   82.139
 4040.00    1.02925   1.04486   84.115
 4041.00    1.03177   1.02945   85.010
 4042.00    1.03458   1.00932   85.410
 4043.00    0.99972   0.97137   89.633
 4044.00    0.91332   0.91512   98.562
 4045.00    0.84455   0.86813   -1.000
 4046.00    0.85846   0.86009  101.609
 4047.00    0.92688   0.89427   91.581
 4048.00    1.00000   0.95065   -1.000
 4049.00    1.03706   1.00258   83.665
 4050.00    1.04173   1.03353   82.724
 4051.00    1.04068   1.04141   83.327
 4052.00    1.02862   1.03171   85.669
 4053.00    1.00762   1.01325   87.891
 4054.00    0.98227   0.99601   89.239
 4055.00    0.97958   0.98369   89.936
 4056.00    0.97304   0.97400   90.542
 4057.00    0.96599   0.96878   91.503
 4058.00    0.96844   0.97394   90.381
 4059.00    0.98913   0.98943   87.038
 4060.00    1.02325   1.00165   85.339
 4061.00    1.02445   0.99134   86.876
 4062.00    0.96791   0.95515   93.403
 4063.00    0.89756   0.91180   99.901
 4064.00    0.89600   0.88639   98.188
 4065.00    0.92191   0.88895   93.251
 4066.00    0.96120   0.91103   -1.000
 4067.00    0.97835   0.94031   -1.000
 4068.00    1.00611   0.96669   -1.000
 4069.00    1.04521   0.97830   -1.000
 4070.00    1.01757   0.96807   -1.000
 4071.00    0.96226   0.94607   92.149
 4072.00    0.95864   0.93327   91.394
 4073.00    0.97897   0.93825   -1.000
 4074.00    0.99684   0.94602   -1.000
 4075.00    0.96621   0.93761   91.905
 4076.00    0.90472   0.91329   99.891
 4077.00    0.84224   0.89138   -1.000
 4078.00    0.85296   0.89193   -1.000
 4079.00    0.92118   0.92052   92.370
 4080.00    0.98888   0.96359   85.990
 4081.00    1.03441   0.99622   83.441
 4082.00    1.03009   1.00283   84.940
 4083.00    1.00319   0.98976   87.909
 4084.00    0.97820   0.97700   89.223
 4085.00    0.97899   0.98162   87.837
 4086.00    1.00665   1.00560   84.819
 4087.00    1.06339   1.03808   81.540
 4088.00    1.09082   1.06356   78.922
 4089.00    1.10664   1.07189   79.343
 4090.00    1.09008   1.06452   81.026
 4091.00    1.06704   1.05115   82.540
 4092.00    1.05794   1.03972   83.459
 4093.00    1.05746   1.02937   83.513
 4094.00    1.04435   1.01437   85.090
 4095.00    1.01000   0.99140   89.085
 4096.00    0.97878   0.96355   92.049
 4097.00    0.95968   0.93469   92.662
 4098.00    0.94422   0.90179   -1.000
 4099.00    0.90910   0.85760   -1.000
 4100.00    0.84652   0.80336   -1.000
 4101.00    0.78610   0.75918  116.461
 4102.00    0.77292   0.74948  113.846
 4103.00    0.83086   0.78144   -1.000
 4104.00    0.90338   0.84090   -1.000
 4105.00    0.97439   0.90133   -1.000
 4106.00    0.99540   0.94424   -1.000
 4107.00    1.00383   0.96841   87.716
 4108.00    0.99858   0.97833   88.586
 4109.00    0.98830   0.97994   90.351
 4110.00    0.97492   0.98143   91.682
 4111.00    0.97641   0.98758   90.484
 4112.00    0.99865   0.99898   88.407
 4113.00    1.02078   1.01468   86.898
 4114.00    1.03854   1.03233   85.565
 4115.00    1.06205   1.04609   84.739
 4116.00    1.05717   1.04979   85.188
 4117.00    1.04814   1.04272   87.047
 4118.00    1.01191   1.02993   90.039
 4119.00    0.99686   1.01889   91.050
 4120.00    1.00147   1.01524   89.856
 4121.00    1.00431   1.01863   88.928
 4122.00    1.00558   1.02446   89.045
 4123.00    1.00529   1.03104   88.062
 4124.00    1.02199   1.03891   86.475
 4125.00    1.04132   1.04524   86.212
 4126.00    1.03928   1.04479   87.415
 4127.00    1.02404   1.03722   89.333
 4128.00    1.00582   1.02808   90.044
 4129.00    0.99378   1.01979   -1.000
 4130.00    0.98675   1.00666   91.652
 4131.00    0.97177   0.98463   94.604
 4132.00    0.94788   0.96159   97.603
 4133.00    0.92746   0.95224   -1.000
 4134.00    0.94465   0.96557   94.492
 4135.00    0.98822   0.99769   89.655
 4136.00    1.03464   1.03612   86.771
 4137.00    1.05475   1.06894   85.404
 4138.00    1.06169   1.09060   84.068
 4139.00    1.06925   1.09777   83.758
 4140.00    1.06624   1.08424   85.533
 4141.00    1.02873   1.04859   90.135
 4142.00    0.95874   1.00235   -1.000
 4143.00    0.91298   0.96604   -1.000
 4144.00    0.91360   0.95884   -1.000
 4145.00    0.96980   0.98233   92.984
 4146.00    1.01367   1.01631   89.560
 4147.00    1.02755   1.03923   88.684
 4148.00    1.01695   1.04558   -1.000
 4149.00    1.00148   1.04479   -1.000
 4150.00    0.98866   1.04588   -1.000
 4151.00    0.98190   1.04691   -1.000
 4152.00    0.99362   1.04093   -1.000
 4153.00    0.98853   1.02667   -1.000
 4154.00    0.96997   1.01229   -1.000
 4155.00    0.96255   1.00799   -1.000
 4156.00    1.01336   1.01632   92.115
 4157.00    1.21566   1.03303   -1.000
 4158.00    1.08955   1.05328   89.169
 4159.00    0.84257   1.07302   -1.000
 4160.00    0.93949   1.08910   -1.000
 4161.00    1.06478   1.10115   -1.000
 4162.00    1.06057   1.11064   -1.000
 4163.00    1.06497   1.11712   -1.000
 4164.00    1.05882   1.11660   -1.000
 4165.00    1.04144   1.10529   -1.000
 4166.00    1.02678   1.08648   -1.000
 4167.00    1.00351   1.06997   -1.000
 4168.00    1.00732   1.06192   -1.000
 4169.00    1.02265   1.05704   -1.000
 4170.00    1.01609   1.04284   91.178
 4171.00    0.97793   1.01444   -1.000
 4172.00    0.92664   0.98215   -1.000
 4173.00    0.89991   0.96516   -1.000
 4174.00    0.91259   0.97313   -1.000
 4175.00    0.95277   0.99586   -1.000
 4176.00    0.97024   1.01728   -1.000
 4177.00    0.96602   1.03293   -1.000
 4178.00    0.96765   1.04739   -1.000
 4179.00    0.99682   1.06009   -1.000
 4180.00    1.01139   1.06369   -1.000
 4181.00    0.99228   1.05647   -1.000
 4182.00    0.99111   1.04831   -1.000
 4183.00    1.00346   1.04878   -1.000
 4184.00    1.01698   1.05455   -1.000
 4185.00    1.02626   1.05355   88.945
 4186.00    0.99963   1.04104   -1.000
 4187.00    0.96482   1.02546   -1.000
 4188.00    0.96429   1.01875   -1.000
 4189.00    0.99075   1.02494   -1.000
 4190.00    1.00009   1.03927   -1.000
 4191.00    1.00726   1.05660   -1.000
 4192.00    1.02654   1.07382   -1.000
 4193.00    1.05495   1.08481   -1.000
 4194.00    1.03981   1.08144   -1.000
 4195.00    1.00564   1.06111   -1.000
 4196.00    0.97020   1.03037   -1.000
 4197.00    0.94603   1.00042   -1.000
 4198.00    0.93516   0.97848   -1.000
 4199.00    0.93854   0.96577   -1.000
 4200.00    0.95224   0.96222   96.352
 4201.00    0.95790   0.96693   96.134
 4202.00    0.96157   0.97795   95.501
 4203.00    0.97113   0.99524   93.960
 4204.00    0.98442   1.01890   -1.000
 4205.00    0.99637   1.04561   -1.000
 4206.00    1.02470   1.07062   -1.000
 4207.00    1.03529   1.08972   -1.000
 4208.00    1.04858   1.09967   -1.000
 4209.00    1.04748   1.10112   -1.000
 4210.00    1.05247   1.09978   -1.000
 4211.00    1.05354   1.10142   -1.000
 4212.00    1.05118   1.10313   -1.000
 4213.00    1.04220   1.09491   -1.000
 4214.00    1.00509   1.07332   -1.000
 4215.00    0.96119   1.04820   -1.000
 4216.00    0.96061   1.03455   -1.000
 4217.00    1.00272   1.04183   -1.000
 4218.00    1.06103   1.06689   83.484
 4219.00    1.09451   1.09468   81.202
 4220.00    1.10702   1.11015   80.371
 4221.00    1.11976   1.10444   81.152
 4222.00    1.07748   1.07244   84.605
 4223.00    1.01991   1.01395   90.659
 4224.00    0.95616   0.93842   99.765
 4225.00    0.84329   0.86568   -1.000
 4226.00    0.75575   0.82212   -1.000
 4227.00    0.77892   0.82953   -1.000
 4228.00    0.88493   0.88581   98.591
 4229.00    1.00357   0.95893   -1.000
 4230.00    1.06308   1.01419   -1.000
 4231.00    1.08031   1.03971   -1.000
 4232.00    1.05757   1.04171   85.549
 4233.00    1.04336   1.03226   87.820
 4234.00    1.03084   1.01949   88.633
 4235.00    1.01020   1.00720   90.775
 4236.00    0.98739   0.99929   92.406
 4237.00    0.97977   1.00046   91.636
 4238.00    0.99680   1.01262   89.427
 4239.00    1.01310   1.03173   88.192
 4240.00    1.03052   1.05088   86.467
 4241.00    1.05561   1.06615   85.322
 4242.00    1.06654   1.07834   84.980
 4243.00    1.07422   1.09036   83.472
 4244.00    1.08839   1.10096   81.692
 4245.00    1.09561   1.10183   82.648
 4246.00    1.06937   1.08476   86.611
 4247.00    1.02062   1.05316   -1.000
 4248.00    0.99584   1.02223   92.138
 4249.00    0.98352   1.00605   92.923
 4250.00    0.98802   1.00800   92.783
 4251.00    1.00432   1.02003   90.002
 4252.00    1.05046   1.02894   87.463
 4253.00    1.05065   1.02577   88.078
 4254.00    1.00846   1.01556   90.581
 4255.00    0.99917   1.01520   89.269
 4256.00    1.04841   1.03038   85.667
 4257.00    1.07154   1.04456   85.070
 4258.00    1.05001   1.03809   88.515
 4259.00    0.99942   1.01234   93.505
 4260.00    0.96007   0.99179   -1.000
 4261.00    0.97187   0.99941   -1.000
 4262.00    1.02857   1.03487   86.184
 4263.00    1.08444   1.07817   82.150
 4264.00    1.11406   1.10961   80.302
 4265.00    1.12546   1.12224   80.169
 4266.00    1.12327   1.11824   81.546
 4267.00    1.08884   1.10160   84.327
 4268.00    1.05630   1.07275   86.879
 4269.00    1.03254   1.03188   90.261
 4270.00    0.97512   0.98452   96.355
 4271.00    0.91858   0.94166  102.306
 4272.00    0.90537   0.91519  103.188
 4273.00    0.91121   0.91178  100.741
 4274.00    0.92777   0.92958   98.198
 4275.00    0.95876   0.96400   93.715
 4276.00    1.01402   1.00972   87.533
 4277.00    1.07139   1.05340   83.521
 4278.00    1.09354   1.07702   83.615
 4279.00    1.05876   1.07464   87.537
 4280.00    1.01621   1.05883   -1.000
 4281.00    1.01007   1.04734   -1.000
 4282.00    1.01890   1.04575   89.332
 4283.00    1.03766   1.04569   88.539
 4284.00    1.02886   1.03783   89.765
 4285.00    0.99075   1.02293   -1.000
 4286.00    0.96021   1.00509   -1.000
 4287.00    0.94214   0.98408   -1.000
 4288.00    0.92661   0.95751   -1.000
 4289.00    0.89069   0.92922   -1.000
 4290.00    0.87349   0.91456   -1.000
 4291.00    0.90737   0.92575   99.527
 4292.00    0.96078   0.95543   93.109
 4293.00    0.99901   0.98320   91.504
 4294.00    1.00790   0.99267   92.456
 4295.00    0.98103   0.98066   94.015
 4296.00    0.95140   0.95264   96.194
 4297.00    0.91668   0.91269  101.198
 4298.00    0.85455   0.86478  110.197
 4299.00    0.78131   0.81919   -1.000
 4300.00    0.75401   0.78910   -1.000
 4301.00    0.77031   0.77919  115.815
 4302.00    0.78511   0.78483  114.128
 4303.00    0.80227   0.79832  112.391
 4304.00    0.81105   0.81174  111.045
 4305.00    0.82232   0.81536  111.598
 4306.00    0.81583   0.80219  115.638
 4307.00    0.77490   0.77651  122.018
 4308.00    0.74396   0.75400  124.918
 4309.00    0.74340   0.75164  122.204
 4310.00    0.77120   0.77534  115.429
 4311.00    0.81485   0.81787  107.817
 4312.00    0.86486   0.87134  102.429
 4313.00    0.90752   0.93452   98.359
 4314.00    0.96239   1.00707   -1.000
 4315.00    1.04516   1.08393   -1.000
 4316.00    1.13898   1.15404   78.053
 4317.00    1.20436   1.20352   75.430
 4318.00    1.21303   1.22562   75.535
 4319.00    1.19632   1.22311   76.774
 4320.00    1.17772   1.20175   78.545
 4321.00    1.14473   1.16126   81.259
 4322.00    1.09051   1.10040   85.336
 4323.00    1.02093   1.02871   91.769
 4324.00    0.94052   0.96815   -1.000
 4325.00    0.88811   0.94247   -1.000
 4326.00    0.92314   0.96371   -1.000
 4327.00    1.02680   1.02285   86.370
 4328.00    1.11705   1.09165   80.294
 4329.00    1.15729   1.14242   78.938
 4330.00    1.15505   1.16834   79.362
 4331.00    1.16131   1.17960   78.880
 4332.00    1.16640   1.18802   77.445
 4333.00    1.17001   1.19461   76.684
 4334.00    1.17700   1.19112   76.547
 4335.00    1.17301   1.16676   77.939
 4336.00    1.12940   1.11347   83.169
 4337.00    1.04858   1.03453   91.436
 4338.00    0.94688   0.94933   99.918
 4339.00    0.86904   0.88516   -1.000
 4340.00    0.82968   0.86301   -1.000
 4341.00    0.87217   0.89007   -1.000
 4342.00    0.96310   0.95225   91.679
 4343.00    1.03739   1.02079   86.197
 4344.00    1.09065   1.07510   83.595
 4345.00    1.13098   1.11428   81.334
 4346.00    1.14482   1.14439   79.996
 4347.00    1.14927   1.16894   79.179
 4348.00    1.16756   1.18433   77.846
 4349.00    1.17997   1.18037   78.142
 4350.00    1.13602   1.15157   82.719
 4351.00    1.06397   1.10953   -1.000
 4352.00    1.01470   1.07935   -1.000
 4353.00    1.05298   1.07933   86.108
 4354.00    1.09963   1.10618   82.180
 4355.00    1.13320   1.14073   79.710
 4356.00    1.16101   1.16596   78.088
 4357.00    1.18348   1.17844   78.208
 4358.00    1.16402   1.18200   80.014
 4359.00    1.12904   1.18323   -1.000
 4360.00    1.14790   1.18995   -1.000
 4361.00    1.17029   1.20501   -1.000
 4362.00    1.19041   1.22305   76.021
 4363.00    1.20108   1.23799   -1.000
 4364.00    1.21139   1.24734   -1.000
 4365.00    1.23022   1.24711   74.828
 4366.00    1.20602   1.23397   77.288
 4367.00    1.15885   1.21275   -1.000
 4368.00    1.13313   1.19233   -1.000
 4369.00    1.13680   1.17657   -1.000
 4370.00    1.15647   1.16428   79.568
 4371.00    1.15555   1.15174   79.520
 4372.00    1.14234   1.13481   80.364
 4373.00    1.11023   1.11268   83.808
 4374.00    1.06955   1.09167   87.142
 4375.00    1.04708   1.08427   -1.000
 4376.00    1.08713   1.09862   83.230
 4377.00    1.13950   1.12778   79.004
 4378.00    1.17475   1.15415   77.744
 4379.00    1.17790   1.16203   78.303
 4380.00    1.15971   1.14158   79.757
 4381.00    1.14105   1.09080   -1.000
 4382.00    1.04897   1.01946   93.315
 4383.00    0.94490   0.95375  103.939
 4384.00    0.89487   0.92686   -1.000
 4385.00    0.95243   0.95298   94.336
 4386.00    1.05088   1.00982   -1.000
 4387.00    1.11369   1.06107   -1.000
 4388.00    1.11692   1.08827   83.098
 4389.00    1.10008   1.09725   84.053
 4390.00    1.09690   1.10289   84.283
 4391.00    1.11148   1.11402   82.542
 4392.00    1.13829   1.12926   80.667
 4393.00    1.14336   1.14082   81.350
 4394.00    1.12712   1.14617   83.240
 4395.00    1.11824   1.15333   -1.000
 4396.00    1.15638   1.16874   78.812
 4397.00    1.19708   1.18549   76.601
 4398.00    1.19434   1.19062   77.865
 4399.00    1.16295   1.18123   80.865
 4400.00    1.12796   1.16615   -1.000
 4401.00    1.13169   1.15323   82.067
 4402.00    1.15533   1.13990   80.555
 4403.00    1.14502   1.11774   83.654
 4404.00    1.07585   1.08833   88.697
 4405.00    1.04666   1.06709   89.166
 4406.00    1.07957   1.06690   85.965
 4407.00    1.10026   1.08584   84.816
 4408.00    1.09876   1.11551   84.083
 4409.00    1.13065   1.15346   80.715
 4410.00    1.18397   1.19791   77.233
 4411.00    1.23544   1.23521   74.651
 4412.00    1.26051   1.24798   73.863
 4413.00    1.24124   1.23096   76.035
 4414.00    1.17871   1.19381   80.588
 4415.00    1.12099   1.15765   -1.000
 4416.00    1.11574   1.14627   -1.000
 4417.00    1.15068   1.16881   79.694
 4418.00    1.19431   1.21234   76.350
 4419.00    1.23453   1.25363   74.254
 4420.00    1.25140   1.27472   74.834
 4421.00    1.22171   1.27146   -1.000
 4422.00    1.18448   1.25532   -1.000
 4423.00    1.17404   1.24029   -1.000
 4424.00    1.17925   1.23158   -1.000
 4425.00    1.18699   1.22565   -1.000
 4426.00    1.18125   1.22006   -1.000
 4427.00    1.17485   1.21869   -1.000
 4428.00    1.17981   1.22423   -1.000
 4429.00    1.18207   1.23324   -1.000
 4430.00    1.17360   1.24135   -1.000
 4431.00    1.18290   1.24466   -1.000
 4432.00    1.20604   1.23865   -1.000
 4433.00    1.18936   1.21936   -1.000
 4434.00    1.13428   1.19122   -1.000
 4435.00    1.10176   1.17244   -1.000
 4436.00    1.14208   1.18189   -1.000
 4437.00    1.21541   1.21897   75.459
 4438.00    1.27185   1.26273   72.370
 4439.00    1.29087   1.28854   72.324
 4440.00    1.26650   1.28439   74.774
 4441.00    1.21325   1.25645   -1.000
 4442.00    1.16747   1.22553   -1.000
 4443.00    1.14818   1.21451   -1.000
 4444.00    1.16699   1.23125   -1.000
 4445.00    1.21490   1.26428   -1.000
 4446.00    1.25728   1.29422   -1.000
 4447.00    1.25963   1.31053   -1.000
 4448.00    1.25730   1.31503   -1.000
 4449.00    1.26525   1.31402   -1.000
 4450.00    1.24703   1.30927   -1.000
 4451.00    1.24562   1.29772   -1.000
 4452.00    1.24769   1.27487   75.680
 4453.00    1.23333   1.23818   78.624
 4454.00    1.17592   1.19394   82.312
 4455.00    1.12763   1.15868   -1.000
 4456.00    1.13756   1.14552   82.301
 4457.00    1.16507   1.15297   80.836
 4458.00    1.16588   1.16847   80.973
 4459.00    1.16320   1.18146   81.412
 4460.00    1.15071   1.19053   -1.000
 4461.00    1.14086   1.19977   -1.000
 4462.00    1.15686   1.21350   -1.000
 4463.00    1.20037   1.23345   -1.000
 4464.00    1.23642   1.25561   76.183
 4465.00    1.24604   1.27119   76.166
 4466.00    1.23341   1.27462   -1.000
 4467.00    1.22485   1.26807   -1.000
 4468.00    1.20864   1.25925   -1.000
 4469.00    1.19278   1.25687   -1.000
 4470.00    1.19504   1.26760   -1.000
 4471.00    1.23335   1.29244   -1.000
 4472.00    1.28310   1.32463   -1.000
 4473.00    1.32108   1.35284   70.797
 4474.00    1.33959   1.36911   70.270
 4475.00    1.33920   1.37423   -1.000
 4476.00    1.34306   1.37429   69.777
 4477.00    1.35605   1.37207   69.383
 4478.00    1.35532   1.36369   70.070
 4479.00    1.31843   1.34320   72.793
 4480.00    1.26081   1.31218   -1.000
 4481.00    1.22044   1.28372   -1.000
 4482.00    1.22186   1.27375   -1.000
 4483.00    1.26480   1.28831   73.785
 4484.00    1.31514   1.32073   71.018
 4485.00    1.34256   1.35501   69.562
 4486.00    1.36458   1.37416   69.753
 4487.00    1.34938   1.37152   71.433
 4488.00    1.29404   1.35347   -1.000
 4489.00    1.24843   1.33327   -1.000
 4490.00    1.24780   1.32322   -1.000
 4491.00    1.29034   1.32778   -1.000
 4492.00    1.31915   1.33906   71.746
 4493.00    1.31187   1.34345   72.950
 4494.00    1.28261   1.33558   -1.000
 4495.00    1.25138   1.32426   -1.000
 4496.00    1.25001   1.32196   -1.000
 4497.00    1.27722   1.33166   -1.000
 4498.00    1.31342   1.34780   -1.000
 4499.00    1.34804   1.36296   70.470
 4500.00    1.32958   1.37339   -1.000
 4501.00    1.31216   1.38240   -1.000
 4502.00    1.33701   1.39675   -1.000
 4503.00    1.38365   1.41771   -1.000
 4504.00    1.41939   1.43900   66.210
 4505.00    1.42206   1.45269   66.747
 4506.00    1.40822   1.45487   -1.000
 4507.00    1.39282   1.44889   -1.000
 4508.00    1.37833   1.44187   -1.000
 4509.00    1.37773   1.43847   -1.000
 4510.00    1.39646   1.43715   -1.000
 4511.00    1.39149   1.43296   -1.000
 4512.00    1.36215   1.42304   -1.000
 4513.00    1.33787   1.40964   -1.000
 4514.00    1.32937   1.39757   -1.000
 4515.00    1.33686   1.38989   -1.000
 4516.00    1.34110   1.38627   -1.000
 4517.00    1.32557   1.38349   -1.000
 4518.00    1.31853   1.38011   -1.000
 4519.00    1.33213   1.37963   -1.000
 4520.00    1.35490   1.38429   69.618
 4521.00    1.36733   1.38915   69.918
 4522.00    1.33625   1.38659   -1.000
 4523.00    1.31009   1.37391   -1.000
 4524.00    1.30064   1.35435   -1.000
 4525.00    1.28242   1.33102   -1.000
 4526.00    1.24767   1.30344   -1.000
 4527.00    1.21515   1.27273   -1.000
 4528.00    1.19771   1.24692   -1.000
 4529.00    1.20666   1.23587   -1.000
 4530.00    1.21833   1.24106   78.267
 4531.00    1.24260   1.25300   76.834
 4532.00    1.25093   1.25887   76.512
 4533.00    1.22814   1.25243   78.802
 4534.00    1.18390   1.24091   -1.000
 4535.00    1.17072   1.24077   -1.000
 4536.00    1.21727   1.26475   -1.000
 4537.00    1.31592   1.31038   71.030
 4538.00    1.36494   1.35951   69.234
 4539.00    1.36768   1.39223   70.035
 4540.00    1.35284   1.40231   -1.000
 4541.00    1.33203   1.39929   -1.000
 4542.00    1.34065   1.39501   -1.000
 4543.00    1.34494   1.39212   -1.000
 4544.00    1.34905   1.38575   -1.000
 4545.00    1.21057   1.37365   -1.000
 4546.00    0.16854   1.35920   -1.000
 4547.00   -0.04083   1.34487    0.000
 4548.00    0.09611   1.33026   -1.000
 4549.00    1.04435   1.31822   -1.000
 4550.00    0.29714   1.31572   -1.000
 4551.00    1.04144   1.32454   -1.000
 4552.00    1.35045   1.33565   74.283
 4553.00    1.26187   1.33888   -1.000
 4554.00    1.24777   1.33499   -1.000
 4555.00    1.25860   1.33420   -1.000
 4556.00    1.30175   1.34670   -1.000
 4557.00    1.35645   1.37361   69.179
 4558.00    1.39592   1.40522   68.041
 4559.00    1.39815   1.43033   68.496
 4560.00    1.39605   1.44431   -1.000
 4561.00    1.39944   1.44737   -1.000
 4562.00    1.38150   1.44053   -1.000
 4563.00    1.34999   1.42520   -1.000
 4564.00    1.31597   1.40654   -1.000
 4565.00    1.31067   1.39441   -1.000
 4566.00    1.34462   1.39728   -1.000
 4567.00    1.39162   1.41366   68.449
 4568.00    1.41321   1.43136   67.816
 4569.00    1.41087   1.43709   68.633
 4570.00    1.37846   1.42711   -1.000
 4571.00    1.32537   1.40935   -1.000
 4572.00    1.31718   1.39789   -1.000
 4573.00    1.36571   1.40196   -1.000
 4574.00    1.39894   1.41793   68.468
 4575.00    1.39446   1.43375   -1.000
 4576.00    1.38548   1.44082   -1.000
 4577.00    1.37725   1.43706   -1.000
 4578.00    1.36619   1.42251   -1.000
 4579.00    1.34262   1.39915   -1.000
 4580.00    1.30879   1.37346   -1.000
 4581.00    1.30577   1.35443   -1.000
 4582.00    1.32004   1.34779   72.782
 4583.00    1.32484   1.35183   72.268
 4584.00    1.32194   1.35871   -1.000
 4585.00    1.31197   1.36298   -1.000
 4586.00    1.31892   1.36772   -1.000
 4587.00    1.34396   1.37952   -1.000
 4588.00    1.38323   1.39852   68.506
 4589.00    1.40275   1.41628   68.466
 4590.00    1.38549   1.42283   -1.000
 4591.00    1.35617   1.41531   -1.000
 4592.00    1.33427   1.40049   -1.000
 4593.00    1.32734   1.38928   -1.000
 4594.00    1.33366   1.38788   -1.000
 4595.00    1.35087   1.39411   -1.000
 4596.00    1.35809   1.40253   -1.000
 4597.00    1.35798   1.40944   -1.000
 4598.00    1.36557   1.41219   -1.000
 4599.00    1.37110   1.40884   -1.000
 4600.00    1.35108   1.40040   -1.000
 4601.00    1.33371   1.39140   -1.000
 4602.00    1.33989   1.38690   -1.000
 4603.00    1.36288   1.38895   70.277
 4604.00    1.36025   1.39579   -1.000
 4605.00    1.37086   1.40462   -1.000
 4606.00    1.36908   1.41449   -1.000
 4607.00    1.38650   1.42675   -1.000
 4608.00    1.42765   1.44250   66.641
 4609.00    1.45294   1.45898   65.885
 4610.00    1.45901   1.46900   66.228
 4611.00    1.44646   1.46754   67.172
 4612.00    1.41548   1.45828   -1.000
 4613.00    1.41521   1.44922   68.336
 4614.00    1.41501   1.44495   67.962
 4615.00    1.42140   1.44503   67.343
 4616.00    1.42052   1.44581   67.089
 4617.00    1.42680   1.44446   67.573
 4618.00    1.41723   1.44182   68.077
 4619.00    1.41267   1.44155   67.986
 4620.00    1.42342   1.44705   67.309
 4621.00    1.44784   1.45757   66.216
 4622.00    1.44717   1.46722   66.245
 4623.00    1.44629   1.47036   66.420
 4624.00    1.44116   1.46734   66.549
 4625.00    1.44076   1.46218   67.187
 4626.00    1.43597   1.45759   67.329
 4627.00    1.43473   1.45510   67.284
 4628.00    1.42759   1.45530   67.744
 4629.00    1.40693   1.45708   -1.000
 4630.00    1.41404   1.45971   -1.000
 4631.00    1.44658   1.46333   66.708
 4632.00    1.44329   1.46560   67.058
 4633.00    1.41017   1.46257   -1.000
 4634.00    1.40260   1.45445   -1.000
 4635.00    1.41012   1.44522   -1.000
 4636.00    1.39852   1.43692   -1.000
 4637.00    1.38441   1.42923   -1.000
 4638.00    1.37330   1.42309   -1.000
 4639.00    1.37397   1.42187   -1.000
 4640.00    1.38705   1.42873   -1.000
 4641.00    1.41179   1.44293   67.412
 4642.00    1.43878   1.45807   66.522
 4643.00    1.44053   1.46503   66.849
 4644.00    1.43128   1.45816   68.145
 4645.00    1.40047   1.43894   -1.000
 4646.00    1.35664   1.41432   -1.000
 4647.00    1.34731   1.39480   -1.000
 4648.00    1.36309   1.39007   70.919
 4649.00    1.38966   1.40139   69.239
 4650.00    1.40880   1.41998   68.322
 4651.00    1.41789   1.43456   68.241
 4652.00    1.42629   1.43949   68.097
 4653.00    1.41461   1.43583   68.956
 4654.00    1.39266   1.42725   -1.000
 4655.00    1.36030   1.41920   -1.000
 4656.00    1.35618   1.41957   -1.000
 4657.00    1.39045   1.43458   -1.000
 4658.00    1.44361   1.46295   65.716
 4659.00    1.49042   1.49435   64.291
 4660.00    1.50323   1.51520   64.290
 4661.00    1.48699   1.51812   65.133
 4662.00    1.45610   1.50557   -1.000
 4663.00    1.43021   1.48465   -1.000
 4664.00    1.43356   1.46027   68.180
 4665.00    1.42716   1.43256   69.353
 4666.00    1.37426   1.40052   72.441
 4667.00    1.30726   1.36916   -1.000
 4668.00    1.28085   1.35088   -1.000
 4669.00    1.31556   1.35571   -1.000
 4670.00    1.36539   1.38071   69.862
 4671.00    1.41068   1.41196   68.022
 4672.00    1.43265   1.43625   67.687
 4673.00    1.43091   1.44993   67.760
 4674.00    1.42285   1.45791   67.682
 4675.00    1.43804   1.46601   66.760
 4676.00    1.46290   1.47309   65.746
 4677.00    1.46910   1.47183   66.143
 4678.00    1.44528   1.45829   67.641
 4679.00    1.41903   1.43716   68.972
 4680.00    1.39501   1.41753   70.102
 4681.00    1.37958   1.40605   70.757
 4682.00    1.38321   1.40493   69.799
 4683.00    1.40891   1.41322   67.989
 4684.00    1.43944   1.42668   67.139
 4685.00    1.44707   1.43916   67.423
 4686.00    1.43572   1.44662   67.437
 4687.00    1.43026   1.44906   67.843
 4688.00    1.43395   1.44849   67.827
 4689.00    1.43699   1.44687   67.834
 4690.00    1.42003   1.44541   68.350
 4691.00    1.41506   1.44503   68.473
 4692.00    1.42982   1.44762   67.613
 4693.00    1.44597   1.45435   66.596
 4694.00    1.46919   1.46308   65.083
 4695.00    1.49581   1.46996   64.284
 4696.00    1.50140   1.47172   64.658
 4697.00    1.48200   1.46536   66.609
 4698.00    1.44162   1.45005   68.629
 4699.00    1.41487   1.42959   69.366
 4700.00    1.41176   1.40927   68.742
 4701.00    1.41248   1.39188   69.313
 4702.00    1.39678   1.37843   70.581
 4703.00    1.37776   1.37219   70.903
 4704.00    1.39415   1.37665   69.473
 4705.00    1.42340   1.38801   68.464
 4706.00    1.42859   1.39557   69.520
 4707.00    1.40471   1.39328   70.941
 4708.00    1.37319   1.38672   71.588
 4709.00    1.36663   1.38640   71.161
 4710.00    1.39382   1.39687   68.978
 4711.00    1.43529   1.41467   67.094
 4712.00    1.46320   1.43206   66.487
 4713.00    1.46133   1.44126   67.189
 4714.00    1.43463   1.44128   68.498
 4715.00    1.42409   1.44024   68.435
 4716.00    1.44042   1.44694   67.008
 4717.00    1.47202   1.46206   65.722
 4718.00    1.48775   1.47880   65.359
 4719.00    1.49315   1.49046   65.134
 4720.00    1.49539   1.49521   64.911
 4721.00    1.49425   1.49511   65.506
 4722.00    1.47327   1.49351   65.966
 4723.00    1.47754   1.49303   65.537
 4724.00    1.50228   1.49352   64.809
 4725.00    1.51036   1.49107   64.950
 4726.00    1.48741   1.48031   66.607
 4727.00    1.43914   1.45983   69.198
 4728.00    1.40415   1.43627   70.694
 4729.00    1.39967   1.42004   70.345
 4730.00    1.42057   1.41585   69.604
 4731.00    1.42207   1.42063   69.065
 4732.00    1.43002   1.42962   68.216
 4733.00    1.43722   1.43914   67.636
 4734.00    1.45532   1.44579   67.262
 4735.00    1.46165   1.44789   66.887
 4736.00    1.45189   1.44673   67.664
 4737.00    1.44038   1.44536   67.717
 4738.00    1.44738   1.44728   66.791
 4739.00    1.47088   1.45348   66.867
 4740.00    1.47174   1.46062   67.274
 4741.00    1.44865   1.46556   67.347
 4742.00    1.45642   1.46957   66.776
 4743.00    1.47277   1.47470   66.036
 4744.00    1.48388   1.48021   66.213
 4745.00    1.48808   1.48458   66.266
 4746.00    1.48557   1.48850   65.743
 4747.00    1.49686   1.49423   65.068
 4748.00    1.49728   1.50208   64.957
 4749.00    1.49747   1.50939   65.068
 4750.00    1.50698   1.51333   65.108
 4751.00    1.50674   1.51187   65.605
 4752.00    1.49676   1.50364   66.364
 4753.00    1.48410   1.48971   66.911
 4754.00    1.46904   1.47517   67.365
 4755.00    1.45522   1.46630   67.218
 4756.00    1.45259   1.46562   67.500
 4757.00    1.43851   1.47115   68.014
 4758.00    1.43236   1.47939   -1.000
 4759.00    1.46062   1.48666   67.471
 4760.00    1.46515   1.48819   67.370
 4761.00    1.43414   1.47935   -1.000
 4762.00    1.39907   1.45975   -1.000
 4763.00    1.37787   1.43573   -1.000
 4764.00    1.38223   1.41656   -1.000
 4765.00    1.38898   1.40694   71.007
 4766.00    1.39153   1.40683   70.491
 4767.00    1.41036   1.41620   69.491
 4768.00    1.44027   1.43429   67.880
 4769.00    1.45573   1.45545   66.967
 4770.00    1.45750   1.47108   67.129
 4771.00    1.44603   1.47720   67.721
 4772.00    1.42982   1.47804   -1.000
 4773.00    1.44102   1.48099   -1.000
 4774.00    1.47654   1.48932   65.988
 4775.00    1.49062   1.49960   65.583
 4776.00    1.50028   1.50615   65.657
 4777.00    1.48096   1.50649   65.857
 4778.00    1.47628   1.50178   66.299
 4779.00    1.46973   1.49443   67.063
 4780.00    1.45554   1.48641   67.441
 4781.00    1.45612   1.47849   67.600
 4782.00    1.45196   1.47034   67.939
 4783.00    1.44272   1.46216   68.499
 4784.00    1.43358   1.45508   68.443
 4785.00    1.44336   1.44967   68.687
 4786.00    1.43040   1.44573   69.396
 4787.00    1.41683   1.44363   69.781
 4788.00    1.41783   1.44474   69.690
 4789.00    1.42573   1.45067   69.334
 4790.00    1.42903   1.46209   68.903
 4791.00    1.44060   1.47802   68.169
 4792.00    1.44731   1.49630   -1.000
 4793.00    1.48485   1.51495   65.515
 4794.00    1.51806   1.53236   64.407
 4795.00    1.52745   1.54545   64.210
 4796.00    1.52004   1.54981   64.898
 4797.00    1.50009   1.54363   -1.000
 4798.00    1.47138   1.52998   -1.000
 4799.00    1.44957   1.51544   -1.000
 4800.00    1.44848   1.50761   -1.000
 4801.00    1.47195   1.51078   -1.000
 4802.00    1.49890   1.52172   65.262
 4803.00    1.50460   1.53198   65.405
 4804.00    1.48608   1.53507   -1.000
 4805.00    1.45184   1.53063   -1.000
 4806.00    1.44327   1.52274   -1.000
 4807.00    1.44998   1.51565   -1.000
 4808.00    1.45799   1.51218   -1.000
 4809.00    1.46932   1.51398   -1.000
 4810.00    1.47010   1.52021   -1.000
 4811.00    1.47062   1.52744   -1.000
 4812.00    1.47515   1.53290   -1.000
 4813.00    1.49010   1.53678   -1.000
 4814.00    1.49157   1.54132   -1.000
 4815.00    1.48700   1.54861   -1.000
 4816.00    1.50683   1.55832   -1.000
 4817.00    1.51419   1.56721   -1.000
 4818.00    1.51852   1.57196   -1.000
 4819.00    1.51845   1.57219   -1.000
 4820.00    1.52206   1.56864   -1.000
 4821.00    1.51432   1.55963   -1.000
 4822.00    1.49881   1.54271   -1.000
 4823.00    1.46505   1.52070   -1.000
 4824.00    1.44661   1.50339   -1.000
 4825.00    1.46741   1.50018   66.440
 4826.00    1.49706   1.51001   65.419
 4827.00    1.50435   1.52257   65.747
 4828.00    1.49359   1.52911   66.550
 4829.00    1.48228   1.52845   -1.000
 4830.00    1.48174   1.52331   -1.000
 4831.00    1.46330   1.51515   -1.000
 4832.00    1.46127   1.50624   -1.000
 4833.00    1.46989   1.50187   66.517
 4834.00    1.50329   1.50554   65.643
 4835.00    1.50873   1.51476   65.426
 4836.00    1.51517   1.52301   65.548
 4837.00    1.51417   1.52481   65.871
 4838.00    1.48512   1.51890   66.800
 4839.00    1.46274   1.50740   -1.000
 4840.00    1.44649   1.49445   -1.000
 4841.00    1.45141   1.48492   67.852
 4842.00    1.46868   1.48179   67.503
 4843.00    1.47304   1.48480   66.991
 4844.00    1.48424   1.49268   66.314
 4845.00    1.50343   1.50444   65.255
 4846.00    1.52476   1.51612   64.947
 4847.00    1.50993   1.52122   66.339
 4848.00    1.47476   1.51847   -1.000
 4849.00    1.47043   1.51408   -1.000
 4850.00    1.48394   1.51351   66.286
 4851.00    1.48593   1.51507   66.163
 4852.00    1.48735   1.51262   66.562
 4853.00    1.49379   1.50120   67.137
 4854.00    1.45771   1.47962   69.209
 4855.00    1.41615   1.45203   -1.000
 4856.00    1.40811   1.42597   70.930
 4857.00    1.41490   1.40330   70.186
 4858.00    1.39985   1.37258   72.215
 4859.00    1.32439   1.31785   78.633
 4860.00    1.18394   1.24179   -1.000
 4861.00    1.08436   1.17405   -1.000
 4862.00    1.12009   1.14978   -1.000
 4863.00    1.22346   1.18095   78.374
 4864.00    1.32201   1.24847   -1.000
 4865.00    1.37729   1.32191   -1.000
 4866.00    1.40649   1.38125   69.793
 4867.00    1.42936   1.42093   69.185
 4868.00    1.43665   1.44172   68.898
 4869.00    1.43147   1.44363   69.529
 4870.00    1.40835   1.42700   71.549
 4871.00    1.36236   1.39950   -1.000
 4872.00    1.35297   1.37895   72.591
 4873.00    1.38401   1.38205   70.465
 4874.00    1.42096   1.40785   69.269
 4875.00    1.43369   1.43897   68.754
 4876.00    1.44076   1.45998   68.383
 4877.00    1.44570   1.47058   68.160
 4878.00    1.45482   1.48041   67.137
 4879.00    1.47737   1.49479   66.431
 4880.00    1.48689   1.50907   67.065
 4881.00    1.45855   1.51540   -1.000
 4882.00    1.43903   1.51199   -1.000
 4883.00    1.45518   1.50342   -1.000
 4884.00    1.44757   1.49283   -1.000
 4885.00    1.43388   1.47988   -1.000
 4886.00    1.42424   1.46576   -1.000
 4887.00    1.43020   1.45372   69.758
 4888.00    1.44593   1.44380   69.671
 4889.00    1.43513   1.43150   70.740
 4890.00    1.39165   1.41534   72.336
 4891.00    1.39105   1.40500   71.796
 4892.00    1.42697   1.41628   68.842
 4893.00    1.48687   1.45600   65.615
 4894.00    1.54623   1.51231   63.710
 4895.00    1.58051   1.56334   62.532
 4896.00    1.59610   1.59495   62.254
 4897.00    1.59181   1.60595   62.401
 4898.00    1.57452   1.60163   63.795
 4899.00    1.52958   1.58891   -1.000
 4900.00    1.51164   1.57447   -1.000
 4901.00    1.51853   1.56203   -1.000
 4902.00    1.51685   1.55089   65.767
 4903.00    1.50300   1.54019   66.606
 4904.00    1.50054   1.53458   65.840
 4905.00    1.53351   1.54040   64.403
 4906.00    1.56990   1.55480   63.925
 4907.00    1.56282   1.56505   64.546
 4908.00    1.52720   1.56059   66.138
 4909.00    1.49779   1.54178   -1.000
 4910.00    1.46412   1.51885   -1.000
 4911.00    1.46098   1.50457   -1.000
 4912.00    1.49796   1.50586   66.713
 4913.00    1.51845   1.52000   65.806
 4914.00    1.54281   1.53835   64.950
 4915.00    1.56438   1.55191   64.381
 4916.00    1.57085   1.55148   64.708
 4917.00    1.54443   1.52836   67.029
 4918.00    1.46484   1.48140   70.758
 4919.00    1.38440   1.42299   -1.000
 4920.00    1.34687   1.37591   74.931
 4921.00    1.37580   1.35965   72.419
 4922.00    1.42899   1.37640   -1.000
 4923.00    1.46206   1.41079   -1.000
 4924.00    1.46710   1.44502   68.727
 4925.00    1.47352   1.47317   67.833
 4926.00    1.50875   1.49965   66.031
 4927.00    1.54205   1.52812   64.862
 4928.00    1.55765   1.55596   64.264
 4929.00    1.57827   1.57740   63.827
 4930.00    1.58950   1.58803   63.443
 4931.00    1.59211   1.58487   64.091
 4932.00    1.55713   1.56667   65.871
 4933.00    1.49142   1.53858   -1.000
 4934.00    1.46020   1.51272   -1.000
 4935.00    1.48320   1.49872   67.155
 4936.00    1.50472   1.49373   67.134
 4937.00    1.48323   1.48554   69.168
 4938.00    1.44264   1.46930   71.082
 4939.00    1.42406   1.45683   70.415
 4940.00    1.45777   1.46397   67.969
 4941.00    1.52168   1.49345   65.787
 4942.00    1.55490   1.53197   64.589
 4943.00    1.56347   1.56228   64.010
 4944.00    1.57762   1.57623   64.069
 4945.00    1.57903   1.57706   64.538
 4946.00    1.56325   1.57399   64.671
 4947.00    1.56801   1.57590   64.072
 4948.00    1.58405   1.58596   63.306
 4949.00    1.59251   1.59947   63.127
 4950.00    1.59731   1.60848   62.858
 4951.00    1.59532   1.60914   63.199
 4952.00    1.59311   1.60306   63.637
 4953.00    1.58245   1.59239   64.382
 4954.00    1.55985   1.57505   65.187
 4955.00    1.53411   1.54420   66.953
 4956.00    1.47344   1.49625   70.463
 4957.00    1.39718   1.44383   -1.000
 4958.00    1.39288   1.41370   71.749
 4959.00    1.46150   1.42424   67.572
 4960.00    1.53064   1.46774   -1.000
 4961.00    1.55823   1.51750   64.796
 4962.00    1.54840   1.55096   65.115
 4963.00    1.54578   1.56236   65.640
 4964.00    1.53385   1.55677   66.424
 4965.00    1.49698   1.54165   -1.000
 4966.00    1.47883   1.52419   -1.000
 4967.00    1.48566   1.51023   68.726
 4968.00    1.48594   1.50292   68.521
 4969.00    1.49359   1.50309   68.008
 4970.00    1.50007   1.51035   67.275
 4971.00    1.51181   1.52313   66.553
 4972.00    1.52959   1.53887   65.755
 4973.00    1.53219   1.55448   65.137
 4974.00    1.55228   1.56637   64.877
 4975.00    1.55492   1.57133   65.343
 4976.00    1.55254   1.56817   66.038
 4977.00    1.52496   1.55770   66.941
 4978.00    1.50662   1.54165   68.039
 4979.00    1.48643   1.52118   68.873
 4980.00    1.47342   1.49492   69.851
 4981.00    1.42825   1.45985   72.185
 4982.00    1.37575   1.41812   -1.000
 4983.00    1.36155   1.38232   74.499
 4984.00    1.38333   1.36911   73.073
 4985.00    1.41706   1.38537   71.006
 4986.00    1.46604   1.42231   68.743
 4987.00    1.50230   1.46293   67.044
 4988.00    1.51391   1.49266   67.130
 4989.00    1.50541   1.50450   68.140
 4990.00    1.48205   1.50116   68.838
 4991.00    1.47533   1.49289   68.858
 4992.00    1.48987   1.48949   68.231
 4993.00    1.50088   1.49335   67.948
 4994.00    1.50303   1.50091   67.921
 4995.00    1.51303   1.50874   67.564
 4996.00    1.52071   1.51521   67.227
 4997.00    1.51145   1.51733   67.648
 4998.00    1.50140   1.50996   68.566
 4999.00    1.47390   1.49077   69.965
 5000.00    1.44424   1.46511   70.835
 5001.00    1.44456   1.44378   70.872
 5002.00    1.45579   1.43478   70.186
 5003.00    1.47287   1.43600   69.725
 5004.00    1.46596   1.43657   70.751
 5005.00    1.43130   1.42725   72.579
 5006.00    1.40901   1.41148   72.966
 5007.00    1.41521   1.40408   71.141
 5008.00    1.45663   1.41554   68.958
 5009.00    1.49856   1.43971   -1.000
 5010.00    1.50919   1.45863   -1.000
 5011.00    1.46766   1.45711   71.270
 5012.00    1.42157   1.43418   73.964
 5013.00    1.38447   1.40272   75.675
 5014.00    1.36588   1.37883   75.278
 5015.00    1.38265   1.37069   73.586
 5016.00    1.42280   1.37625   -1.000
 5017.00    1.42302   1.38893   71.760
 5018.00    1.42917   1.40407   71.782
 5019.00    1.44286   1.41998   70.949
 5020.00    1.46270   1.43396   70.371
 5021.00    1.46102   1.44201   70.700
 5022.00    1.44712   1.44391   70.854
 5023.00    1.45763   1.44555   70.439
 5024.00    1.47301   1.45348   69.685
 5025.00    1.48346   1.46586   69.221
 5026.00    1.48364   1.47373   69.566
 5027.00    1.47431   1.47340   69.901
 5028.00    1.47647   1.47104   69.245
 5029.00    1.51298   1.47499   67.924
 5030.00    1.53622   1.48853   -1.000
 5031.00    1.54738   1.50862   65.868
 5032.00    1.57182   1.52798   65.114
 5033.00    1.58196   1.53794   65.236
 5034.00    1.55279   1.53150   67.373
 5035.00    1.49401   1.50872   70.072
 5036.00    1.45473   1.47907   71.206
 5037.00    1.44821   1.45349   71.440
 5038.00    1.44004   1.43297   72.337
 5039.00    1.40214   1.40855   75.230
 5040.00    1.35049   1.37718   78.308
 5041.00    1.32937   1.35294   78.288
 5042.00    1.36869   1.35592   74.428
 5043.00    1.44742   1.39217   -1.000
 5044.00    1.51084   1.44763   -1.000
 5045.00    1.54708   1.50017   -1.000
 5046.00    1.65320   1.53427   -1.000
 5047.00    1.10987   1.54407   -1.000
 5048.00    0.20929   1.53063   -1.000
 5049.00   -0.03904   1.50180    0.000
 5050.00    0.48429   1.47147   -1.000
 5051.00    1.49158   1.45396   70.288
 5052.00    1.48597   1.45689   68.705
 5053.00    1.53686   1.47760   -1.000
 5054.00    1.57043   1.50518   -1.000
 5055.00    1.58825   1.52859   -1.000
 5056.00    1.59723   1.54423   -1.000
 5057.00    1.59767   1.55446   65.063
 5058.00    1.60028   1.56179   65.184
 5059.00    1.59004   1.56693   65.155
 5060.00    1.58852   1.56966   64.700
 5061.00    1.60080   1.56904   64.747
 5062.00    1.60019   1.56188   65.641
 5063.00    1.56690   1.54365   67.585
 5064.00    1.51032   1.51564   70.015
 5065.00    1.47490   1.48817   70.784
 5066.00    1.49062   1.47223   69.885
 5067.00    1.51545   1.47002   68.819
 5068.00    1.52412   1.47536   -1.000
 5069.00    1.53203   1.48173   -1.000
 5070.00    1.54247   1.48654   -1.000
 5071.00    1.54974   1.48814   -1.000
 5072.00    1.52854   1.48529   68.954
 5073.00    1.53354   1.48124   -1.000
 5074.00    1.54568   1.48174   -1.000
 5075.00    1.54915   1.48742   -1.000
 5076.00    1.55234   1.49163   -1.000
 5077.00    1.55010   1.48605   -1.000
 5078.00    1.51883   1.46684   -1.000
 5079.00    1.45183   1.43835   73.914
 5080.00    1.40771   1.41249   74.704
 5081.00    1.42932   1.40038   73.068
 5082.00    1.46283   1.40423   -1.000
 5083.00    1.48012   1.41904   -1.000
 5084.00    1.50061   1.43987   -1.000
 5085.00    1.53829   1.46425   -1.000
 5086.00    1.56272   1.48869   -1.000
 5087.00    1.56065   1.50795   -1.000
 5088.00    1.56018   1.51956   67.131
 5089.00    1.56755   1.52592   66.641
 5090.00    1.58063   1.53115   -1.000
 5091.00    1.58490   1.53804   -1.000
 5092.00    1.58810   1.54714   65.159
 5093.00    1.60327   1.55589   -1.000
 5094.00    1.64904   1.55805   -1.000
 5095.00    1.65964   1.54683   -1.000
 5096.00    1.57002   1.52113   -1.000
 5097.00    1.53686   1.48841   -1.000
 5098.00    1.48901   1.46012   71.145
 5099.00    1.48267   1.44573   71.337
 5100.00    1.51407   1.44903   -1.000
 5101.00    1.54907   1.46624   -1.000
 5102.00    1.58098   1.48669   -1.000
 5103.00    1.57097   1.49933   -1.000
 5104.00    1.56745   1.49988   -1.000
 5105.00    1.55226   1.49040   -1.000
 5106.00    1.51123   1.47497   69.983
 5107.00    1.49625   1.45826   70.864
 5108.00    1.48903   1.44571   -1.000
 5109.00    1.49026   1.44206   -1.000
 5110.00    1.49321   1.44925   69.756
 5111.00    1.50904   1.46557   68.736
 5112.00    1.53726   1.48638   -1.000
 5113.00    1.55363   1.50682   -1.000
 5114.00    1.57274   1.52478   -1.000
 5115.00    1.58856   1.54025   -1.000
 5116.00    1.59725   1.55275   65.413
 5117.00    1.61898   1.56074   -1.000
 5118.00    1.63419   1.56274   -1.000
 5119.00    1.61713   1.55777   -1.000
 5120.00    1.58420   1.54546   66.959
 5121.00    1.56360   1.52692   68.069
 5122.00    1.53045   1.50433   69.847
 5123.00    1.49045   1.47993   71.970
 5124.00    1.46199   1.45701   72.418
 5125.00    1.46980   1.44067   71.737
 5126.00    1.48724   1.43415   -1.000
 5127.00    1.49331   1.43527   -1.000
 5128.00    1.49186   1.43909   -1.000
 5129.00    1.48613   1.44323   -1.000
 5130.00    1.49739   1.44912   -1.000
 5131.00    1.52528   1.45891   -1.000
 5132.00    1.54444   1.47228   -1.000
 5133.00    1.55600   1.48606   -1.000
 5134.00    1.56963   1.49668   -1.000
 5135.00    1.58196   1.50160   -1.000
 5136.00    1.58439   1.49882   -1.000
 5137.00    1.55959   1.48742   -1.000
 5138.00    1.51495   1.46989   -1.000
 5139.00    1.49190   1.45233   70.999
 5140.00    1.50557   1.44089   -1.000
 5141.00    1.50051   1.43736   -1.000
 5142.00    1.48993   1.43920   -1.000
 5143.00    1.47785   1.44356   71.607
 5144.00    1.49560   1.44898   -1.000
 5145.00    1.52492   1.45337   -1.000
 5146.00    1.51298   1.45375   -1.000
 5147.00    1.50026   1.45084   -1.000
 5148.00    1.50696   1.45008   -1.000
 5149.00    1.52206   1.45368   -1.000
 5150.00    1.51193   1.45606   -1.000
 5151.00    1.47864   1.45166   71.941
 5152.00    1.46679   1.44203   72.384
 5153.00    1.46896   1.43382   71.987
 5154.00    1.49462   1.43412   -1.000
 5155.00    1.52796   1.44730   -1.000
 5156.00    1.58006   1.47221   -1.000
 5157.00    1.61697   1.50184   -1.000
 5158.00    1.62183   1.52776   -1.000
 5159.00    1.61548   1.54478   -1.000
 5160.00    1.62576   1.55167   -1.000
 5161.00    1.60998   1.54865   -1.000
 5162.00    1.59579   1.53552   -1.000
 5163.00    1.57175   1.51106   -1.000
 5164.00    1.53382   1.47122   -1.000
 5165.00    1.45716   1.40988   -1.000
 5166.00    1.31973   1.32881   84.430
 5167.00    1.21031   1.24776   -1.000
 5168.00    1.20100   1.19613   87.895
 5169.00    1.27435   1.18599   -1.000
 5170.00    1.32977   1.19536   -1.000
 5171.00    1.27782   1.19169   -1.000
 5172.00    1.18419   1.17094   93.260
 5173.00    1.17266   1.16274   89.048
 5174.00    1.28321   1.19750   -1.000
 5175.00    1.43809   1.27301   -1.000
 5176.00    1.52274   1.35802   -1.000
 5177.00    1.55327   1.42260   -1.000
 5178.00    1.56775   1.45558   -1.000
 5179.00    1.54746   1.45777   -1.000
 5180.00    1.51174   1.42903   -1.000
 5181.00    1.43994   1.36784   -1.000
 5182.00    1.31021   1.28347   87.104
 5183.00    1.17875   1.20433   93.807
 5184.00    1.16557   1.16770   89.013
 5185.00    1.27985   1.19359   -1.000
 5186.00    1.43176   1.26798   -1.000
 5187.00    1.51358   1.35364   -1.000
 5188.00    1.54244   1.41840   -1.000
 5189.00    1.54633   1.45276   -1.000
 5190.00    1.53890   1.46202   -1.000
 5191.00    1.49860   1.45319   -1.000
 5192.00    1.45880   1.43507   74.212
 5193.00    1.45341   1.41985   73.538
 5194.00    1.48409   1.41690   -1.000
 5195.00    1.49775   1.42748   -1.000
 5196.00    1.51584   1.44719   -1.000
 5197.00    1.54224   1.47188   -1.000
 5198.00    1.56691   1.49855   -1.000
 5199.00    1.58301   1.52241   -1.000
 5200.00    1.60095   1.53713   -1.000
 5201.00    1.58973   1.53769   -1.000
 5202.00    1.57844   1.52155   -1.000
 5203.00    1.53710   1.48941   -1.000
 5204.00    1.48203   1.44630   72.651
 5205.00    1.44395   1.40128   -1.000
 5206.00    1.43500   1.36421   -1.000
 5207.00    1.42921   1.34119   -1.000
 5208.00    1.42315   1.33360   -1.000
 5209.00    1.43473   1.34221   -1.000
 5210.00    1.47152   1.36942   -1.000
 5211.00    1.52721   1.41504   -1.000
 5212.00    1.58869   1.47023   -1.000
 5213.00    1.62476   1.51814   -1.000
 5214.00    1.62196   1.54351   -1.000
 5215.00    1.59210   1.54380   -1.000
 5216.00    1.56737   1.53155   68.503
 5217.00    1.56438   1.52521   67.869
 5218.00    1.58963   1.53585   -1.000
 5219.00    1.62370   1.56111   -1.000
 5220.00    1.64685   1.58981   -1.000
 5221.00    1.66249   1.61055   -1.000
 5222.00    1.65331   1.61564   65.536
 5223.00    1.61677   1.60071   67.600
 5224.00    1.55519   1.56423   70.433
 5225.00    1.49038   1.51081   73.761
 5226.00    1.43324   1.45627   75.736
 5227.00    1.43523   1.42364   73.952
 5228.00    1.50347   1.42786   -1.000
 5229.00    1.58252   1.46287   -1.000
 5230.00    1.63085   1.50533   -1.000
 5231.00    1.64814   1.53246   -1.000
 5232.00    1.61971   1.53703   -1.000
 5233.00    1.58739   1.52855   -1.000
 5234.00    1.57614   1.52411   -1.000
 5235.00    1.59643   1.53586   -1.000
 5236.00    1.63338   1.56322   -1.000
 5237.00    1.66982   1.59540   -1.000
 5238.00    1.67284   1.62070   -1.000
 5239.00    1.66119   1.63385   64.398
 5240.00    1.66333   1.63657   64.266
 5241.00    1.66357   1.63358   63.872
 5242.00    1.66802   1.62969   63.996
 5243.00    1.66750   1.62856   63.850
 5244.00    1.67864   1.62983   -1.000
 5245.00    1.66782   1.62742   65.108
 5246.00    1.62344   1.61498   67.194
 5247.00    1.58502   1.59352   68.728
 5248.00    1.57314   1.57130   68.829
 5249.00    1.57661   1.55608   68.958
 5250.00    1.56704   1.54953   69.420
 5251.00    1.55799   1.54927   69.048
 5252.00    1.58307   1.55296   68.056
 5253.00    1.60374   1.55866   -1.000
 5254.00    1.59513   1.56514   67.445
 5255.00    1.60309   1.57423   66.931
 5256.00    1.63874   1.58947   -1.000
 5257.00    1.68638   1.61034   -1.000
 5258.00    1.71088   1.62939   -1.000
 5259.00    1.70692   1.63562   -1.000
 5260.00    1.67375   1.62081   -1.000
 5261.00    1.60538   1.58374   68.333
 5262.00    1.54038   1.53056   71.611
 5263.00    1.49938   1.47230   74.040
 5264.00    1.46600   1.42160   -1.000
 5265.00    1.43703   1.38884   -1.000
 5266.00    1.45292   1.37667   -1.000
 5267.00    1.49843   1.37612   -1.000
 5268.00    1.49898   1.37236   -1.000
 5269.00    1.43051   1.35954   -1.000
 5270.00    1.39706   1.34977   -1.000
 5271.00    1.46592   1.36198   -1.000
 5272.00    1.56089   1.39985   -1.000
 5273.00    1.59919   1.44764   -1.000
 5274.00    1.59975   1.48827   -1.000
 5275.00    1.60121   1.51797   -1.000
 5276.00    1.62246   1.54431   -1.000
 5277.00    1.67094   1.57422   -1.000
 5278.00    1.71099   1.60445   -1.000
 5279.00    1.72203   1.62296   -1.000
 5280.00    1.69153   1.62005   -1.000
 5281.00    1.65360   1.59794   -1.000
 5282.00    1.61177   1.56922   67.955
 5283.00    1.59630   1.54885   -1.000
 5284.00    1.61471   1.54805   -1.000
 5285.00    1.66093   1.56993   -1.000
 5286.00    1.73258   1.60674   -1.000
 5287.00    1.75466   1.64399   -1.000
 5288.00    1.74058   1.67035   -1.000
 5289.00    1.73113   1.68379   -1.000
 5290.00    1.73955   1.68839   -1.000
 5291.00    1.75320   1.68818   -1.000
 5292.00    1.73956   1.68519   -1.000
 5293.00    1.72281   1.67933   63.091
 5294.00    1.72076   1.66743   -1.000
 5295.00    1.68712   1.64460   65.736
 5296.00    1.62512   1.60943   68.312
 5297.00    1.57078   1.56947   70.098
 5298.00    1.55386   1.53973   69.531
 5299.00    1.58932   1.53147   -1.000
 5300.00    1.63675   1.54319   -1.000
 5301.00    1.65553   1.56450   -1.000
 5302.00    1.66639   1.58754   -1.000
 5303.00    1.69588   1.61148   -1.000
 5304.00    1.73749   1.63606   -1.000
 5305.00    1.75862   1.65617   -1.000
 5306.00    1.74794   1.66638   -1.000
 5307.00    1.72720   1.66793   -1.000
 5308.00    1.72697   1.66839   -1.000
 5309.00    1.74919   1.67445   -1.000
 5310.00    1.76321   1.68560   -1.000
 5311.00    1.76126   1.69544   -1.000
 5312.00    1.75341   1.69796   -1.000
 5313.00    1.75608   1.69167   -1.000
 5314.00    1.75216   1.67881   -1.000
 5315.00    1.72880   1.66299   -1.000
 5316.00    1.71160   1.64876   -1.000
 5317.00    1.70408   1.64164   -1.000
 5318.00    1.71248   1.64442   -1.000
 5319.00    1.72650   1.65308   -1.000
 5320.00    1.72387   1.65862   -1.000
 5321.00    1.72922   1.65360   -1.000
 5322.00    1.71323   1.63662   -1.000
 5323.00    1.68706   1.61151   -1.000
 5324.00    1.66281   1.58406   -1.000
 5325.00    1.66722   1.55668   -1.000
 5326.00    1.65396   1.52532   -1.000
 5327.00    1.56002   1.48635   -1.000
 5328.00    1.47494   1.44878   75.383
 5329.00    1.48907   1.43357   -1.000
 5330.00    1.58439   1.45425   -1.000
 5331.00    1.66732   1.50202   -1.000
 5332.00    1.69167   1.55370   -1.000
 5333.00    1.68835   1.59281   -1.000
 5334.00    1.72161   1.61809   -1.000
 5335.00    1.73911   1.63409   -1.000
 5336.00    1.73807   1.64185   -1.000
 5337.00    1.72516   1.63952   -1.000
 5338.00    1.71131   1.62591   -1.000
 5339.00    1.68144   1.60297   -1.000
 5340.00    1.63531   1.57811   -1.000
 5341.00    1.62612   1.56336   -1.000
 5342.00    1.66781   1.56725   -1.000
 5343.00    1.71119   1.58600   -1.000
 5344.00    1.72272   1.60553   -1.000
 5345.00    1.70991   1.61370   -1.000
 5346.00    1.70207   1.60910   -1.000
 5347.00    1.69920   1.59861   -1.000
 5348.00    1.68515   1.59027   -1.000
 5349.00    1.67232   1.58934   -1.000
 5350.00    1.68099   1.59826   -1.000
 5351.00    1.71395   1.61618   -1.000
 5352.00    1.74680   1.63804   -1.000
 5353.00    1.76178   1.65769   -1.000
 5354.00    1.76195   1.67332   -1.000
 5355.00    1.78754   1.68746   -1.000
 5356.00    1.80444   1.70132   -1.000
 5357.00    1.80072   1.71244   -1.000
 5358.00    1.80150   1.71769   -1.000
 5359.00    1.79856   1.71613   -1.000
 5360.00    1.77998   1.70816   -1.000
 5361.00    1.75488   1.69427   -1.000
 5362.00    1.72934   1.67573   -1.000
 5363.00    1.72301   1.65504   -1.000
 5364.00    1.70203   1.63548   -1.000
 5365.00    1.69951   1.62064   -1.000
 5366.00    1.69493   1.61222   -1.000
 5367.00    1.69908   1.60722   -1.000
 5368.00    1.70096   1.59808   -1.000
 5369.00    1.67649   1.57789   -1.000
 5370.00    1.62390   1.54805   -1.000
 5371.00    1.59570   1.52119   -1.000
 5372.00    1.62704   1.51479   -1.000
 5373.00    1.69822   1.53800   -1.000
 5374.00    1.75850   1.58318   -1.000
 5375.00    1.78487   1.63130   -1.000
 5376.00    1.78084   1.66622   -1.000
 5377.00    1.77477   1.68340   -1.000
 5378.00    1.77219   1.68723   -1.000
 5379.00    1.76209   1.68376   -1.000
 5380.00    1.74720   1.67628   -1.000
 5381.00    1.73784   1.66584   -1.000
 5382.00    1.73179   1.65408   -1.000
 5383.00    1.72043   1.64519   -1.000
 5384.00    1.72759   1.64459   -1.000
 5385.00    1.75419   1.65421   -1.000
 5386.00    1.76734   1.66923   -1.000
 5387.00    1.76499   1.68079   -1.000
 5388.00    1.75072   1.68221   -1.000
 5389.00    1.72210   1.67266   -1.000
 5390.00    1.70046   1.65614   -1.000
 5391.00    1.69425   1.63787   -1.000
 5392.00    1.69142   1.62151   -1.000
 5393.00    1.68955   1.60859   -1.000
 5394.00    1.68574   1.59778   -1.000
 5395.00    1.66983   1.58532   -1.000
 5396.00    1.63491   1.56926   -1.000
 5397.00    1.60503   1.55450   -1.000
 5398.00    1.63470   1.55123   -1.000
 5399.00    1.69549   1.56510   -1.000
 5400.00    1.72924   1.58982   -1.000
 5401.00    1.73198   1.61129   -1.000
 5402.00    1.73023   1.61707   -1.000
 5403.00    1.69924   1.60200   -1.000
 5404.00    1.63093   1.57072   -1.000
 5405.00    1.59234   1.53728   -1.000
 5406.00    1.59928   1.51756   -1.000
 5407.00    1.63626   1.51797   -1.000
 5408.00    1.65187   1.53084   -1.000
 5409.00    1.63486   1.54376   -1.000
 5410.00    1.63012   1.55328   -1.000
 5411.00    1.66963   1.56581   -1.000
 5412.00    1.71956   1.58634   -1.000
 5413.00    1.75518   1.61048   -1.000
 5414.00    1.74236   1.63016   -1.000
 5415.00    1.74279   1.64352   -1.000
 5416.00    1.74895   1.65463   -1.000
 5417.00    1.75869   1.66608   -1.000
 5418.00    1.76760   1.67583   -1.000
 5419.00    1.75591   1.68061   -1.000
 5420.00    1.74420   1.67961   -1.000
 5421.00    1.75327   1.67401   -1.000
 5422.00    1.74773   1.66479   -1.000
 5423.00    1.73414   1.65345   -1.000
 5424.00    1.71953   1.64430   -1.000
 5425.00    1.70496   1.64341   -1.000
 5426.00    1.73961   1.65102   -1.000
 5427.00    1.77404   1.65651   -1.000
 5428.00    1.73616   1.64739   -1.000
 5429.00    1.66847   1.62324   -1.000
 5430.00    1.64795   1.59789   -1.000
 5431.00    1.68299   1.58495   -1.000
 5432.00    1.70817   1.58393   -1.000
 5433.00    1.68262   1.58448   -1.000
 5434.00    1.64898   1.58098   -1.000
 5435.00    1.65105   1.57958   -1.000
 5436.00    1.67534   1.59091   -1.000
 5437.00    1.71502   1.61817   -1.000
 5438.00    1.75931   1.65367   -1.000
 5439.00    1.79220   1.68576   -1.000
 5440.00    1.80997   1.70825   -1.000
 5441.00    1.81180   1.72127   -1.000
 5442.00    1.80509   1.72529   -1.000
 5443.00    1.79059   1.71718   -1.000
 5444.00    1.75510   1.69284   -1.000
 5445.00    1.70021   1.65401   -1.000
 5446.00    1.64072   1.61171   69.175
 5447.00    1.61175   1.58267   68.447
 5448.00    1.65014   1.57932   -1.000
 5449.00    1.71540   1.60012   -1.000
 5450.00    1.75050   1.63136   -1.000
 5451.00    1.74942   1.65659   -1.000
 5452.00    1.75014   1.66498   -1.000
 5453.00    1.73264   1.65342   -1.000
 5454.00    1.69016   1.62659   -1.000
 5455.00    1.64142   1.59719   -1.000
 5456.00    1.64629   1.58259   -1.000
 5457.00    1.69334   1.59277   -1.000
 5458.00    1.74909   1.62155   -1.000
 5459.00    1.76940   1.65091   -1.000
 5460.00    1.75534   1.66497   -1.000
 5461.00    1.73054   1.65975   -1.000
 5462.00    1.69309   1.64286   -1.000
 5463.00    1.67814   1.62691   -1.000
 5464.00    1.69523   1.62167   -1.000
 5465.00    1.71651   1.62931   -1.000
 5466.00    1.71272   1.64476   -1.000
 5467.00    1.72706   1.66104   -1.000
 5468.00    1.74119   1.67354   -1.000
 5469.00    1.74187   1.68017   -1.000
 5470.00    1.73285   1.68041   -1.000
 5471.00    1.72178   1.67513   -1.000
 5472.00    1.71158   1.66570   -1.000
 5473.00    1.70286   1.65240   -1.000
 5474.00    1.68632   1.63409   -1.000
 5475.00    1.65948   1.61083   -1.000
 5476.00    1.63249   1.58796   -1.000
 5477.00    1.61918   1.57501   -1.000
 5478.00    1.65632   1.57883   -1.000
 5479.00    1.70877   1.59627   -1.000
 5480.00    1.71099   1.61558   -1.000
 5481.00    1.68048   1.62783   -1.000
 5482.00    1.67198   1.63429   67.180
 5483.00    1.68814   1.64248   -1.000
 5484.00    1.72536   1.65605   -1.000
 5485.00    1.75359   1.67013   -1.000
 5486.00    1.74540   1.67702   -1.000
 5487.00    1.72264   1.67408   -1.000
 5488.00    1.70385   1.66632   66.071
 5489.00    1.70440   1.66143   66.055
 5490.00    1.71073   1.66295   -1.000
 5491.00    1.71665   1.66907   -1.000
 5492.00    1.73248   1.67576   -1.000
 5493.00    1.73719   1.68039   -1.000
 5494.00    1.73243   1.68179   -1.000
 5495.00    1.74249   1.67883   -1.000
 5496.00    1.72749   1.67118   -1.000
 5497.00    1.70580   1.66117   -1.000
 5498.00    1.71671   1.65302   -1.000
 5499.00    1.73435   1.64875   -1.000
 5500.00    1.73594   1.64523   -1.000
 5501.00    1.70659   1.63891   -1.000
 5502.00    1.70574   1.63177   -1.000
 5503.00    1.70303   1.62786   -1.000
 5504.00    1.70521   1.62716   -1.000
 5505.00    1.70471   1.62515   -1.000
 5506.00    1.67426   1.61957   -1.000
 5507.00    1.67272   1.61523   -1.000
 5508.00    1.70504   1.61803   -1.000
 5509.00    1.72588   1.62737   -1.000
 5510.00    1.72769   1.63514   -1.000
 5511.00    1.69560   1.63298   -1.000
 5512.00    1.66340   1.62032   -1.000
 5513.00    1.64733   1.60515   -1.000
 5514.00    1.65759   1.59795   -1.000
 5515.00    1.69501   1.60399   -1.000
 5516.00    1.72207   1.62144   -1.000
 5517.00    1.74707   1.64434   -1.000
 5518.00    1.77396   1.66675   -1.000
 5519.00    1.78636   1.68436   -1.000
 5520.00    1.78886   1.69519   -1.000
 5521.00    1.78621   1.69980   -1.000
 5522.00    1.78127   1.70050   -1.000
 5523.00    1.77612   1.69851   -1.000
 5524.00    1.77453   1.69177   -1.000
 5525.00    1.75625   1.67691   -1.000
 5526.00    1.72244   1.65284   -1.000
 5527.00    1.67948   1.62491   -1.000
 5528.00    1.65205   1.60392   -1.000
 5529.00    1.67655   1.60080   -1.000
 5530.00    1.71430   1.61744   -1.000
 5531.00    1.74290   1.64363   -1.000
 5532.00    1.74864   1.66511   -1.000
 5533.00    1.73675   1.67396   -1.000
 5534.00    1.72280   1.67223   -1.000
 5535.00    1.73284   1.66744   -1.000
 5536.00    1.74589   1.66616   -1.000
 5537.00    1.75572   1.66981   -1.000
 5538.00    1.76613   1.67595   -1.000
 5539.00    1.77113   1.68265   -1.000
 5540.00    1.78894   1.68940   -1.000
 5541.00    1.79773   1.69426   -1.000
 5542.00    1.78953   1.69440   -1.000
 5543.00    1.77366   1.68958   -1.000
 5544.00    1.76136   1.68381   -1.000
 5545.00    1.76643   1.68176   -1.000
 5546.00    1.76495   1.68480   -1.000
 5547.00    1.77595   1.69184   -1.000
 5548.00    1.79365   1.70138   -1.000
 5549.00    1.81373   1.71116   -1.000
 5550.00    1.81131   1.71831   -1.000
 5551.00    1.81234   1.72044   -1.000
 5552.00    1.79943   1.71686   -1.000
 5553.00    1.78036   1.70936   -1.000
 5554.00    1.76680   1.70158   -1.000
 5555.00    1.76596   1.69705   -1.000
 5556.00    1.77960   1.69666   -1.000
 5557.00    1.78883   1.69904   -1.000
 5558.00    1.78479   1.70270   -1.000
 5559.00    1.78505   1.70600   -1.000
 5560.00    1.78038   1.70645   -1.000
 5561.00    1.77208   1.70169   -1.000
 5562.00    1.76261   1.69223   -1.000
 5563.00    1.75048   1.68127   -1.000
 5564.00    1.74045   1.67181   -1.000
 5565.00    1.73393   1.66475   -1.000
 5566.00    1.73727   1.65953   -1.000
 5567.00    1.74272   1.65557   -1.000
 5568.00    1.74206   1.65252   -1.000
 5569.00    1.73144   1.65008   -1.000
 5570.00    1.73514   1.64757   -1.000
 5571.00    1.74517   1.64451   -1.000
 5572.00    1.72594   1.64107   -1.000
 5573.00    1.67948   1.63937   66.001
 5574.00    1.54847   1.64193   -1.000
 5575.00    1.16177   1.64847   -1.000
 5576.00    0.66050   1.65716   -1.000
 5577.00    0.57013   1.66693   -1.000
 5578.00    1.01665   1.67706   -1.000
 5579.00    1.34733   1.68570   -1.000
 5580.00    1.75303   1.69073   -1.000
 5581.00    1.77049   1.69186   -1.000
 5582.00    1.76763   1.69047   -1.000
 5583.00    1.77448   1.68709   -1.000
 5584.00    1.76713   1.67957   -1.000
 5585.00    1.74680   1.66290   -1.000
 5586.00    1.70710   1.63419   -1.000
 5587.00    1.65456   1.59916   -1.000
 5588.00    1.64079   1.56953   -1.000
 5589.00    1.64649   1.55634   -1.000
 5590.00    1.67723   1.56245   -1.000
 5591.00    1.71318   1.58189   -1.000
 5592.00    1.72154   1.60360   -1.000
 5593.00    1.71725   1.61937   -1.000
 5594.00    1.71188   1.62851   -1.000
 5595.00    1.73127   1.63515   -1.000
 5596.00    1.75468   1.64143   -1.000
 5597.00    1.73382   1.64381   -1.000
 5598.00    1.69919   1.63862   -1.000
 5599.00    1.68760   1.62781   -1.000
 5600.00    1.67674   1.61569   -1.000
 5601.00    1.66921   1.60584   -1.000
 5602.00    1.66746   1.60263   -1.000
 5603.00    1.67830   1.61110   -1.000
 5604.00    1.72092   1.63346   -1.000
 5605.00    1.76328   1.66542   -1.000
 5606.00    1.78577   1.69750   -1.000
 5607.00    1.79161   1.72175   -1.000
 5608.00    1.78463   1.73557   -1.000
 5609.00    1.79103   1.74150   -1.000
 5610.00    1.79806   1.74329   -1.000
 5611.00    1.78954   1.74214   -1.000
 5612.00    1.78563   1.73460   -1.000
 5613.00    1.77147   1.71518   -1.000
 5614.00    1.72969   1.68306   -1.000
 5615.00    1.67916   1.64633   69.195
 5616.00    1.66529   1.62125   -1.000
 5617.00    1.70030   1.61822   -1.000
 5618.00    1.74506   1.63431   -1.000
 5619.00    1.75568   1.65778   -1.000
 5620.00    1.75997   1.67803   -1.000
 5621.00    1.76304   1.69015   -1.000
 5622.00    1.75847   1.69298   -1.000
 5623.00    1.74923   1.68671   -1.000
 5624.00    1.71783   1.67531   -1.000
 5625.00    1.70928   1.66630   -1.000
 5626.00    1.71515   1.66641   -1.000
 5627.00    1.74685   1.67702   -1.000
 5628.00    1.76363   1.69343   -1.000
 5629.00    1.78458   1.70948   -1.000
 5630.00    1.79132   1.72126   -1.000
 5631.00    1.78758   1.72717   -1.000
 5632.00    1.78606   1.72739   -1.000
 5633.00    1.77542   1.72330   -1.000
 5634.00    1.76804   1.71607   -1.000
 5635.00    1.77248   1.70711   -1.000
 5636.00    1.74799   1.69805   -1.000
 5637.00    1.72606   1.69061   66.297
 5638.00    1.73327   1.68630   -1.000
 5639.00    1.73116   1.68513   -1.000
 5640.00    1.72946   1.68511   -1.000
 5641.00    1.73098   1.68503   -1.000
 5642.00    1.74551   1.68549   -1.000
 5643.00    1.74228   1.68730   -1.000
 5644.00    1.73958   1.69063   -1.000
 5645.00    1.75527   1.69505   -1.000
 5646.00    1.76446   1.69951   -1.000
 5647.00    1.76422   1.70270   -1.000
 5648.00    1.76713   1.70381   -1.000
 5649.00    1.77154   1.70328   -1.000
 5650.00    1.78001   1.70317   -1.000
 5651.00    1.78439   1.70468   -1.000
 5652.00    1.78322   1.70677   -1.000
 5653.00    1.79555   1.70672   -1.000
 5654.00    1.78740   1.70211   -1.000
 5655.00    1.76328   1.69193   -1.000
 5656.00    1.75043   1.67573   -1.000
 5657.00    1.71241   1.65490   -1.000
 5658.00    1.67443   1.63521   70.297
 5659.00    1.67886   1.62443   -1.000
 5660.00    1.71116   1.62535   -1.000
 5661.00    1.72479   1.63460   -1.000
 5662.00    1.70738   1.64618   -1.000
 5663.00    1.70787   1.65738   -1.000
 5664.00    1.73599   1.66927   -1.000
 5665.00    1.75729   1.68126   -1.000
 5666.00    1.75580   1.69022   -1.000
 5667.00    1.74538   1.69409   -1.000
 5668.00    1.72598   1.69416   66.376
 5669.00    1.72800   1.69413   66.180
 5670.00    1.73674   1.69663   65.723
 5671.00    1.75449   1.70204   -1.000
 5672.00    1.77616   1.70896   -1.000
 5673.00    1.79867   1.71592   -1.000
 5674.00    1.79852   1.72119   -1.000
 5675.00    1.78491   1.72416   -1.000
 5676.00    1.78766   1.72557   -1.000
 5677.00    1.79485   1.72646   -1.000
 5678.00    1.80052   1.72628   -1.000
 5679.00    1.78913   1.72309   -1.000
 5680.00    1.78500   1.71486   -1.000
 5681.00    1.77903   1.70127   -1.000
 5682.00    1.76338   1.68519   -1.000
 5683.00    1.75249   1.67162   -1.000
 5684.00    1.76331   1.66527   -1.000
 5685.00    1.76250   1.66640   -1.000
 5686.00    1.75883   1.66977   -1.000
 5687.00    1.73906   1.67034   -1.000
 5688.00    1.72914   1.66801   -1.000
 5689.00    1.74323   1.66785   -1.000
 5690.00    1.76706   1.67488   -1.000
 5691.00    1.79035   1.68867   -1.000
 5692.00    1.81029   1.70455   -1.000
 5693.00    1.80819   1.71739   -1.000
 5694.00    1.80576   1.72516   -1.000
 5695.00    1.80129   1.72799   -1.000
 5696.00    1.79275   1.72709   -1.000
 5697.00    1.77846   1.72296   -1.000
 5698.00    1.76482   1.71536   -1.000
 5699.00    1.75578   1.70506   -1.000
 5700.00    1.73827   1.69397   -1.000
 5701.00    1.71937   1.68530   67.352
 5702.00    1.72142   1.68109   -1.000
 5703.00    1.73641   1.68152   -1.000
 5704.00    1.74775   1.68383   -1.000
 5705.00    1.74652   1.68370   -1.000
 5706.00    1.73039   1.67782   -1.000
 5707.00    1.71546   1.66509   -1.000
 5708.00    1.69040   1.64726   -1.000
 5709.00    1.66675   1.62941   70.121
 5710.00    1.67146   1.61809   -1.000
 5711.00    1.68021   1.61792   -1.000
 5712.00    1.71052   1.63057   -1.000
 5713.00    1.75222   1.65291   -1.000
 5714.00    1.77776   1.67852   -1.000
 5715.00    1.78891   1.70031   -1.000
 5716.00    1.78611   1.71512   -1.000
 5717.00    1.79470   1.72397   -1.000
 5718.00    1.79442   1.73009   -1.000
 5719.00    1.80650   1.73622   -1.000
 5720.00    1.81153   1.74349   -1.000
 5721.00    1.82546   1.75119   -1.000
 5722.00    1.82967   1.75790   -1.000
 5723.00    1.83199   1.76241   -1.000
 5724.00    1.83046   1.76383   -1.000
 5725.00    1.81337   1.76094   -1.000
 5726.00    1.78643   1.75401   64.586
 5727.00    1.76339   1.74592   65.076
 5728.00    1.78113   1.74023   -1.000
 5729.00    1.79785   1.73877   -1.000
 5730.00    1.79921   1.73974   -1.000
 5731.00    1.79229   1.74079   -1.000
 5732.00    1.79667   1.74211   -1.000
 5733.00    1.81192   1.74553   -1.000
 5734.00    1.82981   1.75165   -1.000
 5735.00    1.82749   1.75794   -1.000
 5736.00    1.82100   1.76144   -1.000
 5737.00    1.81874   1.76140   -1.000
 5738.00    1.81260   1.75964   -1.000
 5739.00    1.81078   1.75829   -1.000
 5740.00    1.81390   1.75781   -1.000
 5741.00    1.82516   1.75719   -1.000
 5742.00    1.81825   1.75627   -1.000
 5743.00    1.81259   1.75587   -1.000
 5744.00    1.81454   1.75710   -1.000
 5745.00    1.83025   1.75900   -1.000
 5746.00    1.82464   1.75943   -1.000
 5747.00    1.80225   1.75785   -1.000
 5748.00    1.80671   1.75604   -1.000
 5749.00    1.80738   1.75562   -1.000
 5750.00    1.80747   1.75482   -1.000
 5751.00    1.81142   1.74985   -1.000
 5752.00    1.78476   1.73982   -1.000
 5753.00    1.76300   1.72814   65.901
 5754.00    1.75897   1.72194   65.804
 5755.00    1.77129   1.72577   -1.000
 5756.00    1.80789   1.73865   -1.000
 5757.00    1.83471   1.75430   -1.000
 5758.00    1.85032   1.76564   -1.000
 5759.00    1.83464   1.76832   -1.000
 5760.00    1.81168   1.76195   -1.000
 5761.00    1.78668   1.74901   65.745
 5762.00    1.76571   1.73542   65.998
 5763.00    1.75997   1.72817   65.164
 5764.00    1.77856   1.73174   -1.000
 5765.00    1.80553   1.74468   -1.000
 5766.00    1.82203   1.76032   -1.000
 5767.00    1.82555   1.77223   -1.000
 5768.00    1.82828   1.77810   -1.000
 5769.00    1.83140   1.77928   -1.000
 5770.00    1.81526   1.77769   63.299
 5771.00    1.80720   1.77382   63.670
 5772.00    1.79692   1.76757   64.069
 5773.00    1.79204   1.76049   64.197
 5774.00    1.79388   1.75492   64.270
 5775.00    1.79121   1.75267   64.109
 5776.00    1.79543   1.75354   -1.000
 5777.00    1.79901   1.75438   -1.000
 5778.00    1.76488   1.75084   63.971
 5779.00    1.73791   1.74063   64.995
 5780.00    1.70736   1.72477   66.526
 5781.00    1.70812   1.70816   67.304
 5782.00    1.72872   1.69615   67.075
 5783.00    1.74956   1.69139   -1.000
 5784.00    1.74725   1.69272   -1.000
 5785.00    1.75128   1.69744   -1.000
 5786.00    1.76867   1.70502   -1.000
 5787.00    1.78433   1.71554   -1.000
 5788.00    1.80874   1.72665   -1.000
 5789.00    1.81632   1.73465   -1.000
 5790.00    1.80451   1.73743   -1.000
 5791.00    1.79242   1.73771   -1.000
 5792.00    1.79247   1.74044   -1.000
 5793.00    1.79897   1.74794   -1.000
 5794.00    1.81834   1.75873   -1.000
 5795.00    1.81970   1.76866   -1.000
 5796.00    1.81124   1.77386   63.534
 5797.00    1.80433   1.77360   63.939
 5798.00    1.80268   1.77138   63.550
 5799.00    1.81977   1.77157   -1.000
 5800.00    1.84796   1.77564   -1.000
 5801.00    1.86478   1.78151   -1.000
 5802.00    1.86083   1.78531   -1.000
 5803.00    1.85048   1.78448   -1.000
 5804.00    1.84042   1.77948   -1.000
 5805.00    1.81844   1.77343   -1.000
 5806.00    1.80388   1.76970   63.404
 5807.00    1.82083   1.76954   -1.000
 5808.00    1.82648   1.77176   -1.000
 5809.00    1.83024   1.77473   -1.000
 5810.00    1.84793   1.77733   -1.000
 5811.00    1.84530   1.77885   -1.000
 5812.00    1.84758   1.77869   -1.000
 5813.00    1.84038   1.77629   -1.000
 5814.00    1.83544   1.77133   -1.000
 5815.00    1.82316   1.76476   -1.000
 5816.00    1.81891   1.75974   -1.000
 5817.00    1.81682   1.75985   -1.000
 5818.00    1.82736   1.76541   -1.000
 5819.00    1.84377   1.77309   -1.000
 5820.00    1.84457   1.77905   -1.000
 5821.00    1.84670   1.78175   -1.000
 5822.00    1.84675   1.78216   -1.000
 5823.00    1.85339   1.78165   -1.000
 5824.00    1.84928   1.78102   -1.000
 5825.00    1.85292   1.78102   -1.000
 5826.00    1.85892   1.78221   -1.000
 5827.00    1.86964   1.78446   -1.000
 5828.00    1.86571   1.78659   -1.000
 5829.00    1.86573   1.78764   -1.000
 5830.00    1.86924   1.78760   -1.000
 5831.00    1.86712   1.78692   -1.000
 5832.00    1.87036   1.78580   -1.000
 5833.00    1.86333   1.78395   -1.000
 5834.00    1.86206   1.78177   -1.000
 5835.00    1.86238   1.78047   -1.000
 5836.00    1.85496   1.78118   -1.000
 5837.00    1.86976   1.78326   -1.000
 5838.00    1.86322   1.78517   -1.000
 5839.00    1.84980   1.78631   -1.000
 5840.00    1.85375   1.78718   -1.000
 5841.00    1.87057   1.78814   -1.000
 5842.00    1.87381   1.78874   -1.000
 5843.00    1.87874   1.78832   -1.000
 5844.00    1.86864   1.78640   -1.000
 5845.00    1.85885   1.78275   -1.000
 5846.00    1.84564   1.77771   -1.000
 5847.00    1.81788   1.77255   -1.000
 5848.00    1.81481   1.76868   -1.000
 5849.00    1.82572   1.76568   -1.000
 5850.00    1.82174   1.76173   -1.000
 5851.00    1.81199   1.75495   -1.000
 5852.00    1.79874   1.74560   -1.000
 5853.00    1.76726   1.73552   64.651
 5854.00    1.76484   1.72568   -1.000
 5855.00    1.77794   1.71514   -1.000
 5856.00    1.76115   1.70135   -1.000
 5857.00    1.74057   1.68598   -1.000
 5858.00    1.73674   1.67631   -1.000
 5859.00    1.75750   1.67793   -1.000
 5860.00    1.78351   1.69033   -1.000
 5861.00    1.80160   1.70713   -1.000
 5862.00    1.79852   1.72167   -1.000
 5863.00    1.79211   1.73184   -1.000
 5864.00    1.79983   1.73727   -1.000
 5865.00    1.79187   1.73780   -1.000
 5866.00    1.78505   1.73483   -1.000
 5867.00    1.78369   1.73157   -1.000
 5868.00    1.78724   1.73248   -1.000
 5869.00    1.79925   1.73931   -1.000
 5870.00    1.82153   1.74939   -1.000
 5871.00    1.82384   1.75797   -1.000
 5872.00    1.82441   1.76181   -1.000
 5873.00    1.81597   1.76113   -1.000
 5874.00    1.81444   1.75817   -1.000
 5875.00    1.82694   1.75475   -1.000
 5876.00    1.83114   1.75130   -1.000
 5877.00    1.81710   1.74730   -1.000
 5878.00    1.80485   1.74212   -1.000
 5879.00    1.78258   1.73563   -1.000
 5880.00    1.75974   1.72824   64.454
 5881.00    1.76034   1.72011   -1.000
 5882.00    1.74630   1.71104   64.283
 5883.00    1.70809   1.70082   64.590
 5884.00    1.71510   1.68898   64.618
 5885.00    1.72090   1.67359   -1.000
 5886.00    1.66995   1.64812   65.724
 5887.00    1.53805   1.60268   -1.000
 5888.00    1.30630   1.53461   -1.000
 5889.00    1.09362   1.45582   -1.000
 5890.00    1.11146   1.39487   -1.000
 5891.00    1.32205   1.37191   -1.000
 5892.00    1.51497   1.38262   -1.000
 5893.00    1.52327   1.40482   -1.000
 5894.00    1.38899   1.41536   72.874
 5895.00    1.28497   1.41089   -1.000
 5896.00    1.32161   1.40524   -1.000
 5897.00    1.47575   1.41743   -1.000
 5898.00    1.62747   1.45379   -1.000
 5899.00    1.70880   1.50567   -1.000
 5900.00    1.74071   1.56079   -1.000
 5901.00    1.75999   1.60944   -1.000
 5902.00    1.77438   1.64753   -1.000
 5903.00    1.78928   1.67454   -1.000
 5904.00    1.78478   1.69157   -1.000
 5905.00    1.77716   1.70170   -1.000
 5906.00    1.77912   1.70830   -1.000
 5907.00    1.77945   1.71342   -1.000
 5908.00    1.78634   1.71804   -1.000
 5909.00    1.79554   1.72226   -1.000
 5910.00    1.79506   1.72528   -1.000
 5911.00    1.78319   1.72579   -1.000
 5912.00    1.77753   1.72216   -1.000
 5913.00    1.76029   1.71420   -1.000
 5914.00    1.73145   1.70479   66.639
 5915.00    1.72987   1.69778   66.438
 5916.00    1.74004   1.69636   -1.000
 5917.00    1.74944   1.70124   -1.000
 5918.00    1.75657   1.71041   -1.000
 5919.00    1.75744   1.72005   -1.000
 5920.00    1.76562   1.72709   -1.000
 5921.00    1.77284   1.73046   -1.000
 5922.00    1.77435   1.73123   -1.000
 5923.00    1.77982   1.73156   -1.000
 5924.00    1.78240   1.73306   -1.000
 5925.00    1.79552   1.73610   -1.000
 5926.00    1.79772   1.73898   -1.000
 5927.00    1.79231   1.73899   -1.000
 5928.00    1.77056   1.73449   -1.000
 5929.00    1.75307   1.72726   65.780
 5930.00    1.75800   1.72140   65.636
 5931.00    1.76595   1.72028   -1.000
 5932.00    1.76885   1.72330   -1.000
 5933.00    1.77497   1.72709   -1.000
 5934.00    1.76951   1.73023   -1.000
 5935.00    1.76268   1.73344   65.747
 5936.00    1.76229   1.73781   65.261
 5937.00    1.78328   1.74276   -1.000
 5938.00    1.78619   1.74567   -1.000
 5939.00    1.78459   1.74480   -1.000
 5940.00    1.76419   1.74041   65.529
 5941.00    1.73691   1.73507   65.831
 5942.00    1.75210   1.73181   65.736
 5943.00    1.76748   1.73210   65.306
 5944.00    1.77607   1.73524   -1.000
 5945.00    1.77101   1.73863   64.693
 5946.00    1.77861   1.73971   -1.000
 5947.00    1.77328   1.73733   -1.000
 5948.00    1.75511   1.73310   66.279
 5949.00    1.74527   1.72947   66.340
 5950.00    1.75285   1.72782   65.944
 5951.00    1.76067   1.72705   65.722
 5952.00    1.75122   1.72527   65.952
 5953.00    1.73837   1.72325   65.852
 5954.00    1.74775   1.72221   65.727
 5955.00    1.75594   1.72177   65.762
 5956.00    1.75475   1.72150   66.071
 5957.00    1.73702   1.72173   66.131
 5958.00    1.74540   1.72420   65.827
 5959.00    1.77635   1.73035   -1.000
 5960.00    1.78948   1.73878   -1.000
 5961.00    1.79784   1.74690   -1.000
 5962.00    1.79967   1.75253   -1.000
 5963.00    1.79982   1.75455   -1.000
 5964.00    1.79157   1.75320   -1.000
 5965.00    1.76893   1.74983   64.903
 5966.00    1.76793   1.74643   65.148
 5967.00    1.77131   1.74500   64.935
 5968.00    1.78752   1.74626   -1.000
 5969.00    1.80453   1.74982   -1.000
 5970.00    1.79791   1.75448   -1.000
 5971.00    1.79934   1.75843   -1.000
 5972.00    1.80593   1.76029   -1.000
 5973.00    1.79450   1.75882   -1.000
 5974.00    1.77968   1.75330   65.015
 5975.00    1.76389   1.74443   65.506
 5976.00    1.74131   1.73464   65.969
 5977.00    1.74523   1.72798   66.239
 5978.00    1.76007   1.72737   65.854
 5979.00    1.76662   1.73255   65.265
 5980.00    1.77382   1.73981   65.069
 5981.00    1.77367   1.74393   65.278
 5982.00    1.77281   1.74168   65.863
 5983.00    1.75926   1.73368   66.441
 5984.00    1.74378   1.72471   66.730
 5985.00    1.74425   1.71984   66.411
 5986.00    1.76865   1.72129   -1.000
 5987.00    1.78214   1.72752   -1.000
 5988.00    1.79194   1.73532   -1.000
 5989.00    1.79043   1.74214   -1.000
 5990.00    1.78974   1.74713   -1.000
 5991.00    1.80052   1.75108   -1.000
 5992.00    1.79110   1.75573   64.703
 5993.00    1.80381   1.76176   -1.000
 5994.00    1.81004   1.76675   -1.000
 5995.00    1.79849   1.76823   64.550
 5996.00    1.79610   1.76538   64.984
 5997.00    1.78551   1.76019   65.247
 5998.00    1.78445   1.75586   65.364
 5999.00    1.78920   1.75354   65.212
 6000.00    1.78744   1.75228   65.309
 6001.00    1.78380   1.75004   65.744
 6002.00    1.77885   1.74616   65.926
 6003.00    1.76967   1.74200   65.873
 6004.00    1.76938   1.73904   65.673
 6005.00    1.77167   1.73638   -1.000
 6006.00    1.76813   1.73151   -1.000
 6007.00    1.74159   1.72441   66.981
 6008.00    1.72931   1.71882   66.867
 6009.00    1.74309   1.71915   66.002
 6010.00    1.76897   1.72591   -1.000
 6011.00    1.77141   1.73416   -1.000
 6012.00    1.77185   1.73912   66.039
 6013.00    1.76888   1.73922   66.351
 6014.00    1.75455   1.73612   65.924
 6015.00    1.76035   1.73275   65.982
 6016.00    1.76180   1.73007   66.306
 6017.00    1.75167   1.72788   66.406
 6018.00    1.75646   1.72506   66.192
 6019.00    1.74720   1.72091   66.460
 6020.00    1.74167   1.71606   66.908
 6021.00    1.74369   1.71267   66.545
 6022.00    1.75327   1.71241   -1.000
 6023.00    1.74719   1.71540   65.986
 6024.00    1.75054   1.72168   65.902
 6025.00    1.76143   1.73098   65.457
 6026.00    1.77407   1.74173   65.303
 6027.00    1.77310   1.75217   64.847
 6028.00    1.78044   1.76137   64.592
 6029.00    1.78819   1.76882   64.527
 6030.00    1.78646   1.77458   64.556
 6031.00    1.78754   1.77874   64.727
 6032.00    1.79219   1.78183   64.565
 6033.00    1.80155   1.78454   64.258
 6034.00    1.79856   1.78693   64.117
 6035.00    1.79896   1.78820   64.105
 6036.00    1.80269   1.78777   63.968
 6037.00    1.80069   1.78566   64.071
 6038.00    1.79535   1.78212   64.479
 6039.00    1.78979   1.77785   64.565
 6040.00    1.78698   1.77394   64.790
 6041.00    1.77554   1.77158   64.595
 6042.00    1.78292   1.77161   64.526
 6043.00    1.79197   1.77405   64.153
 6044.00    1.79020   1.77838   63.621
 6045.00    1.80475   1.78341   63.743
 6046.00    1.80667   1.78831   63.740
 6047.00    1.80452   1.79287   63.620
 6048.00    1.80263   1.79669   63.711
 6049.00    1.80093   1.79949   63.955
 6050.00    1.80782   1.80063   64.082
 6051.00    1.80637   1.79992   64.130
 6052.00    1.80961   1.79707   64.265
 6053.00    1.79525   1.79189   64.548
 6054.00    1.77818   1.78492   64.731
 6055.00    1.77791   1.77785   65.120
 6056.00    1.78028   1.77320   65.287
 6057.00    1.78601   1.77264   65.136
 6058.00    1.77877   1.77596   64.761
 6059.00    1.78566   1.78112   64.436
 6060.00    1.79174   1.78571   64.571
 6061.00    1.79021   1.78697   64.718
 6062.00    1.77903   1.78268   65.765
 6063.00    1.73803   1.77216   67.088
 6064.00    1.72362   1.75781   64.363
 6065.00    1.68000   1.74600   -1.000
 6066.00    1.19130   1.74313   -1.000
 6067.00    0.89420   1.75055   -1.000
 6068.00    1.67107   1.76475   -1.000
 6069.00    1.81934   1.77985   -1.000
 6070.00    1.82940   1.79136   -1.000
 6071.00    1.82972   1.79840   62.056
 6072.00    1.89065   1.80196   -1.000
 6073.00    1.81194   1.80368   63.955
 6074.00    1.79864   1.80398   63.994
 6075.00    1.80140   1.80214   64.236
 6076.00    1.78790   1.79728   64.583
 6077.00    1.77431   1.78959   64.955
 6078.00    1.76663   1.78087   65.481
 6079.00    1.76559   1.77321   65.862
 6080.00    1.76193   1.76741   65.851
 6081.00    1.76922   1.76305   65.922
 6082.00    1.74718   1.75973   66.128
 6083.00    1.74405   1.75733   66.094
 6084.00    1.74183   1.75640   66.044
 6085.00    1.74162   1.75762   65.971
 6086.00    1.75296   1.76095   65.763
 6087.00    1.76451   1.76520   65.489
 6088.00    1.76184   1.76819   65.673
 6089.00    1.75360   1.76863   66.102
 6090.00    1.74546   1.76665   66.361
 6091.00    1.72391   1.76433   66.289
 6092.00    1.73379   1.76404   65.815
 6093.00    1.75427   1.76680   65.507
 6094.00    1.77198   1.77207   65.126
 6095.00    1.77833   1.77821   64.857
 6096.00    1.77431   1.78380   64.919
 6097.00    1.76797   1.78739   65.095
 6098.00    1.76821   1.78736   65.119
 6099.00    1.75954   1.78100   65.121
 6100.00    1.76251   1.76563   66.006
 6101.00    1.73535   1.74213   67.730
 6102.00    1.69437   1.71697   68.727
 6103.00    1.67661   1.70099   68.039
 6104.00    1.70818   1.70114   66.659
 6105.00    1.74825   1.71534   65.700
 6106.00    1.75582   1.73598   65.565
 6107.00    1.74910   1.75485   65.865
 6108.00    1.74219   1.76873   66.008
 6109.00    1.74729   1.77799   65.959
 6110.00    1.75361   1.78338   65.804
 6111.00    1.75458   1.78633   65.496
 6112.00    1.75918   1.78829   65.522
 6113.00    1.75634   1.79051   65.123
 6114.00    1.75597   1.79337   64.998
 6115.00    1.75677   1.79546   65.298
 6116.00    1.75352   1.79547   65.749
 6117.00    1.75366   1.79246   65.793
 6118.00    1.75133   1.78468   66.150
 6119.00    1.73970   1.77020   67.192
 6120.00    1.71349   1.74804   68.039
 6121.00    1.67639   1.72154   68.661
 6122.00    1.66083   1.69924   68.644
 6123.00    1.68631   1.68884   67.391
 6124.00    1.71774   1.69334   66.573
 6125.00    1.72646   1.70895   66.651
 6126.00    1.72259   1.72808   67.080
 6127.00    1.71609   1.74536   66.928
 6128.00    1.71710   1.75883   66.784
 6129.00    1.72259   1.76974   66.185
 6130.00    1.73586   1.77928   65.556
 6131.00    1.74550   1.78741   65.483
 6132.00    1.74282   1.79184   65.633
 6133.00    1.74331   1.78858   66.318
 6134.00    1.70970   1.77335   -1.000
 6135.00    1.66060   1.74618   -1.000
 6136.00    1.62102   1.71394   -1.000
 6137.00    1.60079   1.68910   -1.000
 6138.00    1.62271   1.68081   -1.000
 6139.00    1.66908   1.68799   67.730
 6140.00    1.69546   1.70394   67.128
 6141.00    1.69016   1.72132   67.335
 6142.00    1.67614   1.73790   -1.000
 6143.00    1.69009   1.75392   -1.000
 6144.00    1.72056   1.76768   65.848
 6145.00    1.73281   1.77714   65.838
 6146.00    1.72889   1.78095   66.181
 6147.00    1.71442   1.77967   -1.000
 6148.00    1.71033   1.77515   -1.000
 6149.00    1.70304   1.76887   -1.000
 6150.00    1.69052   1.76289   -1.000
 6151.00    1.69460   1.75946   -1.000
 6152.00    1.72263   1.75903   66.667
 6153.00    1.72212   1.75936   66.640
 6154.00    1.71318   1.75801   67.286
 6155.00    1.70310   1.75444   67.590
 6156.00    1.69839   1.74967   67.605
 6157.00    1.69663   1.74365   67.924
 6158.00    1.68135   1.73272   68.700
 6159.00    1.66626   1.71135   70.085
 6160.00    1.62431   1.67718   72.315
 6161.00    1.57461   1.63587   -1.000
 6162.00    1.53728   1.59952   -1.000
 6163.00    1.54122   1.58045   73.601
 6164.00    1.57597   1.58230   71.468
 6165.00    1.60601   1.59922   70.504
 6166.00    1.62668   1.61985   70.284
 6167.00    1.62606   1.63382   70.521
 6168.00    1.60288   1.63764   71.537
 6169.00    1.59616   1.63630   72.218
 6170.00    1.59087   1.63881   71.526
 6171.00    1.61889   1.64956   70.043
 6172.00    1.64039   1.66762   69.131
 6173.00    1.64219   1.68745   69.327
 6174.00    1.64357   1.70417   -1.000
 6175.00    1.63947   1.71597   -1.000
 6176.00    1.64482   1.72345   -1.000
 6177.00    1.65055   1.72852   -1.000
 6178.00    1.65865   1.73261   -1.000
 6179.00    1.67472   1.73680   -1.000
 6180.00    1.67952   1.74171   -1.000
 6181.00    1.67788   1.74745   -1.000
 6182.00    1.68561   1.75286   -1.000
 6183.00    1.68879   1.75584   -1.000
 6184.00    1.67872   1.75471   -1.000
 6185.00    1.66740   1.74932   -1.000
 6186.00    1.63639   1.74069   -1.000
 6187.00    1.62706   1.73020   -1.000
 6188.00    1.62740   1.71819   -1.000
 6189.00    1.61428   1.70416   -1.000
 6190.00    1.60635   1.68914   -1.000
 6191.00    1.58064   1.67776   -1.000
 6192.00    1.58795   1.67572   -1.000
 6193.00    1.60894   1.68402   -1.000
 6194.00    1.63830   1.69920   -1.000
 6195.00    1.65956   1.71526   68.329
 6196.00    1.66246   1.72733   -1.000
 6197.00    1.65798   1.73354   -1.000
 6198.00    1.64484   1.73360   -1.000
 6199.00    1.62196   1.72955   -1.000
 6200.00    1.61147   1.72554   -1.000
 6201.00    1.61988   1.72531   -1.000
 6202.00    1.62755   1.73007   -1.000
 6203.00    1.64625   1.73849   -1.000
 6204.00    1.65071   1.74760   -1.000
 6205.00    1.66175   1.75524   -1.000
 6206.00    1.67948   1.76056   -1.000
 6207.00    1.67634   1.76356   -1.000
 6208.00    1.67394   1.76396   -1.000
 6209.00    1.67821   1.76068   -1.000
 6210.00    1.66526   1.75254   -1.000
 6211.00    1.64060   1.73927   -1.000
 6212.00    1.62375   1.72251   -1.000
 6213.00    1.60345   1.70577   -1.000
 6214.00    1.59455   1.69263   -1.000
 6215.00    1.59922   1.68472   -1.000
 6216.00    1.60498   1.68101   -1.000
 6217.00    1.61303   1.67880   -1.000
 6218.00    1.61879   1.67664   -1.000
 6219.00    1.61430   1.67556   -1.000
 6220.00    1.60820   1.67745   -1.000
 6221.00    1.62081   1.68308   -1.000
 6222.00    1.63460   1.69025   -1.000
 6223.00    1.62918   1.69670   -1.000
 6224.00    1.62598   1.70093   -1.000
 6225.00    1.63181   1.70242   -1.000
 6226.00    1.64027   1.70089   -1.000
 6227.00    1.63785   1.69469   -1.000
 6228.00    1.62747   1.68265   -1.000
 6229.00    1.60241   1.66617   -1.000
 6230.00    1.57201   1.65012   -1.000
 6231.00    1.56659   1.64095   -1.000
 6232.00    1.56879   1.64252   -1.000
 6233.00    1.59541   1.65392   -1.000
 6234.00    1.61461   1.66990   70.123
 6235.00    1.62036   1.68438   -1.000
 6236.00    1.62490   1.69320   -1.000
 6237.00    1.62024   1.69535   -1.000
 6238.00    1.60526   1.69262   -1.000
 6239.00    1.59670   1.68717   -1.000
 6240.00    1.58165   1.68073   -1.000
 6241.00    1.57622   1.67359   -1.000
 6242.00    1.57574   1.66543   -1.000
 6243.00    1.57413   1.65629   -1.000
 6244.00    1.56118   1.64764   -1.000
 6245.00    1.56690   1.64230   -1.000
 6246.00    1.57910   1.64386   -1.000
 6247.00    1.59313   1.65342   -1.000
 6248.00    1.60790   1.66802   -1.000
 6249.00    1.62342   1.68104   -1.000
 6250.00    1.61924   1.68573   -1.000
 6251.00    1.59312   1.67982   -1.000
 6252.00    1.56632   1.66617   -1.000
 6253.00    1.55463   1.65124   -1.000
 6254.00    1.54652   1.64008   -1.000
 6255.00    1.54980   1.63439   -1.000
 6256.00    1.54135   1.63266   -1.000
 6257.00    1.52028   1.63309   -1.000
 6258.00    1.52019   1.63565   -1.000
 6259.00    1.54499   1.64153   -1.000
 6260.00    1.56378   1.65179   -1.000
 6261.00    1.58930   1.66556   -1.000
 6262.00    1.61195   1.68033   -1.000
 6263.00    1.61688   1.69275   -1.000
 6264.00    1.62427   1.70146   -1.000
 6265.00    1.60836   1.70730   -1.000
 6266.00    1.60716   1.71187   -1.000
 6267.00    1.61605   1.71570   -1.000
 6268.00    1.61398   1.71773   -1.000
 6269.00    1.60681   1.71763   -1.000
 6270.00    1.61050   1.71674   -1.000
 6271.00    1.62181   1.71651   -1.000
 6272.00    1.62079   1.71674   -1.000
 6273.00    1.61123   1.71456   -1.000
 6274.00    1.60446   1.70720   -1.000
 6275.00    1.57958   1.69426   -1.000
 6276.00    1.55990   1.67813   -1.000
 6277.00    1.54468   1.66283   -1.000
 6278.00    1.52008   1.65130   -1.000
 6279.00    1.51294   1.64547   -1.000
 6280.00    1.49806   1.64657   -1.000
 6281.00    1.48702   1.65462   -1.000
 6282.00    1.50263   1.66848   -1.000
 6283.00    1.51847   1.68526   -1.000
 6284.00    1.54265   1.70136   -1.000
 6285.00    1.56963   1.71419   -1.000
 6286.00    1.58908   1.72244   -1.000
 6287.00    1.61062   1.72650   -1.000
 6288.00    1.63157   1.72693   -1.000
 6289.00    1.63278   1.72455   -1.000
 6290.00    1.62778   1.72071   -1.000
 6291.00    1.62052   1.71674   -1.000
 6292.00    1.61697   1.71371   -1.000
 6293.00    1.61219   1.71162   -1.000
 6294.00    1.61157   1.70934   -1.000
 6295.00    1.60901   1.70529   -1.000
 6296.00    1.59353   1.69871   -1.000
 6297.00    1.57063   1.69078   -1.000
 6298.00    1.57035   1.68351   -1.000
 6299.00    1.57942   1.67785   -1.000
 6300.00    1.59405   1.67354   -1.000
 6301.00    1.58818   1.67113   -1.000
 6302.00    1.59006   1.67315   -1.000
 6303.00    1.60680   1.68180   -1.000
 6304.00    1.62616   1.69588   -1.000
 6305.00    1.63823   1.71147   -1.000
 6306.00    1.64264   1.72450   -1.000
 6307.00    1.64737   1.73299   -1.000
 6308.00    1.66411   1.73730   -1.000
 6309.00    1.66315   1.73892   -1.000
 6310.00    1.65041   1.73887   -1.000
 6311.00    1.64107   1.73730   -1.000
 6312.00    1.64012   1.73368   -1.000
 6313.00    1.64176   1.72731   -1.000
 6314.00    1.63137   1.71900   -1.000
 6315.00    1.62239   1.71020   -1.000
 6316.00    1.61672   1.70268   -1.000
 6317.00    1.61371   1.69820   -1.000
 6318.00    1.60097   1.69820   -1.000
 6319.00    1.61607   1.70344   -1.000
 6320.00    1.63900   1.71260   -1.000
 6321.00    1.65190   1.72298   -1.000
 6322.00    1.64928   1.73282   -1.000
 6323.00    1.65468   1.74199   -1.000
 6324.00    1.67488   1.75037   -1.000
 6325.00    1.68702   1.75731   -1.000
 6326.00    1.68565   1.76174   -1.000
 6327.00    1.68073   1.76363   -1.000
 6328.00    1.68107   1.76427   -1.000
 6329.00    1.68020   1.76484   -1.000
 6330.00    1.68883   1.76605   -1.000
 6331.00    1.69340   1.76703   -1.000
 6332.00    1.70098   1.76552   -1.000
 6333.00    1.68989   1.75923   -1.000
 6334.00    1.67262   1.74800   -1.000
 6335.00    1.70654   1.73488   71.148
 6336.00    1.65543   1.72483   -1.000
 6337.00    1.65419   1.72185   -1.000
 6338.00    1.68065   1.72660   69.749
 6339.00    1.68643   1.73697   68.974
 6340.00    1.70138   1.74896   68.683
 6341.00    1.71209   1.75847   68.340
 6342.00    1.70163   1.76305   -1.000
 6343.00    1.68647   1.76308   -1.000
 6344.00    1.69138   1.76144   -1.000
 6345.00    1.69212   1.76151   -1.000
 6346.00    1.69215   1.76529   -1.000
 6347.00    1.71010   1.77260   -1.000
 6348.00    1.71500   1.78149   -1.000
 6349.00    1.71185   1.78929   -1.000
 6350.00    1.71713   1.79395   -1.000
 6351.00    1.71601   1.79444   -1.000
 6352.00    1.70287   1.79071   -1.000
 6353.00    1.69543   1.78354   -1.000
 6354.00    1.67861   1.77449   -1.000
 6355.00    1.66738   1.76561   -1.000
 6356.00    1.66630   1.75796   -1.000
 6357.00    1.66002   1.75122   -1.000
 6358.00    1.64400   1.74503   -1.000
 6359.00    1.62983   1.73927   -1.000
 6360.00    1.63111   1.73412   -1.000
 6361.00    1.64651   1.72983   -1.000
 6362.00    1.64209   1.72706   -1.000
 6363.00    1.64641   1.72680   -1.000
 6364.00    1.65464   1.72968   -1.000
 6365.00    1.66544   1.73540   -1.000
 6366.00    1.67934   1.74288   -1.000
 6367.00    1.69062   1.75061   -1.000
 6368.00    1.70217   1.75705   68.061
 6369.00    1.70644   1.76165   67.912
 6370.00    1.70700   1.76513   67.980
 6371.00    1.71927   1.76881   67.721
 6372.00    1.72769   1.77313   67.452
 6373.00    1.72158   1.77723   67.674
 6374.00    1.71610   1.77962   -1.000
 6375.00    1.71915   1.77936   67.867
 6376.00    1.71528   1.77655   -1.000
 6377.00    1.71071   1.77206   -1.000
 6378.00    1.69371   1.76672   -1.000
 6379.00    1.67548   1.76085   -1.000
 6380.00    1.67842   1.75476   -1.000
 6381.00    1.68657   1.74913   -1.000
 6382.00    1.68378   1.74511   -1.000
 6383.00    1.67965   1.74367   -1.000
 6384.00    1.67466   1.74510   -1.000
 6385.00    1.66638   1.74863   -1.000
 6386.00    1.66255   1.75255   -1.000
 6387.00    1.66299   1.75521   -1.000
 6388.00    1.66180   1.75583   -1.000
 6389.00    1.65402   1.75417   -1.000
 6390.00    1.64287   1.74992   -1.000
 6391.00    1.62814   1.74290   -1.000
 6392.00    1.60452   1.73475   -1.000
 6393.00    1.58160   1.72897   -1.000
 6394.00    1.57924   1.72874   -1.000
 6395.00    1.59609   1.73400   -1.000
 6396.00    1.61062   1.74057   -1.000
 6397.00    1.60307   1.74303   -1.000
 6398.00    1.57795   1.73869   -1.000
 6399.00    1.54928   1.73048   -1.000
 6400.00    1.53570   1.72489   -1.000
 6401.00    1.53307   1.72710   -1.000
 6402.00    1.55312   1.73763   -1.000
 6403.00    1.58069   1.75202   -1.000
 6404.00    1.57786   1.76425   -1.000
 6405.00    1.56423   1.76994   -1.000
 6406.00    1.55693   1.76883   -1.000
 6407.00    1.53786   1.76406   -1.000
 6408.00    1.51315   1.75945   -1.000
 6409.00    1.50992   1.75650   -1.000
 6410.00    1.50845   1.75462   -1.000
 6411.00    1.49875   1.75366   -1.000
 6412.00    1.47804   1.75438   -1.000
 6413.00    1.46102   1.75731   -1.000
 6414.00    1.46267   1.76156   -1.000
 6415.00    1.45521   1.76528   -1.000
 6416.00    1.44644   1.76692   -1.000
 6417.00    1.43503   1.76528   -1.000
 6418.00    1.41941   1.75973   -1.000
 6419.00    1.39449   1.75139   -1.000
 6420.00    1.36102   1.74360   -1.000
 6421.00    1.35002   1.74089   -1.000
 6422.00    1.35201   1.74605   -1.000
 6423.00    1.35684   1.75756   -1.000
 6424.00    1.36752   1.77146   -1.000
 6425.00    1.35429   1.78360   -1.000
 6426.00    1.33915   1.79103   -1.000
 6427.00    1.33352   1.79200   -1.000
 6428.00    1.31473   1.78576   -1.000
