###################################################################
## OUTPUT of StarlightChains_v04.for    [Cid@UFSC - 01/Apr/2007] ##
###################################################################

## Some input info
NGC6304_a_1.cxt                          [arq_obs]
Base.BC03.N                              [arq_base]
NGC6304_a_1.msk                          [arq_masks]
StCv04.C99.config                        [arq_config]
   45                                    [N_base]
    0                                    [N_YAV_components = # of components with extra extinction!]
    0                                    [i_FitPowerLaw (1/0 = Yes/No)]
-9.99                                    [alpha_PowerLaw]
CCM                                      [red_law_option]
 1.458241                                [q_norm = A(l_norm)/A(V)]

## (Re)Sampling Parameters
 3359.00                                 [l_ini (A)]
 6428.00                                 [l_fin (A)]
    1.00                                 [dl    (A)]     (OBS: dl_cushion =    50.00 A)

## Normalization info
 4020.00                                 [l_norm (A) - for base]
 4010.00                                 [llow_norm (A) - window for f_obs]
 4060.00                                 [lupp_norm (A) - window for f_obs]
6.037552E-15                             [fobs_norm (in input units)]

## S/N
 4730.00                                 [llow_SN (A) - window for S/N]
 4780.00                                 [lupp_SN (A) - window for S/N]
  34.026                                 [S/N in S/N window]
  19.978                                 [S/N in norm. window]
 118.990                                 [S/N_err in S/N window]
  69.864                                 [S/N_err in norm. window]
  1.0000                                 [fscale_chi2]

## etc...
  2147483619                             [idum_orig]
  3066                                   [NOl_eff]
  1236                                   [Nl_eff]
  1830    NSIGMA                         [Ntot_cliped & clip_method]
  1812720                                [Nglobal_steps]
   7                                     [N_chains]
  10                                     [NEX0s_base = N_base in EX0s-fits]
 0   0   1      178   2.0   5.094E+02    [Clip-Bug, RC-Crash & Burn-In warning-flags, n_censored_weights, wei_nsig_threshold & wei_limit]
    24     23.908     23.904      0.004  [idt_all, wdt_TotTime, wdt_UsrTime & wdt_SysTime (sec)]

## Synthesis Results - Best model ##

 2.50240E+00                             [chi2/Nl_eff]
     2.28292                             [adev (%)]

    99.87037                             [sum-of-x (%)]
 3.35695E-14                             [Flux_tot (units of input spectrum!)]
 1.74724E-09                             [Mini_tot (???)]
 8.97397E-10                             [Mcor_tot (???)]

  11.39                                  [v0_min  (km/s)]
  47.86                                  [vd_min  (km/s)]
 1.2783                                  [AV_min  (mag)]
 0.0000                                  [YAV_min (mag)]

# j     x_j(%)      Mini_j(%)     Mcor_j(%)     age_j(yr)     Z_j      (L/M)_j    YAV?  Mstars   component_j        a/Fe...       SSP_chi2r SSP_adev(%)   SSP_AV   SSP_x(%)
  1      5.1193     8.8406E-03    1.7213E-02    1.000000E+06  0.00400  1.114E-02    0   1.0000   age020_m42            0.0000     2.0231E+03    35.6196   4.0000    88.0986
  2      5.0945     2.4063E-03    4.6846E-03    3.160000E+06  0.00400  4.073E-02    0   0.9999   age045_m42            0.0000     5.7915E+02    13.7847   4.0000    97.1899
  3      1.5863     1.2043E-03    2.2248E-03    5.010000E+06  0.00400  2.534E-02    0   0.9488   age055_m42            0.0000     1.0601E+03    23.0804   4.0000    94.1181
  4      5.9638     9.0268E-03    1.5575E-02    1.000000E+07  0.00400  1.271E-02    0   0.8862   age070_m42            0.0000     4.7381E+02     9.4729   4.0000    92.7143
  5      0.0000     0.0000E+00    0.0000E+00    2.512000E+07  0.00400  5.070E-03    0   0.8174   age090_m42            0.0000     4.0283E+02     9.3386   4.0000    92.9560
  6      0.0000     0.0000E+00    0.0000E+00    4.000000E+07  0.00400  3.505E-03    0   0.7851   age104_m42            0.0000     3.4382E+02     9.3531   3.8182    93.6248
  7      0.0000     0.0000E+00    0.0000E+00    1.015200E+08  0.00400  2.268E-03    0   0.7207   age116_m42            0.0000     7.7984E+02     8.1252   3.6861   100.5493
  8      0.0000     0.0000E+00    0.0000E+00    2.861200E+08  0.00400  1.079E-03    0   0.6613   age125_m42            0.0000     7.9152E+02     8.5892   3.1314   102.6908
  9      0.0000     0.0000E+00    0.0000E+00    6.405400E+08  0.00400  5.077E-04    0   0.6197   age132_m42            0.0000     8.0454E+02     8.5415   2.7895   106.6549
 10      0.0000     0.0000E+00    0.0000E+00    9.047900E+08  0.00400  3.535E-04    0   0.6024   age135_m42            0.0000     5.9872E+02     7.4837   2.5433   106.4009
 11      0.0000     0.0000E+00    0.0000E+00    1.434000E+09  0.00400  1.910E-04    0   0.5716   age139_m42            0.0000     3.2828E+02     6.3848   1.9408   105.9875
 12      0.0000     0.0000E+00    0.0000E+00    2.500000E+09  0.00400  9.818E-05    0   0.5463   age150_m42            0.0000     1.2346E+02     4.6812   1.6489   102.2697
 13      2.7862     1.1361E+00    1.1564E+00    5.000000E+09  0.00400  4.718E-05    0   0.5228   age161_m42            0.0000     5.3251E+01     3.7228   1.4798    99.4571
 14      8.4585     7.3797E+00    7.1554E+00    1.100000E+10  0.00400  2.205E-05    0   0.4980   age185_m42            0.0000     3.3972E+01     4.6131   1.1492    97.8913
 15      0.0000     0.0000E+00    0.0000E+00    1.300000E+10  0.00400  1.883E-05    0   0.4927   age193_m42            0.0000     3.4509E+01     4.7730   1.1250    97.8249
 16      1.9364     1.8729E-03    3.6466E-03    1.000000E+06  0.02000  1.989E-02    0   1.0000   age020_m62            0.0000     1.9628E+03    34.6972   4.0000    88.8073
 17      0.0000     0.0000E+00    0.0000E+00    3.160000E+06  0.02000  3.772E-02    0   0.9858   age045_m62            0.0000     1.7415E+03    31.7697   4.0000    90.8009
 18      0.0000     0.0000E+00    0.0000E+00    5.010000E+06  0.02000  3.227E-02    0   0.9342   age055_m62            0.0000     8.9522E+02    19.4656   4.0000    96.0992
 19      0.0000     0.0000E+00    0.0000E+00    1.000000E+07  0.02000  1.011E-02    0   0.8751   age070_m62            0.0000     6.2814E+02    12.6315   4.0000    90.7713
 20      0.0000     0.0000E+00    0.0000E+00    2.512000E+07  0.02000  4.206E-03    0   0.8099   age090_m62            0.0000     5.0805E+02    10.7202   4.0000    90.6566
 21      0.0000     0.0000E+00    0.0000E+00    4.000000E+07  0.02000  3.373E-03    0   0.7799   age104_m62            0.0000     4.4725E+02     9.0303   4.0000    94.9722
 22      0.0000     0.0000E+00    0.0000E+00    1.015200E+08  0.02000  1.878E-03    0   0.7221   age116_m62            0.0000     7.6429E+02     8.0742   3.7451   101.0119
 23      0.0000     0.0000E+00    0.0000E+00    2.861200E+08  0.02000  8.869E-04    0   0.6700   age125_m62            0.0000     1.1045E+03     9.9313   3.1332   107.0062
 24      0.0000     0.0000E+00    0.0000E+00    6.405400E+08  0.02000  3.657E-04    0   0.6322   age132_m62            0.0000     7.6268E+02    10.2222   2.3474   111.2594
 25      0.0000     0.0000E+00    0.0000E+00    9.047900E+08  0.02000  2.312E-04    0   0.6152   age135_m62            0.0000     4.7112E+02     8.7345   1.9623   110.9769
 26      0.0000     0.0000E+00    0.0000E+00    1.434000E+09  0.02000  1.168E-04    0   0.5865   age139_m62            0.0000     1.6574E+02     6.0790   1.5420   106.2891
 27      0.0000     0.0000E+00    0.0000E+00    2.500000E+09  0.02000  5.505E-05    0   0.5610   age150_m62            0.0000     5.9802E+01     5.6593   1.1332   104.2547
 28     29.0463     2.1525E+01    2.2434E+01    5.000000E+09  0.02000  2.596E-05    0   0.5353   age161_m62            0.0000     6.2589E+01     7.6547   0.7083   105.0065
 29     27.1864     4.4740E+01    4.4451E+01    1.100000E+10  0.02000  1.169E-05    0   0.5103   age185_m62            0.0000     1.2459E+02    10.5483   0.2287   107.3612
 30     12.6926     2.5196E+01    2.4759E+01    1.300000E+10  0.02000  9.691E-06    0   0.5047   age193_m62            0.0000     1.4038E+02    11.0993   0.1612   107.7665
 31      0.0000     0.0000E+00    0.0000E+00    1.000000E+06  0.05000  2.651E-02    0   0.9998   age020_m72            0.0000     1.9378E+03    34.2941   4.0000    89.7665
 32      0.0000     0.0000E+00    0.0000E+00    3.160000E+06  0.05000  4.817E-02    0   0.9577   age045_m72            0.0000     1.4343E+03    27.8264   4.0000    93.8888
 33      0.0000     0.0000E+00    0.0000E+00    5.010000E+06  0.05000  3.101E-02    0   0.9147   age055_m72            0.0000     1.0005E+03    20.0478   4.0000    95.1003
 34      0.0000     0.0000E+00    0.0000E+00    1.000000E+07  0.05000  8.954E-03    0   0.8524   age070_m72            0.0000     1.2333E+03    24.7870   4.0000    94.7352
 35      0.0000     0.0000E+00    0.0000E+00    2.512000E+07  0.05000  4.207E-03    0   0.7902   age090_m72            0.0000     6.7934E+02    14.8035   4.0000    97.4264
 36      0.0000     0.0000E+00    0.0000E+00    4.000000E+07  0.05000  3.198E-03    0   0.7618   age104_m72            0.0000     6.0705E+02     7.3817   4.0000    98.9717
 37      0.0000     0.0000E+00    0.0000E+00    1.015200E+08  0.05000  1.716E-03    0   0.7092   age116_m72            0.0000     8.4088E+02     8.2666   3.8123   101.0215
 38      0.0000     0.0000E+00    0.0000E+00    2.861200E+08  0.05000  7.047E-04    0   0.6618   age125_m72            0.0000     1.0292E+03    10.2830   2.8750   107.8421
 39      0.0000     0.0000E+00    0.0000E+00    6.405400E+08  0.05000  2.633E-04    0   0.6253   age132_m72            0.0000     5.6051E+02    10.1438   1.9171   111.2893
 40      0.0000     0.0000E+00    0.0000E+00    9.047900E+08  0.05000  1.484E-04    0   0.6088   age135_m72            0.0000     2.2194E+02     8.2651   1.4045   107.2446
 41      0.0000     0.0000E+00    0.0000E+00    1.434000E+09  0.05000  7.827E-05    0   0.5847   age139_m72            0.0000     9.0440E+01     7.6079   0.9688   104.8093
 42      0.0000     0.0000E+00    0.0000E+00    2.500000E+09  0.05000  3.759E-05    0   0.5583   age150_m72            0.0000     7.7729E+01     8.3945   0.6069   104.6557
 43      0.0000     0.0000E+00    0.0000E+00    5.000000E+09  0.05000  1.548E-05    0   0.5320   age161_m72            0.0000     1.3204E+02    11.1349   0.0845   104.9666
 44      0.0000     0.0000E+00    0.0000E+00    1.100000E+10  0.05000  6.532E-06    0   0.5070   age185_m72            0.0000     2.3657E+02    15.4675  -0.5058   106.5854
 45      0.0000     0.0000E+00    0.0000E+00    1.300000E+10  0.05000  5.316E-06    0   0.5018   age193_m72            0.0000     2.8682E+02    17.1972  -0.7129   107.5179


## Synthesis Results - Average & Chains ##

# j      x_j: min, <> & last-chain-values for 1 ...  7 chains
  1      5.1193      4.8594      4.8289      4.7653      4.9265      4.7967      4.8446      4.9343      5.0181
  2      5.0945      3.6771      3.9065      3.8044      3.7777      3.6547      4.1470      3.9581      3.7495
  3      1.5863      1.2507      1.1796      1.2105      1.5082      1.5332      1.4193      1.1637      1.4696
  4      5.9638      7.9411      8.0813      7.9244      7.8052      7.9139      7.7101      7.8506      7.9211
  5      0.0000      0.0232      0.0000      0.0000      0.0000      0.0000      0.0000      0.0000      0.0000
  6      0.0000      0.0181      0.0000      0.0000      0.0000      0.0000      0.0000      0.0000      0.0000
  7      0.0000      0.0091      0.0000      0.0000      0.0041      0.0000      0.0000      0.0000      0.0000
  8      0.0000      0.0121      0.0000      0.0000      0.0000      0.0000      0.0000      0.0153      0.0000
  9      0.0000      0.0247      0.0149      0.0000      0.0000      0.1277      0.0000      0.0000      0.0000
 10      0.0000      0.0482      0.0000      0.1226      0.2219      0.0000      0.2932      0.0000      0.1396
 11      0.0000      0.0645      0.0000      0.0000      0.0000      0.0000      0.0104      0.0828      0.0000
 12      0.0000      0.2500      0.4381      0.1778      0.8032      0.1233      0.1764      0.2054      0.4054
 13      2.7862      1.2760      1.6818      2.0620      1.0342      2.1524      1.0801      1.7920      1.3373
 14      8.4585      8.9315      8.3227      8.9882      8.9177      8.8783      9.5408      7.9039      8.1840
 15      0.0000      0.5070      1.1834      0.2153      0.5962      0.0735      0.0000      0.7719      0.8561
 16      1.9364      1.7585      1.8862      1.8527      1.7711      1.7013      1.8565      1.8081      1.7264
 17      0.0000      0.0954      0.0979      0.0000      0.0000      0.0621      0.0195      0.0758      0.0000
 18      0.0000      0.0256      0.0000      0.0000      0.0000      0.0000      0.0246      0.0000      0.0000
 19      0.0000      0.0388      0.0000      0.0000      0.0063      0.0000      0.0000      0.0000      0.0000
 20      0.0000      0.0152      0.0000      0.0000      0.0000      0.0000      0.0000      0.0000      0.0000
 21      0.0000      0.0158      0.0000      0.0000      0.0000      0.0000      0.0000      0.0000      0.0000
 22      0.0000      0.0074      0.0000      0.0000      0.0000      0.0000      0.0000      0.0000      0.0000
 23      0.0000      0.0081      0.0000      0.0000      0.0000      0.0000      0.0000      0.0000      0.0000
 24      0.0000      0.0134      0.0000      0.0000      0.0000      0.0000      0.0000      0.0000      0.0000
 25      0.0000      0.0232      0.0000      0.0258      0.0000      0.0000      0.0000      0.0000      0.0000
 26      0.0000      0.0425      0.0000      0.0000      0.0000      0.0000      0.0000      0.0000      0.1232
 27      0.0000      0.1369      0.0000      0.0000      0.0000      0.0000      0.0000      0.0000      0.1244
 28     29.0463     26.9540     26.7556     27.2931     26.8521     27.2807     27.0309     27.9909     27.8886
 29     27.1864     27.6985     27.8377     27.6476     28.0290     28.1581     27.7914     27.9181     27.5433
 30     12.6926     13.6336     13.5710     13.3501     13.3890     13.1358     13.7625     13.1350     13.4154
 31      0.0000      0.0679      0.0183      0.2387      0.0554      0.0000      0.0000      0.0645      0.0000
 32      0.0000      0.0610      0.0000      0.0000      0.1152      0.1399      0.0000      0.0679      0.0000
 33      0.0000      0.0316      0.0000      0.0000      0.0000      0.0000      0.0000      0.1245      0.0000
 34      0.0000      0.0435      0.0000      0.0396      0.0000      0.1350      0.0613      0.0000      0.0000
 35      0.0000      0.0132      0.0000      0.0000      0.0000      0.0015      0.0000      0.0000      0.0000
 36      0.0000      0.0093      0.0000      0.0000      0.0000      0.0051      0.0000      0.0000      0.0000
 37      0.0000      0.0094      0.0000      0.0000      0.0000      0.0000      0.0000      0.0000      0.0000
 38      0.0000      0.0060      0.0000      0.0000      0.0000      0.0000      0.0000      0.0000      0.0000
 39      0.0000      0.0144      0.0038      0.0000      0.0000      0.0000      0.0000      0.0000      0.0000
 40      0.0000      0.0347      0.0000      0.0000      0.0000      0.0000      0.1263      0.0000      0.0000
 41      0.0000      0.0615      0.0000      0.0000      0.0000      0.0000      0.0000      0.0000      0.0000
 42      0.0000      0.1330      0.0215      0.0000      0.0594      0.0195      0.0000      0.0000      0.0000
 43      0.0000      0.0412      0.0000      0.1439      0.0000      0.0000      0.0000      0.0000      0.0124
 44      0.0000      0.0061      0.0000      0.0019      0.0000      0.0000      0.0000      0.0000      0.0000
 45      0.0000      0.0044      0.0000      0.0000      0.0000      0.0000      0.0000      0.0000      0.0000

# j      m_j: min, <> & last-chain-values for 1 ...  7 chains
  1  1.7213E-02  1.6075E-02  1.5965E-02  1.5820E-02  1.6319E-02  1.5921E-02  1.6000E-02  1.6398E-02  1.6658E-02
  2  4.6846E-03  3.3265E-03  3.5320E-03  3.4540E-03  3.4222E-03  3.3175E-03  3.7456E-03  3.5973E-03  3.4039E-03
  3  2.2248E-03  1.7257E-03  1.6267E-03  1.6762E-03  2.0838E-03  2.1226E-03  1.9551E-03  1.6131E-03  2.0349E-03
  4  1.5575E-02  2.0404E-02  2.0752E-02  2.0434E-02  2.0082E-02  2.0403E-02  1.9779E-02  2.0265E-02  2.0424E-02
  5  0.0000E+00  1.3776E-04  0.0000E+00  0.0000E+00  0.0000E+00  0.0000E+00  0.0000E+00  0.0000E+00  0.0000E+00
  6  0.0000E+00  1.4948E-04  0.0000E+00  0.0000E+00  0.0000E+00  0.0000E+00  0.0000E+00  0.0000E+00  0.0000E+00
  7  0.0000E+00  1.0679E-04  0.0000E+00  0.0000E+00  4.7914E-05  0.0000E+00  0.0000E+00  0.0000E+00  0.0000E+00
  8  0.0000E+00  2.7268E-04  0.0000E+00  0.0000E+00  0.0000E+00  0.0000E+00  0.0000E+00  3.4698E-04  0.0000E+00
  9  0.0000E+00  1.1131E-03  6.6885E-04  0.0000E+00  0.0000E+00  5.7634E-03  0.0000E+00  0.0000E+00  0.0000E+00
 10  0.0000E+00  3.0264E-03  0.0000E+00  7.7240E-03  1.3953E-02  0.0000E+00  1.8385E-02  0.0000E+00  8.7952E-03
 11  0.0000E+00  7.1080E-03  0.0000E+00  0.0000E+00  0.0000E+00  0.0000E+00  1.1487E-03  9.1721E-03  0.0000E+00
 12  0.0000E+00  5.1261E-02  8.9772E-02  3.6578E-02  1.6492E-01  2.5361E-02  3.6123E-02  4.2317E-02  8.3421E-02
 13  1.1564E+00  5.2105E-01  6.8635E-01  8.4500E-01  4.2286E-01  8.8189E-01  4.4034E-01  7.3515E-01  5.4798E-01
 14  7.1554E+00  7.4335E+00  6.9227E+00  7.5073E+00  7.4321E+00  7.4143E+00  7.9279E+00  6.6087E+00  6.8353E+00
 15  0.0000E+00  4.8885E-01  1.1404E+00  2.0836E-01  5.7565E-01  7.1130E-02  0.0000E+00  7.4776E-01  8.2839E-01
 16  3.6466E-03  3.2581E-03  3.4926E-03  3.4448E-03  3.2858E-03  3.1627E-03  3.4341E-03  3.3655E-03  3.2097E-03
 17  0.0000E+00  9.1894E-05  9.4249E-05  0.0000E+00  0.0000E+00  6.0051E-05  1.8738E-05  7.3313E-05  0.0000E+00
 18  0.0000E+00  2.7306E-05  0.0000E+00  0.0000E+00  0.0000E+00  0.0000E+00  2.6215E-05  0.0000E+00  0.0000E+00
 19  0.0000E+00  1.2365E-04  0.0000E+00  0.0000E+00  2.0060E-05  0.0000E+00  0.0000E+00  0.0000E+00  0.0000E+00
 20  0.0000E+00  1.0816E-04  0.0000E+00  0.0000E+00  0.0000E+00  0.0000E+00  0.0000E+00  0.0000E+00  0.0000E+00
 21  0.0000E+00  1.3463E-04  0.0000E+00  0.0000E+00  0.0000E+00  0.0000E+00  0.0000E+00  0.0000E+00  0.0000E+00
 22  0.0000E+00  1.0439E-04  0.0000E+00  0.0000E+00  0.0000E+00  0.0000E+00  0.0000E+00  0.0000E+00  0.0000E+00
 23  0.0000E+00  2.2636E-04  0.0000E+00  0.0000E+00  0.0000E+00  0.0000E+00  0.0000E+00  0.0000E+00  0.0000E+00
 24  0.0000E+00  8.5144E-04  0.0000E+00  0.0000E+00  0.0000E+00  0.0000E+00  0.0000E+00  0.0000E+00  0.0000E+00
 25  0.0000E+00  2.2701E-03  0.0000E+00  2.5436E-03  0.0000E+00  0.0000E+00  0.0000E+00  0.0000E+00  0.0000E+00
 26  0.0000E+00  7.8633E-03  0.0000E+00  0.0000E+00  0.0000E+00  0.0000E+00  0.0000E+00  0.0000E+00  2.2886E-02
 27  0.0000E+00  5.1415E-02  0.0000E+00  0.0000E+00  0.0000E+00  0.0000E+00  0.0000E+00  0.0000E+00  4.6879E-02
 28  2.2434E+01  2.0482E+01  2.0319E+01  2.0813E+01  2.0432E+01  2.0800E+01  2.0507E+01  2.1368E+01  2.1266E+01
 29  4.4451E+01  4.4557E+01  4.4754E+01  4.4633E+01  4.5150E+01  4.5450E+01  4.4635E+01  4.5118E+01  4.4462E+01
 30  2.4759E+01  2.6165E+01  2.6030E+01  2.5712E+01  2.5731E+01  2.5295E+01  2.6370E+01  2.5325E+01  2.5836E+01
 31  0.0000E+00  9.4310E-05  2.5407E-05  3.3296E-04  7.7125E-05  0.0000E+00  0.0000E+00  8.9992E-05  0.0000E+00
 32  0.0000E+00  4.4685E-05  0.0000E+00  0.0000E+00  8.4489E-05  1.0287E-04  0.0000E+00  4.9997E-05  0.0000E+00
 33  0.0000E+00  3.4302E-05  0.0000E+00  0.0000E+00  0.0000E+00  0.0000E+00  0.0000E+00  1.3593E-04  0.0000E+00
 34  0.0000E+00  1.5270E-04  0.0000E+00  1.3925E-04  0.0000E+00  4.7509E-04  2.1476E-04  0.0000E+00  0.0000E+00
 35  0.0000E+00  9.1542E-05  0.0000E+00  0.0000E+00  0.0000E+00  1.0519E-05  0.0000E+00  0.0000E+00  0.0000E+00
 36  0.0000E+00  8.1708E-05  0.0000E+00  0.0000E+00  0.0000E+00  4.4666E-05  0.0000E+00  0.0000E+00  0.0000E+00
 37  0.0000E+00  1.4347E-04  0.0000E+00  0.0000E+00  0.0000E+00  0.0000E+00  0.0000E+00  0.0000E+00  0.0000E+00
 38  0.0000E+00  2.0808E-04  0.0000E+00  0.0000E+00  0.0000E+00  0.0000E+00  0.0000E+00  0.0000E+00  0.0000E+00
 39  0.0000E+00  1.2610E-03  3.3520E-04  0.0000E+00  0.0000E+00  0.0000E+00  0.0000E+00  0.0000E+00  0.0000E+00
 40  0.0000E+00  5.2422E-03  0.0000E+00  0.0000E+00  0.0000E+00  0.0000E+00  1.9057E-02  0.0000E+00  0.0000E+00
 41  0.0000E+00  1.6931E-02  0.0000E+00  0.0000E+00  0.0000E+00  0.0000E+00  0.0000E+00  0.0000E+00  0.0000E+00
 42  0.0000E+00  7.2773E-02  1.1740E-02  0.0000E+00  3.2546E-02  1.0696E-02  0.0000E+00  0.0000E+00  0.0000E+00
 43  0.0000E+00  5.2161E-02  0.0000E+00  1.8293E-01  0.0000E+00  0.0000E+00  0.0000E+00  0.0000E+00  1.5745E-02
 44  0.0000E+00  1.7509E-02  0.0000E+00  5.3329E-03  0.0000E+00  0.0000E+00  0.0000E+00  0.0000E+00  0.0000E+00
 45  0.0000E+00  1.5273E-02  0.0000E+00  0.0000E+00  0.0000E+00  0.0000E+00  0.0000E+00  0.0000E+00  0.0000E+00

# AV, chi2 & Mass for <> & i_chain = 1 ...  7 solutions
AV       1.2783      1.2721      1.2753      1.2727      1.2771      1.2745      1.2749      1.2759      1.2719
chi2 2.5024E+00  2.5247E+00  2.5196E+00  2.5183E+00  2.5185E+00  2.5184E+00  2.5178E+00  2.5176E+00  2.5186E+00
Mass 8.9740E-10  9.0452E-10  9.0896E-10  9.0206E-10  9.0939E-10  9.0444E-10  9.0944E-10  9.0493E-10  9.0116E-10
  11.37                                  [v0_min (km/s) before EX0s...]
  48.34                                  [vd_min (km/s) before EX0s...]


## Synthetic spectrum (Best Model) ##l_obs f_obs f_syn wei
 3070    [Nl_obs]
 3359.00    0.00000   0.43597   -2.000
 3360.00    0.00000   0.40827   -2.000
 3361.00    0.11146   0.40756   -1.000
 3362.00    0.24548   0.43412   -1.000
 3363.00    0.26030   0.47158   -1.000
 3364.00    0.28348   0.49891   -1.000
 3365.00    0.30812   0.50212   -1.000
 3366.00    0.29914   0.48170   -1.000
 3367.00    0.27284   0.45575   -1.000
 3368.00    0.25068   0.43380   -1.000
 3369.00    0.25452   0.42128   -1.000
 3370.00    0.26359   0.41653   -1.000
 3371.00    0.25439   0.41502   -1.000
 3372.00    0.24785   0.41975   -1.000
 3373.00    0.25042   0.43694   -1.000
 3374.00    0.27259   0.46462   -1.000
 3375.00    0.29779   0.49536   -1.000
 3376.00    0.30768   0.51572   -1.000
 3377.00    0.32791   0.51353   -1.000
 3378.00    0.35324   0.49045   -1.000
 3379.00    0.35345   0.46446   -1.000
 3380.00    0.32818   0.45141   -1.000
 3381.00    0.31826   0.45840   -1.000
 3382.00    0.32149   0.47544   -1.000
 3383.00    0.31359   0.49265   -1.000
 3384.00    0.31172   0.50516   -1.000
 3385.00    0.30912   0.51613   -1.000
 3386.00    0.31942   0.52284   -1.000
 3387.00    0.34197   0.52297   -1.000
 3388.00    0.35331   0.51997   -1.000
 3389.00    0.36959   0.51673   -1.000
 3390.00    0.36658   0.50973   -1.000
 3391.00    0.35933   0.49526   -1.000
 3392.00    0.36017   0.47958   -1.000
 3393.00    0.35575   0.47510   -1.000
 3394.00    0.37049   0.48605   -1.000
 3395.00    0.37382   0.50834   -1.000
 3396.00    0.37491   0.52891   -1.000
 3397.00    0.41248   0.54529   -1.000
 3398.00    0.44715   0.55766   -1.000
 3399.00    0.45640   0.56261   -1.000
 3400.00    0.46654   0.55984   -1.000
 3401.00    0.45553   0.55079   -1.000
 3402.00    0.42909   0.53587   -1.000
 3403.00    0.42083   0.52114   -1.000
 3404.00    0.42647   0.51119   -1.000
 3405.00    0.43072   0.50452   -1.000
 3406.00    0.40968   0.49759   -1.000
 3407.00    0.38940   0.49119   -1.000
 3408.00    0.38597   0.49049   -1.000
 3409.00    0.39738   0.49617   -1.000
 3410.00    0.40707   0.50499   -1.000
 3411.00    0.39915   0.50542   -1.000
 3412.00    0.40674   0.49232   -1.000
 3413.00    0.40999   0.47446   -1.000
 3414.00    0.40743   0.46265   -1.000
 3415.00    0.40683   0.46714   -1.000
 3416.00    0.39692   0.48455   -1.000
 3417.00    0.41079   0.50944   -1.000
 3418.00    0.44406   0.53255   -1.000
 3419.00    0.46476   0.55069   -1.000
 3420.00    0.49117   0.55739   -1.000
 3421.00    0.49696   0.54963   -1.000
 3422.00    0.47142   0.53108   -1.000
 3423.00    0.44539   0.51763   -1.000
 3424.00    0.44892   0.51393   -1.000
 3425.00    0.47094   0.51623   64.307
 3426.00    0.47563   0.52101   64.231
 3427.00    0.47668   0.52984   -1.000
 3428.00    0.47245   0.54669   -1.000
 3429.00    0.47245   0.56648   -1.000
 3430.00    0.49012   0.57014   -1.000
 3431.00    0.49830   0.55483   -1.000
 3432.00    0.47768   0.53141   -1.000
 3433.00    0.46945   0.51842   -1.000
 3434.00    0.48787   0.52325   -1.000
 3435.00    0.49013   0.53217   61.274
 3436.00    0.47843   0.53279   -1.000
 3437.00    0.47116   0.52015   -1.000
 3438.00    0.45353   0.49575   -1.000
 3439.00    0.42298   0.46166   62.262
 3440.00    0.40407   0.42884   65.560
 3441.00    0.38203   0.40529   70.065
 3442.00    0.38173   0.40083   74.462
 3443.00    0.39558   0.41295   76.164
 3444.00    0.39738   0.43169   76.070
 3445.00    0.41411   0.44893   74.520
 3446.00    0.43222   0.46672   71.029
 3447.00    0.43538   0.48629   -1.000
 3448.00    0.44855   0.50995   -1.000
 3449.00    0.48101   0.53131   -1.000
 3450.00    0.51142   0.53681   -1.000
 3451.00    0.52291   0.52392  509.366
 3452.00    0.51079   0.50818  509.366
 3453.00    0.49174   0.50292   -1.000
 3454.00    0.48470   0.51172   -1.000
 3455.00    0.50044   0.52106   -1.000
 3456.00    0.50818   0.51783   -1.000
 3457.00    0.49257   0.50220   -1.000
 3458.00    0.47009   0.47932   -1.000
 3459.00    0.47167   0.46215   -1.000
 3460.00    0.47071   0.45311  124.882
 3461.00    0.44549   0.45562   61.560
 3462.00    0.46666   0.47228   61.855
 3463.00    0.50710   0.49619  100.172
 3464.00    0.52268   0.50642   -1.000
 3465.00    0.53742   0.50420   -1.000
 3466.00    0.52353   0.50177   -1.000
 3467.00    0.49283   0.50703   -1.000
 3468.00    0.50527   0.52084   -1.000
 3469.00    0.55280   0.53429   -1.000
 3470.00    0.57043   0.54041   -1.000
 3471.00    0.54969   0.53320   -1.000
 3472.00    0.53241   0.51423   -1.000
 3473.00    0.53402   0.48683   -1.000
 3474.00    0.52471   0.46001   -1.000
 3475.00    0.47815   0.44129   -1.000
 3476.00    0.44726   0.44193  127.425
 3477.00    0.47218   0.45977   62.684
 3478.00    0.49826   0.48397   63.437
 3479.00    0.50903   0.50255  100.425
 3480.00    0.51242   0.51099  509.366
 3481.00    0.51245   0.50900  509.366
 3482.00    0.52249   0.49887   -1.000
 3483.00    0.52607   0.48816   -1.000
 3484.00    0.52816   0.48732   -1.000
 3485.00    0.53251   0.50259   -1.000
 3486.00    0.52785   0.52259  509.366
 3487.00    0.55125   0.53203   -1.000
 3488.00    0.55802   0.52019   -1.000
 3489.00    0.51504   0.49382   -1.000
 3490.00    0.47927   0.46974   -1.000
 3491.00    0.48630   0.46195   -1.000
 3492.00    0.49148   0.47072   -1.000
 3493.00    0.49999   0.48394   -1.000
 3494.00    0.50530   0.49127   -1.000
 3495.00    0.49491   0.48666   -1.000
 3496.00    0.48337   0.47816   -1.000
 3497.00    0.49095   0.48163   -1.000
 3498.00    0.52440   0.50440   -1.000
 3499.00    0.55166   0.53392   -1.000
 3500.00    0.56657   0.55016   -1.000
 3501.00    0.58408   0.55684   -1.000
 3502.00    0.59250   0.56413   -1.000
 3503.00    0.59840   0.56891   -1.000
 3504.00    0.60492   0.56385   -1.000
 3505.00    0.58543   0.55142   -1.000
 3506.00    0.55795   0.54118   -1.000
 3507.00    0.55540   0.53790   -1.000
 3508.00    0.56974   0.53572   -1.000
 3509.00    0.56397   0.52644   -1.000
 3510.00    0.55066   0.51394   -1.000
 3511.00    0.53387   0.50082   -1.000
 3512.00    0.52291   0.48748   -1.000
 3513.00    0.51521   0.47589   -1.000
 3514.00    0.51274   0.47405   -1.000
 3515.00    0.51226   0.49104   -1.000
 3516.00    0.53464   0.52385   -1.000
 3517.00    0.57720   0.55376   -1.000
 3518.00    0.60366   0.56646   -1.000
 3519.00    0.58520   0.55648   -1.000
 3520.00    0.55282   0.53264   -1.000
 3521.00    0.51952   0.50384   -1.000
 3522.00    0.49845   0.48054   -1.000
 3523.00    0.48704   0.46040   -1.000
 3524.00    0.47626   0.44315   -1.000
 3525.00    0.45723   0.43681   -1.000
 3526.00    0.45065   0.44973   62.049
 3527.00    0.47279   0.47851   63.221
 3528.00    0.50797   0.51328   97.939
 3529.00    0.55177   0.53794   -1.000
 3530.00    0.56384   0.54528   -1.000
 3531.00    0.55348   0.53924   -1.000
 3532.00    0.55229   0.53522   -1.000
 3533.00    0.55665   0.54081   -1.000
 3534.00    0.56102   0.55271   -1.000
 3535.00    0.56255   0.56282  509.366
 3536.00    0.57775   0.56621   -1.000
 3537.00    0.57146   0.56935  493.812
 3538.00    0.56570   0.57757   -1.000
 3539.00    0.57546   0.58303   -1.000
 3540.00    0.56981   0.57927   -1.000
 3541.00    0.56585   0.56931  482.128
 3542.00    0.56859   0.56575  488.402
 3543.00    0.56302   0.57369   -1.000
 3544.00    0.54143   0.58407   -1.000
 3545.00    0.54849   0.58780   -1.000
 3546.00    0.55359   0.58239   -1.000
 3547.00    0.54529   0.57584   -1.000
 3548.00    0.54494   0.57462   -1.000
 3549.00    0.54342   0.57685   -1.000
 3550.00    0.54815   0.57625   -1.000
 3551.00    0.54527   0.56764   -1.000
 3552.00    0.52692   0.55279   -1.000
 3553.00    0.49650   0.53867   -1.000
 3554.00    0.49074   0.53380   -1.000
 3555.00    0.49372   0.53875   -1.000
 3556.00    0.51976   0.54440   -1.000
 3557.00    0.51831   0.54494   -1.000
 3558.00    0.50714   0.54017   -1.000
 3559.00    0.51111   0.53802   -1.000
 3560.00    0.49453   0.54545   -1.000
 3561.00    0.49765   0.55854   -1.000
 3562.00    0.52355   0.56668   -1.000
 3563.00    0.51119   0.55314   -1.000
 3564.00    0.47428   0.51682   -1.000
 3565.00    0.45299   0.47588   -1.000
 3566.00    0.45010   0.45722  137.322
 3567.00    0.43173   0.45838   62.750
 3568.00    0.41651   0.45823   64.047
 3569.00    0.41116   0.44834   63.433
 3570.00    0.42512   0.43776   64.037
 3571.00    0.44924   0.43971   65.864
 3572.00    0.47552   0.45635   65.783
 3573.00    0.47647   0.47382   63.347
 3574.00    0.48651   0.48667   93.273
 3575.00    0.49334   0.49456  509.366
 3576.00    0.49504   0.49558  509.366
 3577.00    0.48572   0.48599  509.366
 3578.00    0.46318   0.46574  509.366
 3579.00    0.43606   0.43544  509.366
 3580.00    0.41742   0.40800  144.335
 3581.00    0.39591   0.39413   65.710
 3582.00    0.39328   0.39621   70.368
 3583.00    0.39543   0.40298   72.927
 3584.00    0.39077   0.40279   73.309
 3585.00    0.38806   0.39573   74.190
 3586.00    0.39207   0.39219   76.295
 3587.00    0.37743   0.40047   78.280
 3588.00    0.38116   0.41946   77.399
 3589.00    0.41555   0.44939   73.365
 3590.00    0.45177   0.48207   69.594
 3591.00    0.48113   0.50793   65.091
 3592.00    0.50640   0.51855   91.741
 3593.00    0.52063   0.52097  509.366
 3594.00    0.52076   0.52825   -1.000
 3595.00    0.53508   0.54494   -1.000
 3596.00    0.56460   0.56576  509.366
 3597.00    0.57787   0.58090  508.953
 3598.00    0.58218   0.59234   -1.000
 3599.00    0.58498   0.60200   -1.000
 3600.00    0.58121   0.60131   -1.000
 3601.00    0.56777   0.58226   -1.000
 3602.00    0.56355   0.55214   -1.000
 3603.00    0.55100   0.52254   -1.000
 3604.00    0.53518   0.50441   -1.000
 3605.00    0.50872   0.49868   -1.000
 3606.00    0.49835   0.49578  509.366
 3607.00    0.49512   0.48621   -1.000
 3608.00    0.47450   0.47070   -1.000
 3609.00    0.46873   0.46327   -1.000
 3610.00    0.48066   0.47344   -1.000
 3611.00    0.49213   0.49653  509.366
 3612.00    0.50978   0.51536  509.366
 3613.00    0.52532   0.52905  509.366
 3614.00    0.53728   0.54329   -1.000
 3615.00    0.54793   0.55423   -1.000
 3616.00    0.55487   0.54647   -1.000
 3617.00    0.52225   0.51380   -1.000
 3618.00    0.47437   0.47151  509.366
 3619.00    0.45193   0.45694  509.366
 3620.00    0.46600   0.47635  143.707
 3621.00    0.51415   0.51521   89.462
 3622.00    0.56138   0.55096   -1.000
 3623.00    0.57088   0.57516  509.366
 3624.00    0.57833   0.59541   -1.000
 3625.00    0.60256   0.62294   -1.000
 3626.00    0.61807   0.65269   -1.000
 3627.00    0.63520   0.66905   -1.000
 3628.00    0.64062   0.65695   -1.000
 3629.00    0.60109   0.61440   -1.000
 3630.00    0.54690   0.55291  448.422
 3631.00    0.49784   0.50707   -1.000
 3632.00    0.46955   0.49221   -1.000
 3633.00    0.47921   0.50579   -1.000
 3634.00    0.50608   0.52922   -1.000
 3635.00    0.53593   0.54975   -1.000
 3636.00    0.57116   0.56376   -1.000
 3637.00    0.59311   0.58120   -1.000
 3638.00    0.60509   0.60609  494.169
 3639.00    0.60759   0.62852   -1.000
 3640.00    0.62035   0.63872   -1.000
 3641.00    0.60750   0.63084   -1.000
 3642.00    0.59276   0.60913   -1.000
 3643.00    0.57587   0.58469   -1.000
 3644.00    0.55749   0.56296   -1.000
 3645.00    0.53459   0.54433   -1.000
 3646.00    0.51057   0.52762   -1.000
 3647.00    0.50949   0.51225  509.366
 3648.00    0.52902   0.50803   -1.000
 3649.00    0.52646   0.51968   -1.000
 3650.00    0.53292   0.54758   -1.000
 3651.00    0.57004   0.58248   -1.000
 3652.00    0.60857   0.61668   -1.000
 3653.00    0.62748   0.63723   -1.000
 3654.00    0.62655   0.64692   -1.000
 3655.00    0.62939   0.65456   -1.000
 3656.00    0.65622   0.66647   -1.000
 3657.00    0.66130   0.68312   -1.000
 3658.00    0.65904   0.69544   -1.000
 3659.00    0.67348   0.70071   -1.000
 3660.00    0.67795   0.69807   -1.000
 3661.00    0.67522   0.68684   -1.000
 3662.00    0.66713   0.66911  421.563
 3663.00    0.64483   0.65515   -1.000
 3664.00    0.62835   0.64916   -1.000
 3665.00    0.63573   0.65007   -1.000
 3666.00    0.62922   0.65045   -1.000
 3667.00    0.61248   0.64225   -1.000
 3668.00    0.61447   0.62708   -1.000
 3669.00    0.62234   0.61605  445.855
 3670.00    0.61497   0.62242   -1.000
 3671.00    0.61545   0.64274   -1.000
 3672.00    0.64813   0.66145   -1.000
 3673.00    0.67123   0.66980  436.627
 3674.00    0.66941   0.66792  430.434
 3675.00    0.66137   0.65711  429.497
 3676.00    0.63656   0.63741  429.784
 3677.00    0.60945   0.61112  434.914
 3678.00    0.57898   0.58433   -1.000
 3679.00    0.56516   0.56619  462.500
 3680.00    0.56905   0.56539  475.773
 3681.00    0.58114   0.58166  483.316
 3682.00    0.59765   0.60149  477.905
 3683.00    0.61299   0.61257  464.768
 3684.00    0.59887   0.60582   -1.000
 3685.00    0.57634   0.58179   -1.000
 3686.00    0.54458   0.55101   -1.000
 3687.00    0.54282   0.53724  488.672
 3688.00    0.56648   0.55054   -1.000
 3689.00    0.60116   0.58738   -1.000
 3690.00    0.62353   0.63047   -1.000
 3691.00    0.65348   0.66071   -1.000
 3692.00    0.66327   0.66432  427.866
 3693.00    0.65320   0.64945  420.482
 3694.00    0.64321   0.63505  426.699
 3695.00    0.63397   0.62861  436.742
 3696.00    0.64540   0.63272   -1.000
 3697.00    0.66136   0.64813   -1.000
 3698.00    0.66779   0.67338   -1.000
 3699.00    0.68582   0.69546   -1.000
 3700.00    0.70505   0.70345  411.509
 3701.00    0.69547   0.69019  402.753
 3702.00    0.65300   0.65404  401.693
 3703.00    0.60433   0.59825  413.049
 3704.00    0.55658   0.54414   -1.000
 3705.00    0.52050   0.50616   -1.000
 3706.00    0.50589   0.49487   -1.000
 3707.00    0.51114   0.50109   -1.000
 3708.00    0.52852   0.51380   -1.000
 3709.00    0.55299   0.53242   -1.000
 3710.00    0.57385   0.56214   -1.000
 3711.00    0.60108   0.59837  489.722
 3712.00    0.65694   0.63783   -1.000
 3713.00    0.69755   0.67212   -1.000
 3714.00    0.70614   0.68942   -1.000
 3715.00    0.69324   0.68681  403.490
 3716.00    0.69050   0.66643   -1.000
 3717.00    0.67297   0.62655   -1.000
 3718.00    0.60856   0.56926   -1.000
 3719.00    0.52325   0.50470   -1.000
 3720.00    0.46965   0.44979   -1.000
 3721.00    0.45720   0.43084   -1.000
 3722.00    0.48043   0.45252   -1.000
 3723.00    0.52662   0.50159   86.032
 3724.00    0.58298   0.55650   -1.000
 3725.00    0.61005   0.59232   -1.000
 3726.00    0.62116   0.59600   -1.000
 3727.00    0.61131   0.58483   -1.000
 3728.00    0.60804   0.58313   -1.000
 3729.00    0.61828   0.58782   -1.000
 3730.00    0.61782   0.58164   -1.000
 3731.00    0.57483   0.55205   -1.000
 3732.00    0.53259   0.49771   -1.000
 3733.00    0.47029   0.44103   -1.000
 3734.00    0.41092   0.39671  158.214
 3735.00    0.39794   0.37850   63.063
 3736.00    0.40720   0.39208   69.138
 3737.00    0.43687   0.43379   69.758
 3738.00    0.48957   0.48953   65.212
 3739.00    0.53705   0.54875   83.420
 3740.00    0.58536   0.58919  509.366
 3741.00    0.59019   0.59834   -1.000
 3742.00    0.57537   0.57734  455.675
 3743.00    0.54492   0.54224  459.570
 3744.00    0.51437   0.50497   -1.000
 3745.00    0.48822   0.47815   -1.000
 3746.00    0.46554   0.45705   -1.000
 3747.00    0.44653   0.43245   -1.000
 3748.00    0.41914   0.40917  165.666
 3749.00    0.42483   0.40304   62.992
 3750.00    0.45903   0.42838   66.073
 3751.00    0.51006   0.48193   90.632
 3752.00    0.57231   0.54163   -1.000
 3753.00    0.61818   0.59471   -1.000
 3754.00    0.65600   0.63676   -1.000
 3755.00    0.67505   0.64881   -1.000
 3756.00    0.64168   0.62082   -1.000
 3757.00    0.57263   0.56820  412.496
 3758.00    0.52568   0.52305  445.129
 3759.00    0.52463   0.51098   -1.000
 3760.00    0.54244   0.52521   -1.000
 3761.00    0.56043   0.54418   -1.000
 3762.00    0.56135   0.55277   -1.000
 3763.00    0.55943   0.55322   -1.000
 3764.00    0.56257   0.55159   -1.000
 3765.00    0.56927   0.54674   -1.000
 3766.00    0.56213   0.53839   -1.000
 3767.00    0.55677   0.53324   -1.000
 3768.00    0.57300   0.53451   -1.000
 3769.00    0.58419   0.53882   -1.000
 3770.00    0.59528   0.54739   -1.000
 3771.00    0.61930   0.56661   -1.000
 3772.00    0.63913   0.59346   -1.000
 3773.00    0.65345   0.61864   -1.000
 3774.00    0.65884   0.63245   -1.000
 3775.00    0.64987   0.63821   -1.000
 3776.00    0.64291   0.64384  422.588
 3777.00    0.64848   0.65241  422.001
 3778.00    0.65426   0.66607   -1.000
 3779.00    0.67219   0.68214   -1.000
 3780.00    0.69683   0.69717  409.915
 3781.00    0.71182   0.70810  397.226
 3782.00    0.71122   0.71404  389.961
 3783.00    0.71009   0.71298  387.512
 3784.00    0.69957   0.69772  385.907
 3785.00    0.67504   0.66400   -1.000
 3786.00    0.62032   0.62262  401.124
 3787.00    0.58099   0.58692  425.259
 3788.00    0.56884   0.56471  454.552
 3789.00    0.54962   0.56083   -1.000
 3790.00    0.57257   0.56993  478.905
 3791.00    0.58728   0.57873   -1.000
 3792.00    0.58568   0.57669   -1.000
 3793.00    0.56994   0.55950   -1.000
 3794.00    0.53684   0.53670  477.445
 3795.00    0.52751   0.51406   -1.000
 3796.00    0.52344   0.49076   -1.000
 3797.00    0.49479   0.46615   -1.000
 3798.00    0.48879   0.45283   -1.000
 3799.00    0.50019   0.46847   -1.000
 3800.00    0.54048   0.51382   -1.000
 3801.00    0.58050   0.56648   -1.000
 3802.00    0.61205   0.61274  489.459
 3803.00    0.62235   0.64226   -1.000
 3804.00    0.62659   0.65171   -1.000
 3805.00    0.63747   0.64168  431.011
 3806.00    0.60777   0.62355   -1.000
 3807.00    0.56857   0.61512   -1.000
 3808.00    0.57554   0.62637   -1.000
 3809.00    0.59358   0.64807   -1.000
 3810.00    0.61255   0.66183   -1.000
 3811.00    0.62116   0.65393   -1.000
 3812.00    0.59525   0.62184   -1.000
 3813.00    0.56329   0.58016   -1.000
 3814.00    0.53386   0.54180  467.259
 3815.00    0.50047   0.52103   -1.000
 3816.00    0.48673   0.52183   -1.000
 3817.00    0.49677   0.52971   -1.000
 3818.00    0.49839   0.52371   -1.000
 3819.00    0.47289   0.49969   -1.000
 3820.00    0.45187   0.47889   -1.000
 3821.00    0.44038   0.47948   -1.000
 3822.00    0.46578   0.49411   -1.000
 3823.00    0.47966   0.49621   -1.000
 3824.00    0.45379   0.47481   -1.000
 3825.00    0.41417   0.44878   -1.000
 3826.00    0.40376   0.43474   -1.000
 3827.00    0.40953   0.43544   64.283
 3828.00    0.41750   0.44407   65.125
 3829.00    0.42420   0.45212   64.397
 3830.00    0.41497   0.45066   63.341
 3831.00    0.41380   0.43631   62.787
 3832.00    0.38673   0.41318   64.150
 3833.00    0.37755   0.39132   67.697
 3834.00    0.38412   0.38085   72.315
 3835.00    0.40105   0.38287   73.476
 3836.00    0.41230   0.39141   71.540
 3837.00    0.40392   0.39793   68.971
 3838.00    0.38538   0.40140   68.268
 3839.00    0.38281   0.40999   69.837
 3840.00    0.40251   0.43199   70.747
 3841.00    0.45120   0.47084   68.661
 3842.00    0.49183   0.51492   85.220
 3843.00    0.52237   0.55285   -1.000
 3844.00    0.53586   0.57584   -1.000
 3845.00    0.54740   0.58642   -1.000
 3846.00    0.54000   0.59265   -1.000
 3847.00    0.54050   0.59486   -1.000
 3848.00    0.53943   0.58698   -1.000
 3849.00    0.51554   0.57384   -1.000
 3850.00    0.49926   0.56830   -1.000
 3851.00    0.50343   0.57665   -1.000
 3852.00    0.51666   0.58766   -1.000
 3853.00    0.52556   0.58782   -1.000
 3854.00    0.51934   0.57486   -1.000
 3855.00    0.49461   0.55734   -1.000
 3856.00    0.47940   0.54026   -1.000
 3857.00    0.46888   0.52164   -1.000
 3858.00    0.44760   0.49974   -1.000
 3859.00    0.42039   0.48762   -1.000
 3860.00    0.41757   0.49867   -1.000
 3861.00    0.45201   0.53292   -1.000
 3862.00    0.49847   0.57084   -1.000
 3863.00    0.53313   0.59241   -1.000
 3864.00    0.54152   0.59273   -1.000
 3865.00    0.53059   0.58402   -1.000
 3866.00    0.52915   0.57810   -1.000
 3867.00    0.51671   0.57597   -1.000
 3868.00    0.50868   0.57060   -1.000
 3869.00    0.48796   0.55678   -1.000
 3870.00    0.45235   0.53361   -1.000
 3871.00    0.44477   0.51483   -1.000
 3872.00    0.46131   0.51493   -1.000
 3873.00    0.48856   0.53880   -1.000
 3874.00    0.53790   0.57353   -1.000
 3875.00    0.56573   0.59731   -1.000
 3876.00    0.56019   0.59137   -1.000
 3877.00    0.53068   0.56404   -1.000
 3878.00    0.50362   0.54168   -1.000
 3879.00    0.50191   0.53603   -1.000
 3880.00    0.49737   0.53965   -1.000
 3881.00    0.48844   0.54225   -1.000
 3882.00    0.48622   0.54584   -1.000
 3883.00    0.52610   0.55473   -1.000
 3884.00    0.57821   0.55603   -1.000
 3885.00    0.57948   0.53463   -1.000
 3886.00    0.55256   0.49962   -1.000
 3887.00    0.53146   0.47057   -1.000
 3888.00    0.53690   0.46437   -1.000
 3889.00    0.56696   0.48800   -1.000
 3890.00    0.59851   0.53536   -1.000
 3891.00    0.65835   0.58871   -1.000
 3892.00    0.69605   0.63008   -1.000
 3893.00    0.69763   0.64616   -1.000
 3894.00    0.68441   0.64433   -1.000
 3895.00    0.66837   0.64256   -1.000
 3896.00    0.67523   0.64838   -1.000
 3897.00    0.69533   0.65612   -1.000
 3898.00    0.70168   0.65664   -1.000
 3899.00    0.68831   0.65337   -1.000
 3900.00    0.67347   0.65594   -1.000
 3901.00    0.68780   0.66087   -1.000
 3902.00    0.70068   0.65803   -1.000
 3903.00    0.68218   0.64535   -1.000
 3904.00    0.65201   0.62765   -1.000
 3905.00    0.62667   0.61843   -1.000
 3906.00    0.62623   0.62724  435.445
 3907.00    0.65141   0.65537  444.790
 3908.00    0.68967   0.69134  435.232
 3909.00    0.72591   0.72123  408.273
 3910.00    0.74695   0.73762   -1.000
 3911.00    0.75392   0.74610  377.362
 3912.00    0.76311   0.74935   -1.000
 3913.00    0.75797   0.74648   -1.000
 3914.00    0.74593   0.73827  370.108
 3915.00    0.72545   0.72700  375.399
 3916.00    0.72283   0.71420   -1.000
 3917.00    0.72545   0.69968   -1.000
 3918.00    0.70590   0.67881   -1.000
 3919.00    0.67550   0.65024   -1.000
 3920.00    0.63586   0.62354   -1.000
 3921.00    0.60656   0.60761  435.639
 3922.00    0.60515   0.60746  453.909
 3923.00    0.60837   0.61544  459.893
 3924.00    0.61624   0.61753  454.445
 3925.00    0.60170   0.60447  448.625
 3926.00    0.57299   0.57223  456.562
 3927.00    0.51763   0.52971   -1.000
 3928.00    0.44565   0.48358   -1.000
 3929.00    0.39880   0.44062   -1.000
 3930.00    0.35302   0.40220   -1.000
 3931.00    0.31019   0.36422   -1.000
 3932.00    0.27192   0.32941   -1.000
 3933.00    0.24991   0.30502   -1.000
 3934.00    0.24490   0.30524   -1.000
 3935.00    0.26188   0.33307   -1.000
 3936.00    0.31324   0.37742   -1.000
 3937.00    0.37058   0.42631   -1.000
 3938.00    0.41521   0.47753   -1.000
 3939.00    0.46381   0.52193   -1.000
 3940.00    0.51532   0.55475   81.725
 3941.00    0.52114   0.57193   -1.000
 3942.00    0.53588   0.57465   -1.000
 3943.00    0.53762   0.57429   -1.000
 3944.00    0.54121   0.58615   -1.000
 3945.00    0.58623   0.61336   -1.000
 3946.00    0.64787   0.64253   -1.000
 3947.00    0.66223   0.66264  440.937
 3948.00    0.68536   0.67730   -1.000
 3949.00    0.70867   0.69488   -1.000
 3950.00    0.72915   0.71259   -1.000
 3951.00    0.74166   0.71824   -1.000
 3952.00    0.73063   0.71755   -1.000
 3953.00    0.72624   0.72252  388.627
 3954.00    0.74781   0.73015   -1.000
 3955.00    0.73852   0.72966   -1.000
 3956.00    0.72954   0.71898   -1.000
 3957.00    0.71773   0.70971   -1.000
 3958.00    0.71517   0.70571   -1.000
 3959.00    0.70327   0.68876   -1.000
 3960.00    0.64222   0.64320  395.664
 3961.00    0.56287   0.58610   -1.000
 3962.00    0.52565   0.53653   -1.000
 3963.00    0.50789   0.50472   -1.000
 3964.00    0.47692   0.47879  509.366
 3965.00    0.42019   0.43977   -1.000
 3966.00    0.36638   0.38747   65.637
 3967.00    0.31190   0.33201   77.770
 3968.00    0.26903   0.29457   95.900
 3969.00    0.26129   0.28986   -1.000
 3970.00    0.29819   0.31799  122.695
 3971.00    0.35433   0.36749  110.696
 3972.00    0.42016   0.42862   91.062
 3973.00    0.49064   0.48975   75.128
 3974.00    0.55857   0.54929   79.105
 3975.00    0.61762   0.60465   -1.000
 3976.00    0.66152   0.65371   -1.000
 3977.00    0.72255   0.70003   -1.000
 3978.00    0.77210   0.74194   -1.000
 3979.00    0.80988   0.77860   -1.000
 3980.00    0.83471   0.79932   -1.000
 3981.00    0.82833   0.80138   -1.000
 3982.00    0.81859   0.79349   -1.000
 3983.00    0.81742   0.78955   -1.000
 3984.00    0.81942   0.79669   -1.000
 3985.00    0.84011   0.81141   -1.000
 3986.00    0.86797   0.83009   -1.000
 3987.00    0.88628   0.84956   -1.000
 3988.00    0.90826   0.86306   -1.000
 3989.00    0.91311   0.86732   -1.000
 3990.00    0.89663   0.86888   -1.000
 3991.00    0.90326   0.87632   -1.000
 3992.00    0.93051   0.88887   -1.000
 3993.00    0.93388   0.89607   -1.000
 3994.00    0.91836   0.89012   -1.000
 3995.00    0.90843   0.87392   -1.000
 3996.00    0.88748   0.85619   -1.000
 3997.00    0.87615   0.85135   -1.000
 3998.00    0.89101   0.86684   -1.000
 3999.00    0.91992   0.89661   -1.000
 4000.00    0.95520   0.92503   -1.000
 4001.00    0.97364   0.94440   -1.000
 4002.00    0.99954   0.94773   -1.000
 4003.00    0.99247   0.92664   -1.000
 4004.00    0.93287   0.88314   -1.000
 4005.00    0.87440   0.84340   -1.000
 4006.00    0.87280   0.83614   -1.000
 4007.00    0.91796   0.86437   -1.000
 4008.00    0.94911   0.90566   -1.000
 4009.00    0.97369   0.93501   -1.000
 4010.00    0.97664   0.94885   -1.000
 4011.00    0.97205   0.95503   -1.000
 4012.00    1.01263   0.95944   -1.000
 4013.00    1.01375   0.96555   -1.000
 4014.00    0.99196   0.97305   -1.000
 4015.00    0.99796   0.97653   -1.000
 4016.00    1.00000   0.97350   -1.000
 4017.00    0.99985   0.97138   -1.000
 4018.00    0.98967   0.97784  292.991
 4019.00    1.00089   0.98864  295.736
 4020.00    1.00718   0.99458  293.591
 4021.00    1.00053   0.99052  289.891
 4022.00    1.00365   0.98051   -1.000
 4023.00    0.99853   0.96889   -1.000
 4024.00    0.99275   0.96035   -1.000
 4025.00    0.99891   0.96291   -1.000
 4026.00    1.03060   0.98107   -1.000
 4027.00    1.06122   1.00434   -1.000
 4028.00    1.05988   1.00754   -1.000
 4029.00    1.01373   0.97397   -1.000
 4030.00    0.95539   0.91367   -1.000
 4031.00    0.92438   0.85980   -1.000
 4032.00    0.90802   0.83057   -1.000
 4033.00    0.90114   0.82883   -1.000
 4034.00    0.92149   0.85390   -1.000
 4035.00    0.97338   0.90439   -1.000
 4036.00    1.02464   0.96492   -1.000
 4037.00    1.06939   1.01743   -1.000
 4038.00    1.09179   1.04065   -1.000
 4039.00    1.07347   1.03260   -1.000
 4040.00    1.05663   1.01439   -1.000
 4041.00    1.03576   1.00277   -1.000
 4042.00    1.02583   0.98280   -1.000
 4043.00    1.00486   0.93204   -1.000
 4044.00    0.92386   0.85368   -1.000
 4045.00    0.83212   0.78890   -1.000
 4046.00    0.82238   0.78864   -1.000
 4047.00    0.89759   0.85250   -1.000
 4048.00    0.97064   0.93117   -1.000
 4049.00    1.00883   0.99007   -1.000
 4050.00    1.04768   1.01722   -1.000
 4051.00    1.04927   1.01808   -1.000
 4052.00    1.02293   1.00156   -1.000
 4053.00    1.01989   0.97768   -1.000
 4054.00    1.00662   0.95561   -1.000
 4055.00    0.96782   0.93770   -1.000
 4056.00    0.95332   0.92059   -1.000
 4057.00    0.96105   0.90835   -1.000
 4058.00    0.94577   0.91391   -1.000
 4059.00    0.97202   0.93771   -1.000
 4060.00    1.01465   0.95473   -1.000
 4061.00    1.00300   0.93572   -1.000
 4062.00    0.94785   0.88273   -1.000
 4063.00    0.88028   0.83578   -1.000
 4064.00    0.86026   0.82229   -1.000
 4065.00    0.89809   0.83969   -1.000
 4066.00    0.94016   0.87264   -1.000
 4067.00    0.99103   0.90737   -1.000
 4068.00    1.01854   0.93510   -1.000
 4069.00    1.03607   0.94264   -1.000
 4070.00    1.00534   0.91982   -1.000
 4071.00    0.96308   0.88657   -1.000
 4072.00    0.94255   0.87903   -1.000
 4073.00    0.98339   0.90074   -1.000
 4074.00    1.00277   0.91947   -1.000
 4075.00    0.96853   0.90217   -1.000
 4076.00    0.91340   0.85873   -1.000
 4077.00    0.86399   0.83125   -1.000
 4078.00    0.87522   0.84679   -1.000
 4079.00    0.94284   0.90218   -1.000
 4080.00    1.00419   0.96429   -1.000
 4081.00    1.05404   1.00319   -1.000
 4082.00    1.04151   1.00461   -1.000
 4083.00    1.00606   0.98172   -1.000
 4084.00    0.98950   0.96215   -1.000
 4085.00    0.99940   0.96661   -1.000
 4086.00    1.03152   0.99665   -1.000
 4087.00    1.09240   1.03486   -1.000
 4088.00    1.12428   1.06425   -1.000
 4089.00    1.13368   1.07096   -1.000
 4090.00    1.11217   1.05586   -1.000
 4091.00    1.08297   1.03385   -1.000
 4092.00    1.06111   1.01998   -1.000
 4093.00    1.06717   1.00835   -1.000
 4094.00    1.06278   0.98680   -1.000
 4095.00    1.01556   0.95247   -1.000
 4096.00    0.97931   0.91588   -1.000
 4097.00    0.96971   0.88929   -1.000
 4098.00    0.96008   0.86432   -1.000
 4099.00    0.92113   0.82599   -1.000
 4100.00    0.87433   0.77477   -1.000
 4101.00    0.81569   0.73550   -1.000
 4102.00    0.80924   0.73645   -1.000
 4103.00    0.86134   0.78325   -1.000
 4104.00    0.92447   0.85058   -1.000
 4105.00    0.96554   0.91289   -1.000
 4106.00    1.01450   0.95442   -1.000
 4107.00    1.03769   0.97328   -1.000
 4108.00    1.03350   0.97460   -1.000
 4109.00    1.01910   0.96546   -1.000
 4110.00    0.98829   0.95624   -1.000
 4111.00    0.97273   0.95695   -1.000
 4112.00    0.98137   0.96969  310.109
 4113.00    1.00383   0.99123  305.536
 4114.00    1.02141   1.01437  298.745
 4115.00    1.05241   1.03006   -1.000
 4116.00    1.04648   1.02924   -1.000
 4117.00    1.04649   1.01077   -1.000
 4118.00    1.01185   0.98599   -1.000
 4119.00    0.98892   0.97069   -1.000
 4120.00    1.00165   0.97083   -1.000
 4121.00    1.00499   0.97846   -1.000
 4122.00    0.99329   0.98522  303.968
 4123.00    0.99713   0.99199  301.306
 4124.00    1.01402   1.00216  301.247
 4125.00    1.03371   1.00981   -1.000
 4126.00    1.05056   1.00585   -1.000
 4127.00    1.04122   0.99172   -1.000
 4128.00    1.01304   0.97734   -1.000
 4129.00    0.98317   0.96502   -1.000
 4130.00    0.97460   0.94633   -1.000
 4131.00    0.95760   0.91940   -1.000
 4132.00    0.93562   0.89457   -1.000
 4133.00    0.89953   0.89263  321.888
 4134.00    0.92824   0.92204  330.881
 4135.00    0.98610   0.96743   -1.000
 4136.00    1.02593   1.00900   -1.000
 4137.00    1.05773   1.03758   -1.000
 4138.00    1.06791   1.05278   -1.000
 4139.00    1.07280   1.05701   -1.000
 4140.00    1.07220   1.04163   -1.000
 4141.00    1.03050   0.99529   -1.000
 4142.00    0.94112   0.92958   -1.000
 4143.00    0.86242   0.88306   -1.000
 4144.00    0.87945   0.88262  333.972
 4145.00    0.93320   0.92185   -1.000
 4146.00    0.99055   0.96849   -1.000
 4147.00    0.99867   0.99229  313.370
 4148.00    1.01461   0.99021   -1.000
 4149.00    0.99705   0.97758   -1.000
 4150.00    0.99274   0.96908   -1.000
 4151.00    0.97289   0.96552  315.689
 4152.00    0.96283   0.96088  318.695
 4153.00    0.95252   0.95232  316.224
 4154.00    0.94056   0.94257  314.993
 4155.00    0.95595   0.93907   -1.000
 4156.00    1.20425   0.94837   -1.000
 4157.00    1.21629   0.96921   -1.000
 4158.00    0.74746   0.99772   -1.000
 4159.00    0.79710   1.02654   -1.000
 4160.00    1.04755   1.04664  302.326
 4161.00    1.06666   1.06114  305.217
 4162.00    1.06169   1.07227   -1.000
 4163.00    1.06949   1.07667   -1.000
 4164.00    1.05100   1.06918   -1.000
 4165.00    1.01596   1.04828   -1.000
 4166.00    0.98512   1.02163   -1.000
 4167.00    0.97417   1.00655   -1.000
 4168.00    0.97806   1.00779   -1.000
 4169.00    1.00022   1.01321   -1.000
 4170.00    0.99739   1.00128  310.367
 4171.00    0.96173   0.96457  305.799
 4172.00    0.91256   0.92506   -1.000
 4173.00    0.88462   0.90735   -1.000
 4174.00    0.89634   0.91797   -1.000
 4175.00    0.92976   0.94083   -1.000
 4176.00    0.95590   0.95670  334.089
 4177.00    0.94014   0.96472   -1.000
 4178.00    0.93791   0.97518   -1.000
 4179.00    0.96394   0.98673   -1.000
 4180.00    0.97650   0.99002   -1.000
 4181.00    0.98125   0.98398  318.339
 4182.00    0.95997   0.98366   -1.000
 4183.00    0.97605   1.00204   -1.000
 4184.00    1.01481   1.02445   -1.000
 4185.00    1.04789   1.02808   -1.000
 4186.00    1.01848   1.00830  300.747
 4187.00    0.97717   0.98602  302.399
 4188.00    0.95987   0.98395   -1.000
 4189.00    0.99220   1.00028  320.603
 4190.00    1.00861   1.01956   -1.000
 4191.00    1.01717   1.03413   -1.000
 4192.00    1.03627   1.04734   -1.000
 4193.00    1.05156   1.05440  303.631
 4194.00    1.03127   1.04027   -1.000
 4195.00    0.99599   1.00079  294.600
 4196.00    0.94979   0.95616  304.407
 4197.00    0.92044   0.92342  320.255
 4198.00    0.91855   0.90851  330.104
 4199.00    0.94518   0.90730   -1.000
 4200.00    0.93713   0.91401   -1.000
 4201.00    0.95238   0.92331   -1.000
 4202.00    0.96025   0.93747   -1.000
 4203.00    0.98778   0.96178   -1.000
 4204.00    1.00545   0.99569  323.035
 4205.00    1.01501   1.03167   -1.000
 4206.00    1.05096   1.06091   -1.000
 4207.00    1.09869   1.08031   -1.000
 4208.00    1.09648   1.08617  301.380
 4209.00    1.08143   1.08174  296.005
 4210.00    1.07546   1.07802  294.971
 4211.00    1.07090   1.08101   -1.000
 4212.00    1.06280   1.08082   -1.000
 4213.00    1.05742   1.05950  293.491
 4214.00    0.99817   1.01896   -1.000
 4215.00    0.95011   0.98943   -1.000
 4216.00    0.98410   1.00066   -1.000
 4217.00    1.05329   1.05283  327.107
 4218.00    1.12001   1.11066  314.257
 4219.00    1.16078   1.15064  294.371
 4220.00    1.18045   1.16221   -1.000
 4221.00    1.17903   1.14356   -1.000
 4222.00    1.14135   1.09559   -1.000
 4223.00    1.05496   1.01890   -1.000
 4224.00    0.95679   0.91582   -1.000
 4225.00    0.85302   0.81791   -1.000
 4226.00    0.76823   0.76465  341.859
 4227.00    0.76567   0.78645   -1.000
 4228.00    0.88175   0.87803  412.758
 4229.00    1.01500   0.99407   -1.000
 4230.00    1.11185   1.07204   -1.000
 4231.00    1.13184   1.09727   -1.000
 4232.00    1.11861   1.08450   -1.000
 4233.00    1.08961   1.05501   -1.000
 4234.00    1.06035   1.02638   -1.000
 4235.00    1.03375   1.01017   -1.000
 4236.00    1.01594   1.00603  300.892
 4237.00    1.01696   1.01295  308.065
 4238.00    1.04161   1.03183  312.932
 4239.00    1.07294   1.05762   -1.000
 4240.00    1.09663   1.08420   -1.000
 4241.00    1.10581   1.11047  298.290
 4242.00    1.13326   1.13472  292.583
 4243.00    1.16438   1.16045  288.940
 4244.00    1.18068   1.18314  287.505
 4245.00    1.17652   1.18432   -1.000
 4246.00    1.14370   1.15427   -1.000
 4247.00    1.08830   1.10450   -1.000
 4248.00    1.05411   1.05256  294.402
 4249.00    1.03227   1.01857   -1.000
 4250.00    1.01694   1.01133  312.451
 4251.00    1.03442   1.02608  314.822
 4252.00    1.06934   1.04170   -1.000
 4253.00    1.06197   1.03912   -1.000
 4254.00    1.04095   1.02723   -1.000
 4255.00    1.04328   1.03584  299.023
 4256.00    1.09193   1.06921   -1.000
 4257.00    1.12987   1.08913   -1.000
 4258.00    1.09174   1.06508   -1.000
 4259.00    1.02486   1.01460   -1.000
 4260.00    0.98867   0.98455  301.133
 4261.00    0.99305   1.00829   -1.000
 4262.00    1.05253   1.07690   -1.000
 4263.00    1.13857   1.15460   -1.000
 4264.00    1.18267   1.20256   -1.000
 4265.00    1.19990   1.21473   -1.000
 4266.00    1.19960   1.20117  271.963
 4267.00    1.16889   1.16628  271.910
 4268.00    1.10580   1.11105  276.933
 4269.00    1.05951   1.04235   -1.000
 4270.00    1.00990   0.96694   -1.000
 4271.00    0.92374   0.90863   -1.000
 4272.00    0.88793   0.88503  327.936
 4273.00    0.91542   0.89609   -1.000
 4274.00    0.95283   0.93203   -1.000
 4275.00    0.99820   0.98815   -1.000
 4276.00    1.07354   1.05622   -1.000
 4277.00    1.13810   1.11821   -1.000
 4278.00    1.15265   1.14614  295.465
 4279.00    1.12231   1.13424   -1.000
 4280.00    1.07716   1.10625   -1.000
 4281.00    1.05176   1.09193   -1.000
 4282.00    1.06616   1.09555   -1.000
 4283.00    1.09051   1.09987   -1.000
 4284.00    1.07943   1.09226   -1.000
 4285.00    1.04422   1.07536   -1.000
 4286.00    1.02198   1.05761   -1.000
 4287.00    1.02566   1.03428  313.919
 4288.00    0.99704   0.99720  321.554
 4289.00    0.93794   0.95386   -1.000
 4290.00    0.90497   0.93319   -1.000
 4291.00    0.95134   0.95639  355.999
 4292.00    1.02591   1.00488   -1.000
 4293.00    1.07156   1.03821   -1.000
 4294.00    1.06419   1.04223   -1.000
 4295.00    1.02930   1.02664  310.119
 4296.00    1.01797   0.99894   -1.000
 4297.00    0.98035   0.95316   -1.000
 4298.00    0.90100   0.89216   -1.000
 4299.00    0.80919   0.83440   -1.000
 4300.00    0.78155   0.80505   -1.000
 4301.00    0.80903   0.80873  401.623
 4302.00    0.81395   0.82800   -1.000
 4303.00    0.84112   0.84427  391.946
 4304.00    0.86989   0.85205   -1.000
 4305.00    0.86775   0.84527   -1.000
 4306.00    0.83284   0.81610   -1.000
 4307.00    0.78385   0.77697   -1.000
 4308.00    0.75717   0.75545  392.920
 4309.00    0.76349   0.77008  414.134
 4310.00    0.80876   0.81720  422.919
 4311.00    0.87512   0.88132  412.810
 4312.00    0.93698   0.94636  389.576
 4313.00    0.98428   1.01417   -1.000
 4314.00    1.04611   1.09596   -1.000
 4315.00    1.13753   1.18709   -1.000
 4316.00    1.25691   1.27656   -1.000
 4317.00    1.33749   1.33502  284.540
 4318.00    1.33733   1.34599   -1.000
 4319.00    1.31855   1.32382  255.465
 4320.00    1.26731   1.28897   -1.000
 4321.00    1.24510   1.24006  260.405
 4322.00    1.19219   1.16935   -1.000
 4323.00    1.10898   1.07297   -1.000
 4324.00    0.98773   0.97828   -1.000
 4325.00    0.92146   0.93743   -1.000
 4326.00    0.95054   0.97907   -1.000
 4327.00    1.07678   1.08319  351.452
 4328.00    1.20065   1.19721  326.324
 4329.00    1.25810   1.26627   -1.000
 4330.00    1.26015   1.28521   -1.000
 4331.00    1.26593   1.28542   -1.000
 4332.00    1.26557   1.29375   -1.000
 4333.00    1.28311   1.31046   -1.000
 4334.00    1.30863   1.31712   -1.000
 4335.00    1.30374   1.29179  259.759
 4336.00    1.26692   1.22070   -1.000
 4337.00    1.14575   1.11220   -1.000
 4338.00    1.04832   0.99586   -1.000
 4339.00    0.98140   0.92007   -1.000
 4340.00    0.94365   0.90859   -1.000
 4341.00    0.97730   0.95653   -1.000
 4342.00    1.07732   1.04059   -1.000
 4343.00    1.15058   1.12590   -1.000
 4344.00    1.19336   1.18569  309.627
 4345.00    1.23806   1.22706  291.546
 4346.00    1.26758   1.26166  282.884
 4347.00    1.27243   1.29306   -1.000
 4348.00    1.29708   1.31621   -1.000
 4349.00    1.31123   1.30823  268.099
 4350.00    1.25845   1.25312  263.713
 4351.00    1.15931   1.17833   -1.000
 4352.00    1.09411   1.13477   -1.000
 4353.00    1.13609   1.14783   -1.000
 4354.00    1.20538   1.19777  304.704
 4355.00    1.24197   1.25111   -1.000
 4356.00    1.27804   1.28379  278.050
 4357.00    1.30051   1.29119  269.823
 4358.00    1.28251   1.28169  264.504
 4359.00    1.24207   1.27466   -1.000
 4360.00    1.24393   1.28828   -1.000
 4361.00    1.30821   1.31961   -1.000
 4362.00    1.33540   1.35207   -1.000
 4363.00    1.33424   1.37495   -1.000
 4364.00    1.34558   1.38988   -1.000
 4365.00    1.37041   1.38979   -1.000
 4366.00    1.34492   1.36149   -1.000
 4367.00    1.28177   1.31539   -1.000
 4368.00    1.25313   1.28069   -1.000
 4369.00    1.26552   1.26875  271.734
 4370.00    1.27972   1.26888  274.169
 4371.00    1.28865   1.26181   -1.000
 4372.00    1.26921   1.23534   -1.000
 4373.00    1.21333   1.19301   -1.000
 4374.00    1.13482   1.15233   -1.000
 4375.00    1.12839   1.14148   -1.000
 4376.00    1.18806   1.17530   -1.000
 4377.00    1.24940   1.23293   -1.000
 4378.00    1.29075   1.27193   -1.000
 4379.00    1.28135   1.27144  267.429
 4380.00    1.27486   1.22761   -1.000
 4381.00    1.22184   1.13819   -1.000
 4382.00    1.11405   1.02062   -1.000
 4383.00    0.98437   0.92515   -1.000
 4384.00    0.91282   0.90159   -1.000
 4385.00    0.99376   0.96194   -1.000
 4386.00    1.11207   1.06125   -1.000
 4387.00    1.19008   1.13552   -1.000
 4388.00    1.21704   1.16052   -1.000
 4389.00    1.20679   1.15840   -1.000
 4390.00    1.18852   1.15862   -1.000
 4391.00    1.20531   1.17233   -1.000
 4392.00    1.23867   1.19222   -1.000
 4393.00    1.23435   1.20429   -1.000
 4394.00    1.21424   1.21019  273.235
 4395.00    1.21874   1.22870   -1.000
 4396.00    1.27102   1.26909  282.095
 4397.00    1.33662   1.30673   -1.000
 4398.00    1.32354   1.30823   -1.000
 4399.00    1.26999   1.27598  259.452
 4400.00    1.23550   1.24335  263.905
 4401.00    1.23417   1.22501  274.142
 4402.00    1.25869   1.20548   -1.000
 4403.00    1.21799   1.15912   -1.000
 4404.00    1.13425   1.09790   -1.000
 4405.00    1.09505   1.06762   -1.000
 4406.00    1.13113   1.08573   -1.000
 4407.00    1.18982   1.12871   -1.000
 4408.00    1.19945   1.17843   -1.000
 4409.00    1.21654   1.23512   -1.000
 4410.00    1.29257   1.30320   -1.000
 4411.00    1.36048   1.36068  273.319
 4412.00    1.39341   1.36916   -1.000
 4413.00    1.36179   1.32331   -1.000
 4414.00    1.28133   1.25499   -1.000
 4415.00    1.21195   1.20486  257.695
 4416.00    1.18979   1.20599   -1.000
 4417.00    1.24987   1.25917   -1.000
 4418.00    1.30586   1.33152   -1.000
 4419.00    1.34338   1.38083   -1.000
 4420.00    1.37063   1.38654   -1.000
 4421.00    1.34123   1.35548   -1.000
 4422.00    1.28413   1.31593   -1.000
 4423.00    1.27237   1.29522   -1.000
 4424.00    1.28201   1.30007   -1.000
 4425.00    1.29632   1.31392   -1.000
 4426.00    1.27223   1.32287   -1.000
 4427.00    1.26796   1.33015   -1.000
 4428.00    1.28639   1.33504   -1.000
 4429.00    1.28354   1.33085   -1.000
 4430.00    1.26540   1.32046   -1.000
 4431.00    1.27281   1.31318   -1.000
 4432.00    1.27910   1.30839   -1.000
 4433.00    1.26062   1.28680   -1.000
 4434.00    1.21252   1.24795   -1.000
 4435.00    1.17561   1.22974   -1.000
 4436.00    1.21893   1.26235   -1.000
 4437.00    1.29754   1.33770   -1.000
 4438.00    1.35803   1.40702   -1.000
 4439.00    1.40555   1.42964   -1.000
 4440.00    1.37440   1.39808   -1.000
 4441.00    1.30113   1.33787   -1.000
 4442.00    1.26785   1.29020   -1.000
 4443.00    1.25235   1.28848   -1.000
 4444.00    1.27942   1.33699   -1.000
 4445.00    1.35423   1.40014   -1.000
 4446.00    1.41493   1.44250   -1.000
 4447.00    1.42380   1.45611   -1.000
 4448.00    1.40510   1.45398   -1.000
 4449.00    1.41029   1.44904   -1.000
 4450.00    1.38614   1.44114   -1.000
 4451.00    1.37497   1.42602   -1.000
 4452.00    1.37398   1.39744   -1.000
 4453.00    1.34399   1.34947  254.463
 4454.00    1.29991   1.28880   -1.000
 4455.00    1.24786   1.24571  266.308
 4456.00    1.24395   1.23652  278.783
 4457.00    1.26101   1.24691   -1.000
 4458.00    1.27895   1.25353   -1.000
 4459.00    1.26272   1.24757   -1.000
 4460.00    1.24844   1.23956  274.334
 4461.00    1.23968   1.24477  275.812
 4462.00    1.26782   1.27293  278.785
 4463.00    1.31331   1.31868  281.251
 4464.00    1.35362   1.36075  275.318
 4465.00    1.37841   1.38165  264.197
 4466.00    1.37206   1.38111  258.178
 4467.00    1.36192   1.36971  258.050
 4468.00    1.35383   1.35724  258.243
 4469.00    1.33924   1.35163   -1.000
 4470.00    1.34067   1.36463   -1.000
 4471.00    1.38037   1.40227   -1.000
 4472.00    1.41514   1.44938   -1.000
 4473.00    1.45273   1.48951   -1.000
 4474.00    1.49417   1.51486   -1.000
 4475.00    1.50164   1.53091   -1.000
 4476.00    1.50877   1.54852   -1.000
 4477.00    1.53024   1.55809   -1.000
 4478.00    1.52800   1.53599  236.444
 4479.00    1.46244   1.47658   -1.000
 4480.00    1.38512   1.40488   -1.000
 4481.00    1.34242   1.36418   -1.000
 4482.00    1.35405   1.37924   -1.000
 4483.00    1.40932   1.44087   -1.000
 4484.00    1.47439   1.51300   -1.000
 4485.00    1.52244   1.56412   -1.000
 4486.00    1.53309   1.57409   -1.000
 4487.00    1.51219   1.53993   -1.000
 4488.00    1.46609   1.47962   -1.000
 4489.00    1.41731   1.43290   -1.000
 4490.00    1.39330   1.42682   -1.000
 4491.00    1.43588   1.45201   -1.000
 4492.00    1.48925   1.47412   -1.000
 4493.00    1.46496   1.46378  247.010
 4494.00    1.41412   1.43084   -1.000
 4495.00    1.38089   1.40820   -1.000
 4496.00    1.38446   1.42058   -1.000
 4497.00    1.43527   1.46259   -1.000
 4498.00    1.49930   1.50581  257.155
 4499.00    1.51438   1.52897   -1.000
 4500.00    1.50094   1.53094   -1.000
 4501.00    1.48180   1.53094   -1.000
 4502.00    1.48002   1.54904   -1.000
 4503.00    1.53208   1.58497   -1.000
 4504.00    1.58316   1.62581   -1.000
 4505.00    1.59801   1.65032   -1.000
 4506.00    1.58046   1.64617   -1.000
 4507.00    1.55838   1.62645   -1.000
 4508.00    1.55798   1.61216   -1.000
 4509.00    1.57880   1.61104   -1.000
 4510.00    1.58731   1.61565   -1.000
 4511.00    1.58387   1.61147   -1.000
 4512.00    1.55854   1.59038   -1.000
 4513.00    1.52992   1.55987   -1.000
 4514.00    1.50240   1.53421   -1.000
 4515.00    1.51600   1.52190  240.637
 4516.00    1.52700   1.52158  242.083
 4517.00    1.52381   1.52486  240.830
 4518.00    1.51634   1.52920   -1.000
 4519.00    1.52345   1.54219   -1.000
 4520.00    1.55547   1.56369  245.081
 4521.00    1.56362   1.57952   -1.000
 4522.00    1.54463   1.57475   -1.000
 4523.00    1.50434   1.54851   -1.000
 4524.00    1.48311   1.51231   -1.000
 4525.00    1.44558   1.47187   -1.000
 4526.00    1.40595   1.42303   -1.000
 4527.00    1.35853   1.37008  253.781
 4528.00    1.30511   1.32912   -1.000
 4529.00    1.32655   1.31466   -1.000
 4530.00    1.34508   1.32983   -1.000
 4531.00    1.38076   1.36141   -1.000
 4532.00    1.41375   1.38722   -1.000
 4533.00    1.38898   1.39273  260.515
 4534.00    1.34313   1.38427   -1.000
 4535.00    1.32342   1.38671   -1.000
 4536.00    1.37421   1.42206   -1.000
 4537.00    1.49383   1.48456  272.076
 4538.00    1.55096   1.54070  256.451
 4539.00    1.56124   1.56043  241.293
 4540.00    1.52235   1.54479   -1.000
 4541.00    1.50355   1.52158   -1.000
 4542.00    1.49778   1.51507   -1.000
 4543.00    1.53077   1.52205  242.669
 4544.00    1.54977   1.52550   -1.000
 4545.00    0.51385   1.51730   -1.000
 4546.00   -0.01097   1.50448    0.000
 4547.00   -0.02338   1.49397    0.000
 4548.00    0.97600   1.48184   -1.000
 4549.00    0.54347   1.46879   -1.000
 4550.00    0.84506   1.46621   -1.000
 4551.00    1.52586   1.47863   -1.000
 4552.00    1.47679   1.49051   -1.000
 4553.00    1.45005   1.48594   -1.000
 4554.00    1.45796   1.47247   -1.000
 4555.00    1.47842   1.47245  255.519
 4556.00    1.50090   1.50080  257.894
 4557.00    1.55138   1.55149  254.046
 4558.00    1.59985   1.60150  244.774
 4559.00    1.59894   1.63222   -1.000
 4560.00    1.60282   1.64370   -1.000
 4561.00    1.61109   1.64146   -1.000
 4562.00    1.58624   1.62522   -1.000
 4563.00    1.57156   1.59203   -1.000
 4564.00    1.53137   1.55241   -1.000
 4565.00    1.49139   1.52921   -1.000
 4566.00    1.51909   1.53944   -1.000
 4567.00    1.56905   1.57790  244.793
 4568.00    1.61015   1.61824  238.589
 4569.00    1.60782   1.63240   -1.000
 4570.00    1.55695   1.61614   -1.000
 4571.00    1.51870   1.58763   -1.000
 4572.00    1.53391   1.57253   -1.000
 4573.00    1.57091   1.58594   -1.000
 4574.00    1.60792   1.61514  242.889
 4575.00    1.60800   1.63513   -1.000
 4576.00    1.58553   1.63616   -1.000
 4577.00    1.58124   1.62257   -1.000
 4578.00    1.57244   1.59494   -1.000
 4579.00    1.52276   1.55410   -1.000
 4580.00    1.49451   1.51330   -1.000
 4581.00    1.48712   1.49225  245.765
 4582.00    1.50047   1.49592  250.897
 4583.00    1.51511   1.51040  250.322
 4584.00    1.51051   1.51887  246.824
 4585.00    1.49656   1.51821   -1.000
 4586.00    1.50806   1.52341   -1.000
 4587.00    1.54813   1.54846  247.177
 4588.00    1.58486   1.58627  243.876
 4589.00    1.61316   1.61630  237.515
 4590.00    1.60579   1.62228   -1.000
 4591.00    1.57885   1.60317   -1.000
 4592.00    1.53725   1.57287   -1.000
 4593.00    1.52469   1.54819   -1.000
 4594.00    1.51388   1.53521   -1.000
 4595.00    1.52506   1.53093  244.241
 4596.00    1.53987   1.53187  242.209
 4597.00    1.54815   1.53860  240.293
 4598.00    1.55955   1.54954  239.617
 4599.00    1.54887   1.55814  239.113
 4600.00    1.53900   1.56035   -1.000
 4601.00    1.52538   1.55922   -1.000
 4602.00    1.54164   1.55984   -1.000
 4603.00    1.54570   1.56214   -1.000
 4604.00    1.55557   1.56273  241.017
 4605.00    1.56813   1.56548  238.298
 4606.00    1.57866   1.58191  238.595
 4607.00    1.61132   1.61788  238.233
 4608.00    1.64212   1.66529   -1.000
 4609.00    1.68648   1.70423   -1.000
 4610.00    1.69795   1.71485   -1.000
 4611.00    1.65377   1.69826   -1.000
 4612.00    1.63564   1.67325   -1.000
 4613.00    1.63702   1.65794   -1.000
 4614.00    1.63714   1.65849   -1.000
 4615.00    1.64980   1.67007   -1.000
 4616.00    1.65336   1.68332   -1.000
 4617.00    1.65145   1.69120   -1.000
 4618.00    1.63886   1.69256   -1.000
 4619.00    1.63348   1.69090   -1.000
 4620.00    1.64183   1.69204   -1.000
 4621.00    1.66456   1.69920   -1.000
 4622.00    1.68179   1.70711   -1.000
 4623.00    1.66891   1.70772   -1.000
 4624.00    1.66676   1.70086   -1.000
 4625.00    1.66776   1.69264   -1.000
 4626.00    1.65844   1.68630   -1.000
 4627.00    1.65983   1.68233   -1.000
 4628.00    1.65748   1.68135   -1.000
 4629.00    1.65139   1.68399   -1.000
 4630.00    1.65086   1.69074   -1.000
 4631.00    1.66987   1.69880   -1.000
 4632.00    1.68223   1.69893   -1.000
 4633.00    1.65302   1.68403   -1.000
 4634.00    1.63517   1.66130   -1.000
 4635.00    1.63528   1.64346  230.330
 4636.00    1.62564   1.63049  232.920
 4637.00    1.60234   1.61446  232.834
 4638.00    1.57520   1.59555   -1.000
 4639.00    1.57325   1.58293  237.691
 4640.00    1.60243   1.58490   -1.000
 4641.00    1.64617   1.60175   -1.000
 4642.00    1.65665   1.62230   -1.000
 4643.00    1.66599   1.62863   -1.000
 4644.00    1.65338   1.60927   -1.000
 4645.00    1.60988   1.56962   -1.000
 4646.00    1.55214   1.52447   -1.000
 4647.00    1.53301   1.49266   -1.000
 4648.00    1.55025   1.49225   -1.000
 4649.00    1.59712   1.52513   -1.000
 4650.00    1.61746   1.57452   -1.000
 4651.00    1.63401   1.61933   -1.000
 4652.00    1.64602   1.64614  231.765
 4653.00    1.63863   1.64942  231.225
 4654.00    1.58952   1.63143   -1.000
 4655.00    1.57372   1.60800   -1.000
 4656.00    1.58501   1.60293   -1.000
 4657.00    1.61563   1.62921  241.559
 4658.00    1.66449   1.68158   -1.000
 4659.00    1.73151   1.73702  232.376
 4660.00    1.75761   1.76726  223.507
 4661.00    1.73516   1.75895   -1.000
 4662.00    1.69030   1.72131   -1.000
 4663.00    1.65439   1.67313   -1.000
 4664.00    1.63123   1.62729  225.665
 4665.00    1.61326   1.58026   -1.000
 4666.00    1.54893   1.52546   -1.000
 4667.00    1.47242   1.47438  234.551
 4668.00    1.45202   1.45358  244.301
 4669.00    1.49724   1.47956   -1.000
 4670.00    1.58412   1.53910   -1.000
 4671.00    1.63422   1.59914   -1.000
 4672.00    1.65265   1.63569   -1.000
 4673.00    1.64505   1.64720  231.093
 4674.00    1.63083   1.65130   -1.000
 4675.00    1.65160   1.66194  229.542
 4676.00    1.69773   1.67594   -1.000
 4677.00    1.70780   1.67719   -1.000
 4678.00    1.67727   1.65599   -1.000
 4679.00    1.61394   1.62141  223.941
 4680.00    1.58483   1.58997  228.604
 4681.00    1.58013   1.57392  233.179
 4682.00    1.58942   1.57799   -1.000
 4683.00    1.62748   1.59872   -1.000
 4684.00    1.66657   1.62349   -1.000
 4685.00    1.68459   1.63889   -1.000
 4686.00    1.66750   1.64140   -1.000
 4687.00    1.65459   1.63541   -1.000
 4688.00    1.65244   1.62811   -1.000
 4689.00    1.64952   1.62366   -1.000
 4690.00    1.65314   1.62217   -1.000
 4691.00    1.65146   1.62158   -1.000
 4692.00    1.65301   1.62346   -1.000
 4693.00    1.67552   1.63309   -1.000
 4694.00    1.70998   1.65131   -1.000
 4695.00    1.73584   1.67099   -1.000
 4696.00    1.75031   1.68002   -1.000
 4697.00    1.71065   1.66741   -1.000
 4698.00    1.65383   1.63417   -1.000
 4699.00    1.61538   1.59622   -1.000
 4700.00    1.61264   1.56919   -1.000
 4701.00    1.60562   1.55384   -1.000
 4702.00    1.59202   1.54640   -1.000
 4703.00    1.56641   1.54924   -1.000
 4704.00    1.60349   1.56567   -1.000
 4705.00    1.64334   1.58676   -1.000
 4706.00    1.64607   1.59501   -1.000
 4707.00    1.60396   1.58494   -1.000
 4708.00    1.58754   1.57084   -1.000
 4709.00    1.57984   1.57135   -1.000
 4710.00    1.59832   1.59133  242.278
 4711.00    1.65586   1.61868   -1.000
 4712.00    1.69490   1.63622   -1.000
 4713.00    1.69728   1.63548   -1.000
 4714.00    1.66536   1.62536   -1.000
 4715.00    1.64699   1.62725   -1.000
 4716.00    1.67672   1.65317   -1.000
 4717.00    1.71007   1.69455   -1.000
 4718.00    1.73816   1.73421  227.629
 4719.00    1.74586   1.76206  223.206
 4720.00    1.76001   1.77661  221.586
 4721.00    1.75730   1.77800   -1.000
 4722.00    1.74723   1.77074   -1.000
 4723.00    1.73352   1.76644   -1.000
 4724.00    1.76346   1.77026  223.294
 4725.00    1.76928   1.76781  222.232
 4726.00    1.72927   1.74008  219.892
 4727.00    1.66570   1.68427  219.984
 4728.00    1.59424   1.62106   -1.000
 4729.00    1.55824   1.58014   -1.000
 4730.00    1.59014   1.57419   -1.000
 4731.00    1.62913   1.59632   -1.000
 4732.00    1.63177   1.62977  236.148
 4733.00    1.64620   1.66091  234.233
 4734.00    1.68528   1.68089  231.497
 4735.00    1.71387   1.68670   -1.000
 4736.00    1.70000   1.68588   -1.000
 4737.00    1.68023   1.68896  226.784
 4738.00    1.70204   1.70094  228.883
 4739.00    1.73345   1.71709   -1.000
 4740.00    1.72512   1.72672  226.715
 4741.00    1.70836   1.72736   -1.000
 4742.00    1.71273   1.72834  227.736
 4743.00    1.72414   1.73438  228.142
 4744.00    1.73627   1.74205  226.505
 4745.00    1.74676   1.75104  224.072
 4746.00    1.74860   1.76366  224.241
 4747.00    1.75351   1.77902   -1.000
 4748.00    1.76519   1.79332   -1.000
 4749.00    1.75199   1.80356   -1.000
 4750.00    1.75509   1.80850   -1.000
 4751.00    1.76392   1.80465   -1.000
 4752.00    1.73643   1.78827   -1.000
 4753.00    1.72234   1.76302   -1.000
 4754.00    1.69569   1.73857   -1.000
 4755.00    1.69433   1.72422   -1.000
 4756.00    1.69416   1.72257   -1.000
 4757.00    1.68678   1.73065   -1.000
 4758.00    1.70215   1.74607   -1.000
 4759.00    1.71659   1.76413   -1.000
 4760.00    1.72078   1.77370   -1.000
 4761.00    1.70125   1.76279   -1.000
 4762.00    1.64989   1.72982   -1.000
 4763.00    1.61673   1.68771   -1.000
 4764.00    1.60985   1.65347   -1.000
 4765.00    1.59204   1.63191   -1.000
 4766.00    1.59275   1.62139   -1.000
 4767.00    1.61810   1.62989  240.655
 4768.00    1.67392   1.66764   27.963
 4769.00    1.70827   1.72177   23.594
 4770.00    1.71948   1.76242   23.078
 4771.00    1.71434   1.77294   22.734
 4772.00    1.70159   1.76625   22.734
 4773.00    1.71845   1.76977   22.913
 4774.00    1.73249   1.79361   23.117
 4775.00    1.75799   1.82609   22.902
 4776.00    1.77648   1.85009   22.432
 4777.00    1.77488   1.86084   22.239
 4778.00    1.77074   1.86266   22.241
 4779.00    1.74421   1.85598   22.302
 4780.00    1.71538   1.84044   22.439
 4781.00    1.70558   1.82065   22.681
 4782.00    1.70493   1.79842   22.830
 4783.00    1.69281   1.77349   22.895
 4784.00    1.69564   1.75413   23.000
 4785.00    1.70293   1.74557   23.178
 4786.00    1.68924   1.74170   23.192
 4787.00    1.67330   1.73788   23.258
 4788.00    1.67229   1.73599   23.473
 4789.00    1.68403   1.73729   23.622
 4790.00    1.69555   1.74245   23.616
 4791.00    1.71457   1.75703   23.510
 4792.00    1.73744   1.78865   23.367
 4793.00    1.76303   1.83557   23.135
 4794.00    1.80798   1.88581   22.771
 4795.00    1.83437   1.92300   22.278
 4796.00    1.82525   1.93217   21.880
 4797.00    1.79319   1.90866   21.764
 4798.00    1.74281   1.86521   21.949
 4799.00    1.72116   1.82411   22.367
 4800.00    1.73028   1.80441   22.793
 4801.00    1.75402   1.81596   23.084
 4802.00    1.78437   1.85129   22.940
 4803.00    1.78499   1.88420   22.504
 4804.00    1.76813   1.88916   22.162
 4805.00    1.74301   1.86561   22.151
 4806.00    1.72986   1.83253   22.416
 4807.00    1.73290   1.80752   22.708
 4808.00    1.73065   1.79753   22.925
 4809.00    1.73567   1.80370   22.947
 4810.00    1.76271   1.82217   22.894
 4811.00    1.76707   1.84290   22.796
 4812.00    1.77090   1.85560   22.603
 4813.00    1.78640   1.85976   22.434
 4814.00    1.80548   1.86390   22.314
 4815.00    1.79829   1.87407   22.280
 4816.00    1.81289   1.89067   22.230
 4817.00    1.81788   1.91116   22.154
 4818.00    1.83153   1.93130   22.022
 4819.00    1.84875   1.94669   21.884
 4820.00    1.84069   1.95112   21.789
 4821.00    1.81593   1.93676   21.771
 4822.00    1.78326   1.90051   21.771
 4823.00    1.73991   1.85195   21.937
 4824.00    1.73784   1.81332   22.465
 4825.00    1.76376   1.80734   22.921
 4826.00    1.80670   1.83205   22.944
 4827.00    1.80818   1.85699   22.583
 4828.00    1.79163   1.86108   22.224
 4829.00    1.77436   1.85098   22.255
 4830.00    1.76047   1.83885   22.498
 4831.00    1.74673   1.82443   22.658
 4832.00    1.74706   1.80854   22.672
 4833.00    1.75569   1.80456   22.850
 4834.00    1.79118   1.82065   22.916
 4835.00    1.80912   1.84806   22.605
 4836.00    1.80536   1.86870   22.292
 4837.00    1.79291   1.87216   22.179
 4838.00    1.78120   1.85843   22.200
 4839.00    1.74384   1.83233   22.297
 4840.00    1.71183   1.80603   22.574
 4841.00    1.72683   1.79180   22.967
 4842.00    1.75603   1.79040   23.041
 4843.00    1.77290   1.79593   22.998
 4844.00    1.79906   1.80948   22.892
 4845.00    1.81706   1.83504   22.728
 4846.00    1.81937   1.86265   22.509
 4847.00    1.80880   1.87174   22.174
 4848.00    1.77831   1.85523   22.023
 4849.00    1.76488   1.83342   22.386
 4850.00    1.78702   1.82931   22.745
 4851.00    1.80527   1.84112   22.795
 4852.00    1.79682   1.84928   22.520
 4853.00    1.78004   1.83467   22.423
 4854.00    1.73265   1.79193   22.525
 4855.00    1.69328   1.73564   22.709
 4856.00    1.67446   1.69391   23.312
 4857.00    1.68160   1.67903   23.986
 4858.00    1.66367   1.66575   24.049
 4859.00    1.58146   1.61072   23.827
 4860.00    1.43638   1.50082   24.331
 4861.00    1.33310   1.38875   26.196
 4862.00    1.35573   1.34680   29.163
 4863.00    1.47397   1.39868   30.935
 4864.00    1.58704   1.50180   29.556
 4865.00    1.64040   1.60255   27.021
 4866.00    1.68109   1.67792   25.292
 4867.00    1.70044   1.72728   24.306
 4868.00    1.71851   1.75322   23.740
 4869.00    1.71183   1.75160   23.479
 4870.00    1.67399   1.71673   23.361
 4871.00    1.62216   1.65956   23.514
 4872.00    1.59948   1.61489   24.103
 4873.00    1.64154   1.62154   24.715
 4874.00    1.69298   1.67521   24.643
 4875.00    1.70547   1.73430   24.013
 4876.00    1.72913   1.77350   23.546
 4877.00    1.74627   1.79903   23.327
 4878.00    1.76016   1.82602   23.193
 4879.00    1.78305   1.85583   23.107
 4880.00    1.77517   1.87579   22.815
 4881.00    1.75141   1.87266   22.554
 4882.00    1.73392   1.85085   22.677
 4883.00    1.74752   1.82943   23.027
 4884.00    1.74157   1.81172   23.210
 4885.00    1.70945   1.78444   23.167
 4886.00    1.68440   1.75079   23.253
 4887.00    1.68511   1.73040   23.574
 4888.00    1.69510   1.72583   23.746
 4889.00    1.67909   1.71604   23.662
 4890.00    1.64817   1.68661   23.610
 4891.00    1.62153   1.65751   23.891
 4892.00    1.66982   1.67137   24.395
 4893.00    1.77735   1.74720   24.364
 4894.00    1.86278   1.86179   23.525
 4895.00    1.91289   1.96205   22.447
 4896.00    1.92587   2.01478   21.714
 4897.00    1.92190   2.02562   21.266
 4898.00    1.90443   2.01116   21.110
 4899.00    1.86377   1.98301   21.131
 4900.00    1.83281   1.95223   21.513
 4901.00    1.83087   1.92877   22.020
 4902.00    1.82340   1.91228   22.317
 4903.00    1.80747   1.89874   22.273
 4904.00    1.81382   1.89505   22.274
 4905.00    1.84769   1.91504   22.505
 4906.00    1.88616   1.95245   22.362
 4907.00    1.88931   1.97129   21.921
 4908.00    1.85654   1.94619   21.691
 4909.00    1.79014   1.88795   21.822
 4910.00    1.76138   1.82889   22.290
 4911.00    1.78038   1.80047   22.919
 4912.00    1.77834   1.81459   23.287
 4913.00    1.82162   1.85910   23.094
 4914.00    1.86108   1.91047   22.692
 4915.00    1.87947   1.95025   22.360
 4916.00    1.89060   1.96149   22.067
 4917.00    1.84316   1.92166   21.853
 4918.00    1.73406   1.82157   21.898
 4919.00    1.63050   1.69379   22.533
 4920.00    1.59082   1.59665   23.686
 4921.00    1.62627   1.57517   24.861
 4922.00    1.69713   1.62551   25.331
 4923.00    1.74652   1.70221   24.719
 4924.00    1.76711   1.76046   23.830
 4925.00    1.77492   1.79688   23.371
 4926.00    1.82103   1.83758   23.287
 4927.00    1.86017   1.89195   23.049
 4928.00    1.88670   1.94796   22.504
 4929.00    1.92001   1.99385   22.061
 4930.00    1.93459   2.02178   21.817
 4931.00    1.91480   2.02168   21.657
 4932.00    1.88372   1.98816   21.523
 4933.00    1.84056   1.93305   21.664
 4934.00    1.81485   1.88554   22.179
 4935.00    1.81462   1.86691   22.950
 4936.00    1.80996   1.86318   23.174
 4937.00    1.77986   1.83957   22.848
 4938.00    1.72551   1.78812   22.745
 4939.00    1.71162   1.74830   23.273
 4940.00    1.76541   1.76526   23.934
 4941.00    1.83896   1.83702   23.910
 4942.00    1.89939   1.92234   23.212
 4943.00    1.93691   1.98256   22.452
 4944.00    1.95175   2.00728   21.973
 4945.00    1.93858   2.00588   21.730
 4946.00    1.90849   1.99524   21.701
 4947.00    1.91119   1.99329   21.829
 4948.00    1.94538   2.00773   21.901
 4949.00    1.95037   2.02970   21.755
 4950.00    1.95036   2.04579   21.507
 4951.00    1.96702   2.05140   21.401
 4952.00    1.96139   2.04590   21.317
 4953.00    1.93997   2.03045   21.384
 4954.00    1.91217   2.00419   21.526
 4955.00    1.87193   1.95517   21.753
 4956.00    1.78275   1.86894   22.022
 4957.00    1.70056   1.76090   22.540
 4958.00    1.69626   1.69782   23.583
 4959.00    1.76809   1.73214   24.604
 4960.00    1.86109   1.83520   24.435
 4961.00    1.91518   1.93512   23.214
 4962.00    1.91246   1.98537   22.290
 4963.00    1.91080   1.98864   21.988
 4964.00    1.88675   1.96267   22.034
 4965.00    1.85768   1.91826   22.196
 4966.00    1.83018   1.87229   22.441
 4967.00    1.80191   1.84421   22.871
 4968.00    1.79949   1.83928   23.214
 4969.00    1.81454   1.85120   23.286
 4970.00    1.83608   1.87366   23.232
 4971.00    1.86594   1.90398   23.083
 4972.00    1.88409   1.94010   22.852
 4973.00    1.90051   1.97363   22.607
 4974.00    1.91666   1.99433   22.342
 4975.00    1.92463   1.99820   22.118
 4976.00    1.91090   1.98565   22.001
 4977.00    1.87729   1.95802   22.099
 4978.00    1.84328   1.92133   22.316
 4979.00    1.81357   1.88478   22.604
 4980.00    1.78572   1.84990   22.960
 4981.00    1.74699   1.80431   23.265
 4982.00    1.69428   1.74022   23.584
 4983.00    1.66319   1.67776   24.256
 4984.00    1.68509   1.65294   25.053
 4985.00    1.73233   1.68167   25.247
 4986.00    1.78605   1.75104   24.876
 4987.00    1.84689   1.83034   24.227
 4988.00    1.87757   1.88968   23.475
 4989.00    1.87265   1.91073   22.854
 4990.00    1.85038   1.90036   22.734
 4991.00    1.83238   1.88474   22.999
 4992.00    1.84200   1.88218   23.264
 4993.00    1.85667   1.89133   23.329
 4994.00    1.86246   1.90170   23.170
 4995.00    1.85659   1.91065   23.044
 4996.00    1.86524   1.92250   23.014
 4997.00    1.87744   1.92895   22.921
 4998.00    1.85600   1.91234   22.805
 4999.00    1.81425   1.86997   22.882
 5000.00    1.78911   1.81756   23.150
 5001.00    1.78103   1.77846   23.582
 5002.00    1.79009   1.76470   23.924
 5003.00    1.80585   1.76606   24.009
 5004.00    1.80090   1.75836   23.839
 5005.00    1.75788   1.72822   23.662
 5006.00    1.71785   1.69266   23.879
 5007.00    1.73896   1.68858   24.428
 5008.00    1.81224   1.73405   24.689
 5009.00    1.85787   1.79978   24.261
 5010.00    1.84866   1.83952   23.550
 5011.00    1.81649   1.82888   23.181
 5012.00    1.75545   1.77522   23.350
 5013.00    1.69240   1.70782   23.957
 5014.00    1.67279   1.66310   24.816
 5015.00    1.70246   1.66076   25.488
 5016.00    1.73614   1.68573   25.542
 5017.00    1.76186   1.71021   25.079
 5018.00    1.77144   1.72304   24.542
 5019.00    1.77811   1.73473   24.336
 5020.00    1.78745   1.75284   24.317
 5021.00    1.79628   1.76621   24.112
 5022.00    1.78720   1.76928   23.893
 5023.00    1.78796   1.77657   23.923
 5024.00    1.82845   1.80178   23.992
 5025.00    1.85863   1.83583   23.902
 5026.00    1.84343   1.85249   23.677
 5027.00    1.83091   1.84221   23.493
 5028.00    1.82932   1.82817   23.537
 5029.00    1.84746   1.83697   23.653
 5030.00    1.88511   1.87315   23.520
 5031.00    1.92005   1.92272   23.131
 5032.00    1.95365   1.97064   22.772
 5033.00    1.96413   2.00194   22.414
 5034.00    1.93053   1.99749   22.128
 5035.00    1.86825   1.95192   22.090
 5036.00    1.81955   1.89000   22.624
 5037.00    1.79235   1.84341   23.487
 5038.00    1.76706   1.81207   24.022
 5039.00    1.73475   1.76781   24.184
 5040.00    1.66553   1.69750   24.424
 5041.00    1.61508   1.63603   25.212
 5042.00    1.66841   1.63885   26.240
 5043.00    1.78782   1.72198   26.531
 5044.00    1.87105   1.84960   25.564
 5045.00    1.98151   1.96297   24.057
 5046.00    1.72768   2.02251   -1.000
 5047.00    0.60481   2.01954   -1.000
 5048.00    0.10101   1.96729   -1.000
 5049.00    0.19508   1.89413   -1.000
 5050.00    1.19281   1.83579   -1.000
 5051.00    1.76339   1.81310   15.919
 5052.00    1.85835   1.82323   27.043
 5053.00    1.89578   1.85901   23.687
 5054.00    1.94525   1.91156   23.428
 5055.00    1.97289   1.96066   22.848
 5056.00    1.99088   1.99222   22.389
 5057.00    1.98667   2.00916   22.125
 5058.00    1.97636   2.02103   22.019
 5059.00    1.99162   2.03724   22.031
 5060.00    2.00840   2.05958   22.073
 5061.00    2.01423   2.08035   22.077
 5062.00    2.00925   2.08308   21.964
 5063.00    1.96148   2.04893   21.931
 5064.00    1.90229   1.97983   22.152
 5065.00    1.86874   1.90733   22.707
 5066.00    1.85530   1.86519   23.482
 5067.00    1.87446   1.85888   23.910
 5068.00    1.88888   1.87234   23.765
 5069.00    1.90342   1.89205   23.418
 5070.00    1.92541   1.91190   23.266
 5071.00    1.92000   1.92176   23.169
 5072.00    1.90127   1.91478   23.027
 5073.00    1.90021   1.90242   23.120
 5074.00    1.91827   1.90277   23.309
 5075.00    1.93645   1.91569   23.149
 5076.00    1.93303   1.92755   22.934
 5077.00    1.92020   1.92437   22.864
 5078.00    1.87540   1.89185   22.844
 5079.00    1.80126   1.82675   23.001
 5080.00    1.76249   1.75776   23.645
 5081.00    1.76890   1.72832   24.697
 5082.00    1.80100   1.74639   25.236
 5083.00    1.83080   1.78714   24.917
 5084.00    1.86528   1.82991   24.377
 5085.00    1.91373   1.87076   23.997
 5086.00    1.94694   1.90891   23.581
 5087.00    1.94362   1.93866   23.164
 5088.00    1.94370   1.95716   22.935
 5089.00    1.96059   1.96918   22.869
 5090.00    1.97681   1.98065   22.779
 5091.00    1.99417   1.99678   22.627
 5092.00    2.02621   2.02101   22.490
 5093.00    2.03530   2.04786   22.372
 5094.00    2.03112   2.05939   22.153
 5095.00    1.99136   2.03843   21.937
 5096.00    1.94840   1.98610   22.026
 5097.00    1.89508   1.91751   22.418
 5098.00    1.85144   1.85161   22.902
 5099.00    1.83429   1.81257   23.441
 5100.00    1.86628   1.82236   23.956
 5101.00    1.92824   1.87490   24.152
 5102.00    1.96157   1.93542   23.739
 5103.00    1.96745   1.96707   23.071
 5104.00    1.95611   1.96291   22.735
 5105.00    1.93212   1.94033   22.780
 5106.00    1.88951   1.91267   23.038
 5107.00    1.86048   1.88395   23.335
 5108.00    1.86642   1.85745   23.624
 5109.00    1.86762   1.84061   23.918
 5110.00    1.88212   1.84338   23.978
 5111.00    1.91347   1.86930   23.853
 5112.00    1.94021   1.91122   23.685
 5113.00    1.96570   1.95209   23.392
 5114.00    1.99368   1.98189   23.089
 5115.00    2.01012   2.00612   22.808
 5116.00    2.02944   2.03185   22.582
 5117.00    2.04766   2.05698   22.438
 5118.00    2.04432   2.07205   22.236
 5119.00    2.02941   2.06797   22.034
 5120.00    2.00325   2.04244   22.027
 5121.00    1.96122   1.99968   22.255
 5122.00    1.92187   1.94481   22.581
 5123.00    1.88582   1.88532   22.945
 5124.00    1.85012   1.83522   23.474
 5125.00    1.84682   1.81064   24.156
 5126.00    1.86462   1.81391   24.491
 5127.00    1.86773   1.82814   24.377
 5128.00    1.86522   1.83764   24.224
 5129.00    1.85985   1.84448   24.089
 5130.00    1.87223   1.85954   24.071
 5131.00    1.91006   1.88668   24.068
 5132.00    1.93788   1.91764   23.838
 5133.00    1.95963   1.94337   23.455
 5134.00    1.98067   1.96407   23.201
 5135.00    1.99086   1.98009   22.993
 5136.00    1.99044   1.98090   22.785
 5137.00    1.94640   1.95184   22.684
 5138.00    1.90175   1.90143   22.956
 5139.00    1.88159   1.86321   23.480
 5140.00    1.88845   1.85430   23.916
 5141.00    1.89145   1.86035   24.050
 5142.00    1.88185   1.86210   23.902
 5143.00    1.86888   1.86049   23.958
 5144.00    1.88450   1.86830   24.292
 5145.00    1.90481   1.87864   24.314
 5146.00    1.89764   1.87148   23.975
 5147.00    1.89159   1.85213   23.791
 5148.00    1.90516   1.84458   23.928
 5149.00    1.91355   1.85629   24.042
 5150.00    1.91284   1.86997   23.849
 5151.00    1.89774   1.86798   23.661
 5152.00    1.87168   1.85364   23.828
 5153.00    1.85925   1.84167   24.229
 5154.00    1.88016   1.84489   24.477
 5155.00    1.91678   1.87122   24.434
 5156.00    1.97756   1.91944   24.064
 5157.00    2.03866   1.97442   23.492
 5158.00    2.06091   2.01720   22.892
 5159.00    2.06253   2.03966   22.418
 5160.00    2.06145   2.04326   22.178
 5161.00    2.04699   2.02965   22.130
 5162.00    2.02555   1.99763   22.183
 5163.00    1.99248   1.94532   22.295
 5164.00    1.93245   1.87502   22.510
 5165.00    1.81886   1.78083   22.832
 5166.00    1.65429   1.64776   23.544
 5167.00    1.51464   1.50255   25.164
 5168.00    1.47637   1.42118   27.644
 5169.00    1.54697   1.43937   -1.000
 5170.00    1.61386   1.49974   -1.000
 5171.00    1.58148   1.50634   28.580
 5172.00    1.46574   1.44266   27.792
 5173.00    1.42813   1.39720   28.910
 5174.00    1.57294   1.45379   -1.000
 5175.00    1.75529   1.60645   -1.000
 5176.00    1.88035   1.76553   -1.000
 5177.00    1.94108   1.86294   25.313
 5178.00    1.96388   1.90231   24.029
 5179.00    1.95277   1.90560   23.578
 5180.00    1.89607   1.87273   23.471
 5181.00    1.78594   1.78274   23.620
 5182.00    1.61685   1.62875   24.263
 5183.00    1.45324   1.46499   25.736
 5184.00    1.42638   1.38567   28.378
 5185.00    1.57689   1.45037   -1.000
 5186.00    1.77898   1.61619   -1.000
 5187.00    1.90566   1.78415   -1.000
 5188.00    1.96216   1.89095   25.142
 5189.00    1.97971   1.93536   23.937
 5190.00    1.97603   1.93480   23.579
 5191.00    1.92604   1.89352   23.456
 5192.00    1.86568   1.82805   23.600
 5193.00    1.85589   1.78357   24.198
 5194.00    1.89230   1.78718   -1.000
 5195.00    1.92206   1.81788   -1.000
 5196.00    1.95838   1.85342   -1.000
 5197.00    1.99666   1.89377   -1.000
 5198.00    2.01905   1.94048   23.884
 5199.00    2.04951   1.98551   23.444
 5200.00    2.07087   2.01546   23.020
 5201.00    2.06855   2.02133   22.768
 5202.00    2.04560   2.00085   22.698
 5203.00    1.99759   1.95345   22.818
 5204.00    1.94278   1.87870   23.163
 5205.00    1.88948   1.79211   23.663
 5206.00    1.85124   1.72161   -1.000
 5207.00    1.85070   1.68476   -1.000
 5208.00    1.84980   1.67933   -1.000
 5209.00    1.83881   1.70021   -1.000
 5210.00    1.88284   1.75316   -1.000
 5211.00    1.97570   1.83909   -1.000
 5212.00    2.06058   1.93536   -1.000
 5213.00    2.10891   2.00688   23.824
 5214.00    2.10658   2.02633   22.879
 5215.00    2.07572   1.99708   22.271
 5216.00    2.03312   1.95446   22.295
 5217.00    2.02262   1.94153   22.747
 5218.00    2.06714   1.97437   23.116
 5219.00    2.11610   2.03256   23.072
 5220.00    2.13772   2.08503   22.661
 5221.00    2.14048   2.11238   22.264
 5222.00    2.13392   2.10603   22.042
 5223.00    2.09667   2.06170   21.931
 5224.00    2.01274   1.98088   22.094
 5225.00    1.91784   1.87527   22.649
 5226.00    1.85557   1.77542   23.512
 5227.00    1.86145   1.73005   -1.000
 5228.00    1.94063   1.77003   -1.000
 5229.00    2.04610   1.87524   -1.000
 5230.00    2.11773   1.98319   -1.000
 5231.00    2.13234   2.03303   22.996
 5232.00    2.10232   2.01571   22.422
 5233.00    2.06112   1.96903   22.277
 5234.00    2.03954   1.94261   22.574
 5235.00    2.07949   1.96441   -1.000
 5236.00    2.13596   2.02408   -1.000
 5237.00    2.17029   2.09128   22.723
 5238.00    2.19136   2.13843   22.177
 5239.00    2.18787   2.15626   21.835
 5240.00    2.19137   2.15407   21.746
 5241.00    2.20253   2.14468   21.791
 5242.00    2.19945   2.13813   21.790
 5243.00    2.20549   2.14191   21.688
 5244.00    2.21743   2.15292   21.666
 5245.00    2.19028   2.15047   21.651
 5246.00    2.12451   2.11491   21.611
 5247.00    2.06839   2.05532   21.886
 5248.00    2.05307   2.00287   22.502
 5249.00    2.06154   1.97575   23.094
 5250.00    2.06238   1.96865   23.310
 5251.00    2.06059   1.97583   23.347
 5252.00    2.07127   1.99673   23.461
 5253.00    2.08896   2.01862   23.441
 5254.00    2.09982   2.02727   23.181
 5255.00    2.11464   2.03182   22.915
 5256.00    2.15321   2.06062   22.843
 5257.00    2.20950   2.12320   22.741
 5258.00    2.26216   2.18738   22.328
 5259.00    2.26205   2.21411   21.743
 5260.00    2.20661   2.18686   21.415
 5261.00    2.12262   2.11024   21.491
 5262.00    2.02516   2.00134   21.956
 5263.00    1.93874   1.88525   22.784
 5264.00    1.87621   1.78594   23.837
 5265.00    1.84767   1.72254   -1.000
 5266.00    1.86391   1.70522   -1.000
 5267.00    1.89382   1.72021   -1.000
 5268.00    1.89247   1.72375   -1.000
 5269.00    1.83254   1.68869   -1.000
 5270.00    1.81177   1.65269   -1.000
 5271.00    1.89566   1.68194   -1.000
 5272.00    2.01399   1.78995   -1.000
 5273.00    2.07161   1.90395   -1.000
 5274.00    2.08135   1.95816   -1.000
 5275.00    2.09826   1.97416   -1.000
 5276.00    2.13067   2.00525   -1.000
 5277.00    2.19671   2.07201   -1.000
 5278.00    2.26418   2.14693   -1.000
 5279.00    2.27021   2.18464   22.023
 5280.00    2.22574   2.16738   21.486
 5281.00    2.16690   2.11162   21.439
 5282.00    2.12109   2.04680   21.832
 5283.00    2.09782   2.00241   22.397
 5284.00    2.11716   2.00716   -1.000
 5285.00    2.22622   2.07142   -1.000
 5286.00    2.31882   2.16866   -1.000
 5287.00    2.32132   2.24607   22.180
 5288.00    2.30773   2.27835   21.483
 5289.00    2.31439   2.28444   21.139
 5290.00    2.32780   2.28970   21.169
 5291.00    2.32994   2.29834   21.213
 5292.00    2.32486   2.29716   21.128
 5293.00    2.31794   2.28088   21.052
 5294.00    2.29748   2.25479   21.118
 5295.00    2.24782   2.21206   21.296
 5296.00    2.16844   2.13836   21.552
 5297.00    2.09468   2.04690   22.031
 5298.00    2.06214   1.98169   22.798
 5299.00    2.09441   1.97896   -1.000
 5300.00    2.15731   2.02520   -1.000
 5301.00    2.18994   2.07847   -1.000
 5302.00    2.21100   2.12210   22.677
 5303.00    2.25778   2.17059   22.437
 5304.00    2.31538   2.23310   22.216
 5305.00    2.34774   2.28867   21.728
 5306.00    2.34475   2.30965   21.253
 5307.00    2.32222   2.30114   21.082
 5308.00    2.30990   2.29187   21.203
 5309.00    2.33479   2.30165   21.403
 5310.00    2.35987   2.32384   21.379
 5311.00    2.37512   2.33586   21.176
 5312.00    2.36488   2.32820   21.007
 5313.00    2.34281   2.30773   20.974
 5314.00    2.34448   2.28240   21.061
 5315.00    2.33546   2.25587   21.165
 5316.00    2.31194   2.23046   21.295
 5317.00    2.30579   2.21404   21.488
 5318.00    2.30228   2.21477   21.688
 5319.00    2.30453   2.22672   21.762
 5320.00    2.30620   2.23608   21.657
 5321.00    2.30164   2.23361   21.535
 5322.00    2.27777   2.21292   21.554
 5323.00    2.23897   2.17056   21.684
 5324.00    2.20544   2.11779   21.903
 5325.00    2.18957   2.06786   -1.000
 5326.00    2.13432   2.00854   -1.000
 5327.00    2.02957   1.91966   -1.000
 5328.00    1.93755   1.82697   -1.000
 5329.00    1.94562   1.80015   -1.000
 5330.00    2.07316   1.87978   -1.000
 5331.00    2.20085   2.01331   -1.000
 5332.00    2.25014   2.11916   -1.000
 5333.00    2.27149   2.17518   22.531
 5334.00    2.30922   2.20937   22.131
 5335.00    2.33310   2.24511   21.925
 5336.00    2.32553   2.27270   21.686
 5337.00    2.30667   2.27297   21.532
 5338.00    2.28648   2.24052   21.588
 5339.00    2.24783   2.17916   21.735
 5340.00    2.18679   2.10803   21.936
 5341.00    2.16390   2.06760   22.375
 5342.00    2.21341   2.08717   -1.000
 5343.00    2.28501   2.14422   -1.000
 5344.00    2.31677   2.19084   -1.000
 5345.00    2.30548   2.20306   21.903
 5346.00    2.28948   2.18938   21.761
 5347.00    2.26683   2.16733   21.861
 5348.00    2.25402   2.14600   -1.000
 5349.00    2.24929   2.13409   -1.000
 5350.00    2.26117   2.14789   -1.000
 5351.00    2.30240   2.19213   -1.000
 5352.00    2.34914   2.24940   22.202
 5353.00    2.37474   2.29830   21.738
 5354.00    2.38995   2.33406   21.374
 5355.00    2.40734   2.36610   21.238
 5356.00    2.42713   2.39430   21.114
 5357.00    2.44488   2.40880   20.880
 5358.00    2.44789   2.40874   20.678
 5359.00    2.44185   2.39888   20.634
 5360.00    2.42330   2.37829   20.666
 5361.00    2.38165   2.34606   20.725
 5362.00    2.34576   2.30900   20.905
 5363.00    2.32318   2.27475   21.221
 5364.00    2.30598   2.24513   21.553
 5365.00    2.29027   2.22012   21.766
 5366.00    2.28006   2.20236   21.898
 5367.00    2.28038   2.19387   22.027
 5368.00    2.26848   2.17949   22.037
 5369.00    2.23047   2.13382   22.003
 5370.00    2.16707   2.06035   22.142
 5371.00    2.13484   2.00056   -1.000
 5372.00    2.18256   2.00446   -1.000
 5373.00    2.27951   2.08325   -1.000
 5374.00    2.36658   2.19367   -1.000
 5375.00    2.40533   2.27972   -1.000
 5376.00    2.40904   2.31553   21.283
 5377.00    2.40597   2.31677   21.000
 5378.00    2.40664   2.31234   20.989
 5379.00    2.40250   2.31263   21.025
 5380.00    2.37477   2.30898   21.051
 5381.00    2.35237   2.29157   21.143
 5382.00    2.35807   2.26620   21.322
 5383.00    2.35455   2.24878   21.535
 5384.00    2.35018   2.25044   21.682
 5385.00    2.36886   2.26980   21.711
 5386.00    2.39270   2.29322   21.639
 5387.00    2.39089   2.30159   21.454
 5388.00    2.35772   2.28349   21.333
 5389.00    2.31844   2.24426   21.382
 5390.00    2.29234   2.19919   21.551
 5391.00    2.27274   2.16402   -1.000
 5392.00    2.26726   2.14666   -1.000
 5393.00    2.27400   2.14396   -1.000
 5394.00    2.26465   2.14395   -1.000
 5395.00    2.24296   2.13026   -1.000
 5396.00    2.20912   2.09567   -1.000
 5397.00    2.18508   2.05880   -1.000
 5398.00    2.21323   2.05460   -1.000
 5399.00    2.27237   2.09576   -1.000
 5400.00    2.30936   2.15645   -1.000
 5401.00    2.31733   2.20061   -1.000
 5402.00    2.30712   2.20936   21.886
 5403.00    2.26944   2.17520   21.876
 5404.00    2.19496   2.09902   22.002
 5405.00    2.12670   2.00836   -1.000
 5406.00    2.12125   1.96020   -1.000
 5407.00    2.16596   1.98151   -1.000
 5408.00    2.20544   2.03341   -1.000
 5409.00    2.21333   2.06681   -1.000
 5410.00    2.21449   2.07660   -1.000
 5411.00    2.25224   2.10070   -1.000
 5412.00    2.32093   2.15879   -1.000
 5413.00    2.36752   2.22016   -1.000
 5414.00    2.36342   2.25607   -1.000
 5415.00    2.34944   2.27326   21.689
 5416.00    2.36729   2.29430   21.615
 5417.00    2.39111   2.32334   21.635
 5418.00    2.38931   2.33915   21.541
 5419.00    2.36894   2.32874   21.388
 5420.00    2.34758   2.30439   21.386
 5421.00    2.34561   2.28486   21.558
 5422.00    2.35164   2.27422   21.726
 5423.00    2.33530   2.26123   21.722
 5424.00    2.31682   2.24599   21.627
 5425.00    2.32286   2.25217   21.771
 5426.00    2.35774   2.28926   22.030
 5427.00    2.38899   2.32418   21.966
 5428.00    2.35570   2.30687   21.633
 5429.00    2.27760   2.23224   21.519
 5430.00    2.24230   2.15974   21.915
 5431.00    2.26510   2.13919   -1.000
 5432.00    2.28123   2.15657   -1.000
 5433.00    2.26207   2.16258   22.668
 5434.00    2.23938   2.13702   22.478
 5435.00    2.23931   2.11291   -1.000
 5436.00    2.26347   2.12812   -1.000
 5437.00    2.31563   2.18877   -1.000
 5438.00    2.38403   2.27348   -1.000
 5439.00    2.44361   2.35201   22.146
 5440.00    2.47326   2.40408   21.616
 5441.00    2.48541   2.42805   21.259
 5442.00    2.48297   2.43364   21.039
 5443.00    2.45501   2.42196   20.950
 5444.00    2.40146   2.37967   20.940
 5445.00    2.31687   2.29771   21.070
 5446.00    2.23381   2.19595   21.500
 5447.00    2.20752   2.12759   22.271
 5448.00    2.25731   2.13269   -1.000
 5449.00    2.33421   2.20188   -1.000
 5450.00    2.39101   2.28159   -1.000
 5451.00    2.41227   2.32214   22.059
 5452.00    2.39507   2.31762   21.686
 5453.00    2.35874   2.27880   21.618
 5454.00    2.28774   2.21211   21.734
 5455.00    2.22081   2.14106   22.113
 5456.00    2.23547   2.11052   -1.000
 5457.00    2.30391   2.15164   -1.000
 5458.00    2.37180   2.24287   -1.000
 5459.00    2.41115   2.31816   22.637
 5460.00    2.40108   2.33489   21.933
 5461.00    2.36030   2.30012   21.618
 5462.00    2.31487   2.24584   21.732
 5463.00    2.29634   2.20688   22.093
 5464.00    2.32466   2.20377   -1.000
 5465.00    2.36014   2.23140   -1.000
 5466.00    2.37567   2.26731   -1.000
 5467.00    2.38205   2.29463   22.236
 5468.00    2.39262   2.30856   22.068
 5469.00    2.39647   2.30854   21.888
 5470.00    2.38563   2.29597   21.725
 5471.00    2.37329   2.27670   21.811
 5472.00    2.36702   2.25823   -1.000
 5473.00    2.35355   2.24126   -1.000
 5474.00    2.31937   2.21520   -1.000
 5475.00    2.27372   2.17040   -1.000
 5476.00    2.23344   2.11703   -1.000
 5477.00    2.22262   2.08848   -1.000
 5478.00    2.26551   2.11430   -1.000
 5479.00    2.32655   2.17257   -1.000
 5480.00    2.33471   2.20845   -1.000
 5481.00    2.29664   2.20070   22.512
 5482.00    2.28888   2.18153   -1.000
 5483.00    2.32855   2.19882   -1.000
 5484.00    2.37610   2.25572   -1.000
 5485.00    2.41365   2.31050   -1.000
 5486.00    2.41285   2.32611   22.087
 5487.00    2.36975   2.30022   21.781
 5488.00    2.33107   2.26353   21.830
 5489.00    2.32731   2.24828   22.119
 5490.00    2.35183   2.26275   22.334
 5491.00    2.37404   2.28759   22.383
 5492.00    2.39113   2.30123   22.290
 5493.00    2.40098   2.30107   22.122
 5494.00    2.40071   2.29662   -1.000
 5495.00    2.40503   2.29500   -1.000
 5496.00    2.39735   2.29173   -1.000
 5497.00    2.38350   2.28444   22.034
 5498.00    2.39572   2.28594   -1.000
 5499.00    2.42504   2.30128   -1.000
 5500.00    2.43127   2.31089   -1.000
 5501.00    2.40471   2.29481   -1.000
 5502.00    2.37554   2.26004   -1.000
 5503.00    2.37640   2.23602   -1.000
 5504.00    2.39139   2.23296   -1.000
 5505.00    2.37445   2.22991   -1.000
 5506.00    2.34201   2.21633   -1.000
 5507.00    2.34294   2.20952   -1.000
 5508.00    2.37303   2.22828   -1.000
 5509.00    2.39226   2.26304   -1.000
 5510.00    2.38450   2.27846   -1.000
 5511.00    2.35233   2.25509   22.200
 5512.00    2.30703   2.20928   22.253
 5513.00    2.28248   2.17178   -1.000
 5514.00    2.29769   2.16334   -1.000
 5515.00    2.34144   2.18282   -1.000
 5516.00    2.38817   2.21837   -1.000
 5517.00    2.42478   2.26242   -1.000
 5518.00    2.45418   2.31104   -1.000
 5519.00    2.47962   2.35579   -1.000
 5520.00    2.49153   2.38250   -1.000
 5521.00    2.49173   2.38644   -1.000
 5522.00    2.48456   2.38064   -1.000
 5523.00    2.47678   2.37688   21.540
 5524.00    2.46323   2.37184   21.601
 5525.00    2.42567   2.35169   21.657
 5526.00    2.37810   2.30555   21.743
 5527.00    2.32759   2.24040   21.969
 5528.00    2.29186   2.18484   -1.000
 5529.00    2.31151   2.17702   -1.000
 5530.00    2.37615   2.22363   -1.000
 5531.00    2.42052   2.28890   -1.000
 5532.00    2.44235   2.33064   -1.000
 5533.00    2.44176   2.33606   -1.000
 5534.00    2.42336   2.32173   -1.000
 5535.00    2.41457   2.30649   -1.000
 5536.00    2.40852   2.29975   -1.000
 5537.00    2.42108   2.30523   -1.000
 5538.00    2.44613   2.32141   -1.000
 5539.00    2.46888   2.34420   -1.000
 5540.00    2.48393   2.37045   -1.000
 5541.00    2.48818   2.39091   21.758
 5542.00    2.48131   2.39274   21.561
 5543.00    2.46153   2.37560   21.491
 5544.00    2.45020   2.35509   21.625
 5545.00    2.45336   2.34524   -1.000
 5546.00    2.46109   2.34859   -1.000
 5547.00    2.48304   2.36401   -1.000
 5548.00    2.51549   2.39151   -1.000
 5549.00    2.53758   2.42343   -1.000
 5550.00    2.54060   2.44549   21.630
 5551.00    2.53717   2.44939   21.430
 5552.00    2.53088   2.43498   21.322
 5553.00    2.49924   2.40771   21.367
 5554.00    2.46421   2.38054   21.529
 5555.00    2.47176   2.36680   -1.000
 5556.00    2.49434   2.36796   -1.000
 5557.00    2.50105   2.37412   -1.000
 5558.00    2.49239   2.37681   -1.000
 5559.00    2.48040   2.37772   -1.000
 5560.00    2.48149   2.37799   -1.000
 5561.00    2.47842   2.37012   -1.000
 5562.00    2.46670   2.35130   -1.000
 5563.00    2.45578   2.33180   -1.000
 5564.00    2.43357   2.32077   -1.000
 5565.00    2.41702   2.31542   -1.000
 5566.00    2.42058   2.30839   -1.000
 5567.00    2.42863   2.29918   -1.000
 5568.00    2.43331   2.29395   -1.000
 5569.00    2.42904   2.29661   -1.000
 5570.00    2.43318   2.30469   -1.000
 5571.00    2.43528   2.31123   -1.000
 5572.00    2.41657   2.30996   -1.000
 5573.00    2.40520   2.30347   -1.000
 5574.00    2.42376   2.30610   -1.000
 5575.00    2.41682   2.32858   22.421
 5576.00    2.27051   2.35575   22.239
 5577.00    1.88504   2.36872   -1.000
 5578.00    1.37910   2.37473   -1.000
 5579.00    1.46229   2.38451   -1.000
 5580.00    2.44971   2.39284   21.434
 5581.00    3.28875   2.39261   -1.000
 5582.00    3.19336   2.38345   -1.000
 5583.00    2.73721   2.37067   -1.000
 5584.00    2.52611   2.35290   -1.000
 5585.00    2.45369   2.31458   -1.000
 5586.00    2.37825   2.24834   -1.000
 5587.00    2.30583   2.17191   -1.000
 5588.00    2.27643   2.11942   -1.000
 5589.00    2.29013   2.11363   -1.000
 5590.00    2.32577   2.14664   -1.000
 5591.00    2.37275   2.19350   -1.000
 5592.00    2.39844   2.23022   -1.000
 5593.00    2.39539   2.25002   -1.000
 5594.00    2.39079   2.26670   -1.000
 5595.00    2.41258   2.29645   -1.000
 5596.00    2.45476   2.33382   -1.000
 5597.00    2.45493   2.35141   -1.000
 5598.00    2.41628   2.33193   22.377
 5599.00    2.38813   2.28682   -1.000
 5600.00    2.36659   2.24179   -1.000
 5601.00    2.34821   2.21103   -1.000
 5602.00    2.33974   2.19804   -1.000
 5603.00    2.35755   2.21546   -1.000
 5604.00    2.41960   2.27399   -1.000
 5605.00    2.49789   2.35536   -1.000
 5606.00    2.54853   2.42562   -1.000
 5607.00    2.56696   2.46535   -1.000
 5608.00    2.56275   2.47662   21.697
 5609.00    2.55927   2.47413   21.560
 5610.00    2.57155   2.47329   21.566
 5611.00    2.57429   2.48058   21.608
 5612.00    2.56933   2.48367   21.619
 5613.00    2.52867   2.45480   21.570
 5614.00    2.43339   2.37703   21.586
 5615.00    2.36488   2.27604   21.873
 5616.00    2.36184   2.21006   -1.000
 5617.00    2.40548   2.21440   -1.000
 5618.00    2.45598   2.26785   -1.000
 5619.00    2.47899   2.31785   -1.000
 5620.00    2.49393   2.34473   -1.000
 5621.00    2.50450   2.36444   -1.000
 5622.00    2.50233   2.37406   -1.000
 5623.00    2.47125   2.35231   -1.000
 5624.00    2.42366   2.30214   -1.000
 5625.00    2.41512   2.25807   -1.000
 5626.00    2.44586   2.25668   -1.000
 5627.00    2.48347   2.29788   -1.000
 5628.00    2.51390   2.35265   -1.000
 5629.00    2.54468   2.40106   -1.000
 5630.00    2.56896   2.43632   -1.000
 5631.00    2.57595   2.45341   -1.000
 5632.00    2.56295   2.45083   -1.000
 5633.00    2.54133   2.43358   -1.000
 5634.00    2.52554   2.40857   -1.000
 5635.00    2.51620   2.37998   -1.000
 5636.00    2.49623   2.35220   -1.000
 5637.00    2.47500   2.33242   -1.000
 5638.00    2.46683   2.32619   -1.000
 5639.00    2.46676   2.33036   -1.000
 5640.00    2.47366   2.33310   -1.000
 5641.00    2.46678   2.32585   -1.000
 5642.00    2.45422   2.31631   -1.000
 5643.00    2.46738   2.32001   -1.000
 5644.00    2.49266   2.33676   -1.000
 5645.00    2.50233   2.35533   -1.000
 5646.00    2.50035   2.37067   -1.000
 5647.00    2.50538   2.38064   -1.000
 5648.00    2.51869   2.38188   -1.000
 5649.00    2.51969   2.37637   -1.000
 5650.00    2.52032   2.37392   -1.000
 5651.00    2.53991   2.38405   -1.000
 5652.00    2.55346   2.40138   -1.000
 5653.00    2.54997   2.40568   -1.000
 5654.00    2.52849   2.38918   -1.000
 5655.00    2.50137   2.36493   -1.000
 5656.00    2.46569   2.33923   -1.000
 5657.00    2.41336   2.30251   -1.000
 5658.00    2.36758   2.25348   -1.000
 5659.00    2.36377   2.21802   -1.000
 5660.00    2.40756   2.22594   -1.000
 5661.00    2.43681   2.26230   -1.000
 5662.00    2.44559   2.28876   -1.000
 5663.00    2.45907   2.30541   -1.000
 5664.00    2.48580   2.33280   -1.000
 5665.00    2.52001   2.36511   -1.000
 5666.00    2.50912   2.38088   -1.000
 5667.00    2.48027   2.37324   -1.000
 5668.00    2.47139   2.35747   -1.000
 5669.00    2.48208   2.35299   -1.000
 5670.00    2.49471   2.36374   -1.000
 5671.00    2.51483   2.38612   -1.000
 5672.00    2.54938   2.41868   -1.000
 5673.00    2.57650   2.45300   -1.000
 5674.00    2.56853   2.47486   21.968
 5675.00    2.56696   2.48026   21.750
 5676.00    2.58074   2.47776   -1.000
 5677.00    2.58756   2.47670   -1.000
 5678.00    2.58769   2.47495   -1.000
 5679.00    2.57901   2.46358   -1.000
 5680.00    2.56886   2.44180   -1.000
 5681.00    2.54634   2.41293   -1.000
 5682.00    2.50730   2.37905   -1.000
 5683.00    2.48367   2.35246   -1.000
 5684.00    2.49211   2.34936   -1.000
 5685.00    2.50456   2.36213   -1.000
 5686.00    2.48779   2.36646   -1.000
 5687.00    2.46662   2.35571   -1.000
 5688.00    2.46648   2.34608   -1.000
 5689.00    2.48144   2.35575   -1.000
 5690.00    2.51506   2.38716   -1.000
 5691.00    2.54954   2.42749   -1.000
 5692.00    2.57781   2.46146   -1.000
 5693.00    2.60143   2.48011   -1.000
 5694.00    2.59809   2.48304   -1.000
 5695.00    2.58755   2.47686   -1.000
 5696.00    2.58752   2.46714   -1.000
 5697.00    2.57299   2.45197   -1.000
 5698.00    2.54535   2.42800   -1.000
 5699.00    2.51587   2.39841   -1.000
 5700.00    2.47634   2.36912   -1.000
 5701.00    2.45054   2.34465   -1.000
 5702.00    2.46032   2.33480   -1.000
 5703.00    2.48509   2.34722   -1.000
 5704.00    2.50850   2.36828   -1.000
 5705.00    2.49105   2.37335   -1.000
 5706.00    2.44204   2.34983   22.359
 5707.00    2.39196   2.30643   22.416
 5708.00    2.35641   2.26403   22.659
 5709.00    2.35077   2.23496   -1.000
 5710.00    2.35202   2.22357   -1.000
 5711.00    2.37223   2.23475   -1.000
 5712.00    2.41480   2.26981   -1.000
 5713.00    2.48179   2.32464   -1.000
 5714.00    2.54609   2.38461   -1.000
 5715.00    2.57238   2.43017   -1.000
 5716.00    2.57671   2.45672   -1.000
 5717.00    2.58505   2.47204   -1.000
 5718.00    2.59537   2.48358   -1.000
 5719.00    2.60782   2.49740   -1.000
 5720.00    2.62176   2.51641   -1.000
 5721.00    2.63156   2.53749   21.671
 5722.00    2.64998   2.55596   21.546
 5723.00    2.67407   2.56852   -1.000
 5724.00    2.67779   2.56985   -1.000
 5725.00    2.65133   2.55401   -1.000
 5726.00    2.60961   2.52337   21.414
 5727.00    2.58159   2.49426   21.532
 5728.00    2.59188   2.48652   -1.000
 5729.00    2.61095   2.49878   -1.000
 5730.00    2.60492   2.50674   -1.000
 5731.00    2.58863   2.49779   21.838
 5732.00    2.59261   2.48761   -1.000
 5733.00    2.61966   2.49794   -1.000
 5734.00    2.64300   2.52681   -1.000
 5735.00    2.65153   2.54929   -1.000
 5736.00    2.64639   2.55051   -1.000
 5737.00    2.64103   2.53806   -1.000
 5738.00    2.64360   2.52707   -1.000
 5739.00    2.63253   2.52544   -1.000
 5740.00    2.61877   2.52805   21.640
 5741.00    2.62698   2.52687   -1.000
 5742.00    2.62987   2.52167   -1.000
 5743.00    2.63385   2.52138   -1.000
 5744.00    2.65610   2.53433   -1.000
 5745.00    2.66366   2.55332   -1.000
 5746.00    2.65460   2.55876   -1.000
 5747.00    2.63521   2.54012   21.473
 5748.00    2.61796   2.51452   -1.000
 5749.00    2.61671   2.50934   -1.000
 5750.00    2.62466   2.52366   -1.000
 5751.00    2.62573   2.52811   -1.000
 5752.00    2.59084   2.49876   21.669
 5753.00    2.54100   2.44868   21.716
 5754.00    2.53079   2.41888   -1.000
 5755.00    2.57764   2.43660   -1.000
 5756.00    2.63536   2.49263   -1.000
 5757.00    2.67751   2.54933   -1.000
 5758.00    2.68782   2.57493   -1.000
 5759.00    2.65869   2.56232   -1.000
 5760.00    2.61031   2.51961   21.360
 5761.00    2.57527   2.46561   -1.000
 5762.00    2.55228   2.42687   -1.000
 5763.00    2.57041   2.42712   -1.000
 5764.00    2.61656   2.47157   -1.000
 5765.00    2.64595   2.53613   -1.000
 5766.00    2.66919   2.58562   21.912
 5767.00    2.67483   2.60760   21.566
 5768.00    2.68518   2.61028   21.400
 5769.00    2.69592   2.60256   21.368
 5770.00    2.67454   2.59001   21.342
 5771.00    2.64925   2.57582   21.339
 5772.00    2.64887   2.56038   21.402
 5773.00    2.63501   2.54505   21.495
 5774.00    2.61861   2.53506   21.625
 5775.00    2.61955   2.53519   21.725
 5776.00    2.62424   2.54605   21.760
 5777.00    2.62779   2.55832   21.754
 5778.00    2.60505   2.55292   21.675
 5779.00    2.56376   2.51619   21.599
 5780.00    2.49164   2.45207   21.625
 5781.00    2.39579   2.38304   21.806
 5782.00    2.34259   2.33729   22.221
 5783.00    2.33867   2.32536   22.645
 5784.00    2.38807   2.33049   22.776
 5785.00    2.45168   2.33829   -1.000
 5786.00    2.50106   2.36055   -1.000
 5787.00    2.55829   2.40613   -1.000
 5788.00    2.60367   2.45835   -1.000
 5789.00    2.61795   2.49290   -1.000
 5790.00    2.60433   2.50080   -1.000
 5791.00    2.59126   2.49508   -1.000
 5792.00    2.60411   2.49887   -1.000
 5793.00    2.64055   2.52481   -1.000
 5794.00    2.67067   2.56274   -1.000
 5795.00    2.66255   2.58890   21.597
 5796.00    2.63877   2.58721   21.461
 5797.00    2.61061   2.56326   21.381
 5798.00    2.59434   2.54445   21.436
 5799.00    2.60820   2.55703   21.579
 5800.00    2.63816   2.59976   21.614
 5801.00    2.68077   2.64306   21.419
 5802.00    2.70346   2.65818   21.125
 5803.00    2.68821   2.64057   20.935
 5804.00    2.66735   2.60414   21.000
 5805.00    2.66287   2.57060   21.187
 5806.00    2.65404   2.55648   -1.000
 5807.00    2.65642   2.56184   -1.000
 5808.00    2.66813   2.57598   21.523
 5809.00    2.69395   2.59108   -1.000
 5810.00    2.70644   2.60576   -1.000
 5811.00    2.70390   2.61758   21.339
 5812.00    2.69712   2.62076   21.334
 5813.00    2.71168   2.61074   -1.000
 5814.00    2.70544   2.58694   -1.000
 5815.00    2.68808   2.55577   -1.000
 5816.00    2.67973   2.53476   -1.000
 5817.00    2.68802   2.54301   -1.000
 5818.00    2.71669   2.58062   -1.000
 5819.00    2.75116   2.62553   -1.000
 5820.00    2.76244   2.65299   -1.000
 5821.00    2.75957   2.65555   -1.000
 5822.00    2.75636   2.64397   -1.000
 5823.00    2.75805   2.63278   -1.000
 5824.00    2.76322   2.63040   -1.000
 5825.00    2.76651   2.63512   -1.000
 5826.00    2.76288   2.64117   -1.000
 5827.00    2.76158   2.64583   -1.000
 5828.00    2.77401   2.65023   -1.000
 5829.00    2.77868   2.65620   -1.000
 5830.00    2.76596   2.66098   -1.000
 5831.00    2.74834   2.66038   20.964
 5832.00    2.73858   2.65381   20.934
 5833.00    2.74758   2.64216   -1.000
 5834.00    2.75107   2.62795   -1.000
 5835.00    2.74070   2.61741   -1.000
 5836.00    2.75050   2.61544   -1.000
 5837.00    2.75923   2.61817   -1.000
 5838.00    2.75330   2.62020   -1.000
 5839.00    2.76405   2.62632   -1.000
 5840.00    2.78405   2.64296   -1.000
 5841.00    2.79185   2.66575   -1.000
 5842.00    2.79252   2.68220   -1.000
 5843.00    2.78255   2.68303   -1.000
 5844.00    2.75957   2.66850   20.797
 5845.00    2.74373   2.64374   -1.000
 5846.00    2.72714   2.61504   -1.000
 5847.00    2.72043   2.59081   -1.000
 5848.00    2.72241   2.57903   -1.000
 5849.00    2.70530   2.57992   -1.000
 5850.00    2.70049   2.58195   -1.000
 5851.00    2.69709   2.57089   -1.000
 5852.00    2.67249   2.54573   -1.000
 5853.00    2.65113   2.52021   -1.000
 5854.00    2.65111   2.50706   -1.000
 5855.00    2.64907   2.50047   -1.000
 5856.00    2.63153   2.48060   -1.000
 5857.00    2.60279   2.44408   -1.000
 5858.00    2.59524   2.41650   -1.000
 5859.00    2.62758   2.42535   -1.000
 5860.00    2.66805   2.46698   -1.000
 5861.00    2.69456   2.51025   -1.000
 5862.00    2.69831   2.53375   -1.000
 5863.00    2.68029   2.54128   -1.000
 5864.00    2.67913   2.54376   -1.000
 5865.00    2.68901   2.54272   -1.000
 5866.00    2.68713   2.53336   -1.000
 5867.00    2.68578   2.52478   -1.000
 5868.00    2.70143   2.53535   -1.000
 5869.00    2.72937   2.56466   -1.000
 5870.00    2.75443   2.59317   -1.000
 5871.00    2.74971   2.60587   -1.000
 5872.00    2.73455   2.60201   -1.000
 5873.00    2.73938   2.59176   -1.000
 5874.00    2.73632   2.58608   -1.000
 5875.00    2.73403   2.58604   -1.000
 5876.00    2.72895   2.58252   -1.000
 5877.00    2.72257   2.56757   -1.000
 5878.00    2.71938   2.54287   -1.000
 5879.00    2.70049   2.51635   -1.000
 5880.00    2.68490   2.49737   -1.000
 5881.00    2.69087   2.49271   -1.000
 5882.00    2.69109   2.49882   -1.000
 5883.00    2.67214   2.50229   -1.000
 5884.00    2.66455   2.49701   -1.000
 5885.00    2.65051   2.48746   -1.000
 5886.00    2.61393   2.46138   -1.000
 5887.00    2.52257   2.38187   -1.000
 5888.00    2.32235   2.22187   -1.000
 5889.00    2.00969   2.00981   22.554
 5890.00    1.69414   1.83773   23.660
 5891.00    1.53723   1.79881   -1.000
 5892.00    1.61511   1.89410   -1.000
 5893.00    1.87628   2.01839   26.368
 5894.00    2.09361   2.06523   25.428
 5895.00    2.07182   2.02311   24.576
 5896.00    1.91051   1.97057   24.437
 5897.00    1.81580   2.00170   -1.000
 5898.00    1.91959   2.12149   -1.000
 5899.00    2.19210   2.25929   24.979
 5900.00    2.44437   2.36615   -1.000
 5901.00    2.57757   2.43611   -1.000
 5902.00    2.62281   2.47822   -1.000
 5903.00    2.62915   2.49960   -1.000
 5904.00    2.63542   2.50688   -1.000
 5905.00    2.65026   2.50614   -1.000
 5906.00    2.66083   2.50507   -1.000
 5907.00    2.67103   2.51153   -1.000
 5908.00    2.69494   2.52530   -1.000
 5909.00    2.71506   2.54008   -1.000
 5910.00    2.70896   2.55253   -1.000
 5911.00    2.68004   2.55884   -1.000
 5912.00    2.66556   2.55031   -1.000
 5913.00    2.64087   2.52086   -1.000
 5914.00    2.61506   2.47924   -1.000
 5915.00    2.60445   2.44938   -1.000
 5916.00    2.61179   2.44861   -1.000
 5917.00    2.63103   2.47198   -1.000
 5918.00    2.65758   2.50506   -1.000
 5919.00    2.67234   2.53490   -1.000
 5920.00    2.67449   2.55190   -1.000
 5921.00    2.66579   2.55411   -1.000
 5922.00    2.66351   2.54721   -1.000
 5923.00    2.65956   2.54275   -1.000
 5924.00    2.67151   2.55027   -1.000
 5925.00    2.68282   2.56748   -1.000
 5926.00    2.68050   2.58105   -1.000
 5927.00    2.67907   2.57786   -1.000
 5928.00    2.67326   2.55502   -1.000
 5929.00    2.66241   2.52528   -1.000
 5930.00    2.66573   2.50968   -1.000
 5931.00    2.69001   2.51894   -1.000
 5932.00    2.71981   2.54052   -1.000
 5933.00    2.71818   2.55032   -1.000
 5934.00    2.70065   2.54199   -1.000
 5935.00    2.68241   2.53363   -1.000
 5936.00    2.70076   2.54522   -1.000
 5937.00    2.73009   2.57161   -1.000
 5938.00    2.74485   2.59052   -1.000
 5939.00    2.73769   2.59088   -1.000
 5940.00    2.72341   2.57411   -1.000
 5941.00    2.70117   2.54842   -1.000
 5942.00    2.68780   2.53043   -1.000
 5943.00    2.68381   2.53379   -1.000
 5944.00    2.68847   2.55521   -1.000
 5945.00    2.69480   2.57843   -1.000
 5946.00    2.69811   2.58784   -1.000
 5947.00    2.68416   2.57592   -1.000
 5948.00    2.66276   2.55027   -1.000
 5949.00    2.65228   2.53191   -1.000
 5950.00    2.65610   2.53388   -1.000
 5951.00    2.66369   2.54390   -1.000
 5952.00    2.66044   2.54393   -1.000
 5953.00    2.65690   2.53568   -1.000
 5954.00    2.67265   2.53361   -1.000
 5955.00    2.69611   2.54019   -1.000
 5956.00    2.70723   2.54007   -1.000
 5957.00    2.69486   2.52974   -1.000
 5958.00    2.69295   2.52800   -1.000
 5959.00    2.71968   2.54697   -1.000
 5960.00    2.73300   2.57894   -1.000
 5961.00    2.73508   2.60846   -1.000
 5962.00    2.74683   2.62400   -1.000
 5963.00    2.75043   2.62384   -1.000
 5964.00    2.75240   2.61224   -1.000
 5965.00    2.74721   2.59613   -1.000
 5966.00    2.73510   2.58667   -1.000
 5967.00    2.74062   2.59221   -1.000
 5968.00    2.75104   2.60879   -1.000
 5969.00    2.75778   2.62651   -1.000
 5970.00    2.74939   2.64136   -1.000
 5971.00    2.75837   2.65209   -1.000
 5972.00    2.76890   2.65565   -1.000
 5973.00    2.75580   2.64918   -1.000
 5974.00    2.73035   2.63005   -1.000
 5975.00    2.71538   2.59811   -1.000
 5976.00    2.69359   2.56241   -1.000
 5977.00    2.68146   2.53847   -1.000
 5978.00    2.68343   2.53631   -1.000
 5979.00    2.69356   2.55477   -1.000
 5980.00    2.70611   2.58233   -1.000
 5981.00    2.72530   2.59846   -1.000
 5982.00    2.71797   2.58612   -1.000
 5983.00    2.69633   2.54756   -1.000
 5984.00    2.67314   2.50829   -1.000
 5985.00    2.66253   2.49717   -1.000
 5986.00    2.69708   2.51917   -1.000
 5987.00    2.72497   2.55225   -1.000
 5988.00    2.73681   2.57830   -1.000
 5989.00    2.74881   2.59560   -1.000
 5990.00    2.75363   2.60435   -1.000
 5991.00    2.75167   2.60690   -1.000
 5992.00    2.75557   2.61327   -1.000
 5993.00    2.77178   2.63096   -1.000
 5994.00    2.77981   2.65136   -1.000
 5995.00    2.76379   2.65459   -1.000
 5996.00    2.74733   2.63184   -1.000
 5997.00    2.72834   2.59684   -1.000
 5998.00    2.72387   2.57306   -1.000
 5999.00    2.72272   2.57289   -1.000
 6000.00    2.72988   2.58785   -1.000
 6001.00    2.74773   2.59853   -1.000
 6002.00    2.74358   2.59615   -1.000
 6003.00    2.72030   2.58844   -1.000
 6004.00    2.72158   2.58723   -1.000
 6005.00    2.71644   2.58710   -1.000
 6006.00    2.70872   2.57016   -1.000
 6007.00    2.68325   2.53759   -1.000
 6008.00    2.66991   2.51555   -1.000
 6009.00    2.69597   2.52829   -1.000
 6010.00    2.71791   2.56693   -1.000
 6011.00    2.71951   2.59413   -1.000
 6012.00    2.70462   2.58926   -1.000
 6013.00    2.70006   2.56722   -1.000
 6014.00    2.69530   2.55312   -1.000
 6015.00    2.69974   2.55368   -1.000
 6016.00    2.71184   2.55625   -1.000
 6017.00    2.71448   2.55512   -1.000
 6018.00    2.71210   2.55380   -1.000
 6019.00    2.70536   2.54768   -1.000
 6020.00    2.69112   2.53425   -1.000
 6021.00    2.68926   2.52593   -1.000
 6022.00    2.69615   2.53283   -1.000
 6023.00    2.70435   2.55168   -1.000
 6024.00    2.71924   2.57566   -1.000
 6025.00    2.73706   2.59958   -1.000
 6026.00    2.75431   2.62024   -1.000
 6027.00    2.76692   2.63702   -1.000
 6028.00    2.76768   2.65321   -1.000
 6029.00    2.78083   2.66994   -1.000
 6030.00    2.80734   2.68323   -1.000
 6031.00    2.81132   2.69205   -1.000
 6032.00    2.80888   2.70126   -1.000
 6033.00    2.81307   2.71649   -1.000
 6034.00    2.81284   2.73853   21.915
 6035.00    2.81483   2.75784   21.846
 6036.00    2.82874   2.76185   21.756
 6037.00    2.83005   2.74995   21.721
 6038.00    2.81083   2.73021   21.707
 6039.00    2.78925   2.70973   21.681
 6040.00    2.78278   2.69539   -1.000
 6041.00    2.78888   2.69310   -1.000
 6042.00    2.79907   2.70438   -1.000
 6043.00    2.80945   2.72291   -1.000
 6044.00    2.84502   2.73865   -1.000
 6045.00    2.85514   2.74612   -1.000
 6046.00    2.83716   2.74890   -1.000
 6047.00    2.84159   2.75184   -1.000
 6048.00    2.84735   2.75446   -1.000
 6049.00    2.83613   2.75673   21.585
 6050.00    2.84060   2.75731   -1.000
 6051.00    2.84415   2.75185   -1.000
 6052.00    2.83559   2.73639   -1.000
 6053.00    2.81672   2.71308   -1.000
 6054.00    2.80794   2.68828   -1.000
 6055.00    2.81736   2.66688   -1.000
 6056.00    2.80303   2.65410   -1.000
 6057.00    2.80448   2.65632   -1.000
 6058.00    2.82344   2.67315   -1.000
 6059.00    2.83353   2.69457   -1.000
 6060.00    2.82636   2.70835   -1.000
 6061.00    2.82223   2.70632   -1.000
 6062.00    2.81220   2.68738   -1.000
 6063.00    2.82370   2.65624   -1.000
 6064.00    2.75618   2.62373   -1.000
 6065.00    2.42307   2.60785   22.398
 6066.00    1.73352   2.62466   -1.000
 6067.00    1.93147   2.67026   -1.000
 6068.00    2.70960   2.71946   17.275
 6069.00    2.88405   2.75116    7.953
 6070.00    2.83666   2.76595   -1.000
 6071.00    2.23521   2.77416   -1.000
 6072.00    0.99016   2.77920   -1.000
 6073.00    2.42480   2.77911   -1.000
 6074.00    2.96238   2.77286   -1.000
 6075.00    2.85791   2.75953   -1.000
 6076.00    2.85757   2.73786   -1.000
 6077.00    2.83621   2.70979   -1.000
 6078.00    2.80978   2.68228   -1.000
 6079.00    2.79187   2.66237   -1.000
 6080.00    2.79122   2.65072   -1.000
 6081.00    2.77701   2.64187   -1.000
 6082.00    2.76394   2.63456   -1.000
 6083.00    2.77316   2.63302   -1.000
 6084.00    2.77542   2.63801   -1.000
 6085.00    2.77902   2.64596   -1.000
 6086.00    2.78668   2.65626   -1.000
 6087.00    2.79214   2.66675   -1.000
 6088.00    2.79754   2.66956   -1.000
 6089.00    2.77630   2.65889   -1.000
 6090.00    2.74715   2.63994   -1.000
 6091.00    2.74171   2.62650   -1.000
 6092.00    2.76090   2.62858   -1.000
 6093.00    2.76759   2.64591   -1.000
 6094.00    2.78188   2.67141   -1.000
 6095.00    2.80783   2.69371   -1.000
 6096.00    2.82300   2.70468   -1.000
 6097.00    2.82747   2.70835   -1.000
 6098.00    2.82409   2.71372   -1.000
 6099.00    2.81939   2.71472   -1.000
 6100.00    2.78953   2.69137   -1.000
 6101.00    2.72486   2.63510   -1.000
 6102.00    2.67335   2.56902   -1.000
 6103.00    2.67755   2.53687   -1.000
 6104.00    2.72259   2.56126   -1.000
 6105.00    2.77036   2.61757   -1.000
 6106.00    2.80782   2.66637   -1.000
 6107.00    2.81930   2.69227   -1.000
 6108.00    2.79624   2.70616   -1.000
 6109.00    2.78640   2.71682   22.237
 6110.00    2.80132   2.72146   -1.000
 6111.00    2.79307   2.72012   22.360
 6112.00    2.78961   2.72270   22.335
 6113.00    2.81013   2.73416   22.269
 6114.00    2.79939   2.74524   22.191
 6115.00    2.78815   2.74470   22.168
 6116.00    2.79387   2.73334   22.052
 6117.00    2.79103   2.72010   22.044
 6118.00    2.77878   2.70444   22.160
 6119.00    2.74188   2.67547   22.282
 6120.00    2.70512   2.62845   22.319
 6121.00    2.68349   2.57770   -1.000
 6122.00    2.66747   2.55143   -1.000
 6123.00    2.68523   2.56811   -1.000
 6124.00    2.73711   2.61420   -1.000
 6125.00    2.77017   2.65459   -1.000
 6126.00    2.77098   2.66878   -1.000
 6127.00    2.75904   2.66499   -1.000
 6128.00    2.74645   2.66222   -1.000
 6129.00    2.75089   2.67493   22.717
 6130.00    2.78603   2.70353   -1.000
 6131.00    2.80333   2.73399   22.580
 6132.00    2.80555   2.74875   22.373
 6133.00    2.79329   2.73205   22.202
 6134.00    2.74337   2.67378   22.197
 6135.00    2.66652   2.58001   -1.000
 6136.00    2.59861   2.48675   -1.000
 6137.00    2.56078   2.44466   -1.000
 6138.00    2.60706   2.47824   -1.000
 6139.00    2.68697   2.55717   -1.000
 6140.00    2.74339   2.62498   -1.000
 6141.00    2.74393   2.65470   -1.000
 6142.00    2.72344   2.66809   22.893
 6143.00    2.72406   2.69174   22.755
 6144.00    2.76511   2.72299   22.822
 6145.00    2.79403   2.74296   22.788
 6146.00    2.79792   2.74094   22.518
 6147.00    2.78209   2.72074   22.305
 6148.00    2.76414   2.69269   22.331
 6149.00    2.75227   2.66789   -1.000
 6150.00    2.74961   2.65609   -1.000
 6151.00    2.75362   2.66081   -1.000
 6152.00    2.74955   2.67369   -1.000
 6153.00    2.75424   2.67825   -1.000
 6154.00    2.73039   2.66690   22.718
 6155.00    2.71137   2.64833   22.583
 6156.00    2.71069   2.63566   22.624
 6157.00    2.71200   2.62794   -1.000
 6158.00    2.70185   2.60933   -1.000
 6159.00    2.67191   2.56150   -1.000
 6160.00    2.60271   2.47826   -1.000
 6161.00    2.50618   2.38147   -1.000
 6162.00    2.44824   2.31621   -1.000
 6163.00    2.46903   2.31572   -1.000
 6164.00    2.51668   2.37155   -1.000
 6165.00    2.58081   2.44548   -1.000
 6166.00    2.62271   2.50104   -1.000
 6167.00    2.60956   2.51734   -1.000
 6168.00    2.58188   2.49537   -1.000
 6169.00    2.55817   2.46050   -1.000
 6170.00    2.55396   2.45127   -1.000
 6171.00    2.58286   2.48319   -1.000
 6172.00    2.61606   2.53436   -1.000
 6173.00    2.64384   2.57340   -1.000
 6174.00    2.64067   2.59127   23.660
 6175.00    2.65176   2.59593   23.431
 6176.00    2.66862   2.59705   -1.000
 6177.00    2.66165   2.60286   23.486
 6178.00    2.67234   2.61570   23.423
 6179.00    2.68189   2.63036   23.377
 6180.00    2.69131   2.64336   23.298
 6181.00    2.71342   2.65706   23.184
 6182.00    2.72664   2.66962   23.107
 6183.00    2.71719   2.67279   23.026
 6184.00    2.71391   2.66143   22.926
 6185.00    2.70272   2.63731   22.898
 6186.00    2.66199   2.60641   22.964
 6187.00    2.63533   2.57677   23.071
 6188.00    2.62072   2.55172   23.284
 6189.00    2.60419   2.52528   -1.000
 6190.00    2.58324   2.49301   -1.000
 6191.00    2.56072   2.46972   -1.000
 6192.00    2.56444   2.47929   -1.000
 6193.00    2.61071   2.52440   -1.000
 6194.00    2.66931   2.58155   -1.000
 6195.00    2.70249   2.62563   -1.000
 6196.00    2.69037   2.64669   23.537
 6197.00    2.68604   2.64454   23.238
 6198.00    2.67996   2.62298   23.144
 6199.00    2.63902   2.59746   23.160
 6200.00    2.63362   2.59071   23.361
 6201.00    2.64552   2.61158   23.627
 6202.00    2.67734   2.64554   23.759
 6203.00    2.71070   2.67345   23.663
 6204.00    2.69483   2.68867   23.386
 6205.00    2.68733   2.69567   23.138
 6206.00    2.68968   2.70034   23.119
 6207.00    2.70368   2.70343   23.115
 6208.00    2.71429   2.70201   23.078
 6209.00    2.69812   2.69241   23.103
 6210.00    2.69756   2.67266   23.184
 6211.00    2.67997   2.64043   23.190
 6212.00    2.64114   2.59384   23.333
 6213.00    2.60932   2.53919   -1.000
 6214.00    2.57186   2.49408   -1.000
 6215.00    2.57838   2.47547   -1.000
 6216.00    2.60455   2.48491   -1.000
 6217.00    2.60701   2.50528   -1.000
 6218.00    2.63190   2.51516   -1.000
 6219.00    2.61589   2.50887   -1.000
 6220.00    2.59139   2.50157   -1.000
 6221.00    2.60732   2.50899   -1.000
 6222.00    2.61900   2.52833   -1.000
 6223.00    2.42474   2.54673   24.063
 6224.00    2.27606   2.55778   -1.000
 6225.00    2.66656   2.56503   -1.000
 6226.00    2.65106   2.56983   -1.000
 6227.00    2.60907   2.56387   23.851
 6228.00    2.60734   2.53603   -1.000
 6229.00    2.59444   2.48611   -1.000
 6230.00    2.54366   2.43341   -1.000
 6231.00    2.52266   2.40796   -1.000
 6232.00    2.55290   2.42652   -1.000
 6233.00    2.61690   2.48164   -1.000
 6234.00    2.66879   2.54847   -1.000
 6235.00    2.67874   2.59801   -1.000
 6236.00    2.66532   2.61196   24.064
 6237.00    2.65129   2.59241   23.739
 6238.00    2.64650   2.55610   -1.000
 6239.00    2.60745   2.52077   -1.000
 6240.00    2.58455   2.49680   -1.000
 6241.00    2.56759   2.48233   -1.000
 6242.00    2.56417   2.46904   -1.000
 6243.00    2.54817   2.45420   -1.000
 6244.00    2.53729   2.44499   -1.000
 6245.00    2.54227   2.44978   -1.000
 6246.00    2.56015   2.47215   -1.000
 6247.00    2.59274   2.50992   -1.000
 6248.00    2.62295   2.55143   -1.000
 6249.00    2.64539   2.57756   -1.000
 6250.00    2.63575   2.57410   24.217
 6251.00    2.59533   2.54180   24.017
 6252.00    2.55591   2.49658   24.067
 6253.00    2.52237   2.45961   24.360
 6254.00    2.51347   2.44001   -1.000
 6255.00    2.52317   2.42928   -1.000
 6256.00    2.51021   2.41465   -1.000
 6257.00    2.48953   2.39812   -1.000
 6258.00    2.49776   2.39658   -1.000
 6259.00    2.52474   2.42298   -1.000
 6260.00    2.56325   2.47296   -1.000
 6261.00    2.62550   2.53044   -1.000
 6262.00    2.64445   2.57797   -1.000
 6263.00    2.65136   2.60402   24.714
 6264.00    2.64963   2.60625   24.374
 6265.00    2.63663   2.59651   24.036
 6266.00    2.63640   2.59214   24.006
 6267.00    2.64871   2.59739   24.225
 6268.00    2.65794   2.60175   24.328
 6269.00    2.64111   2.59973   24.175
 6270.00    2.62198   2.59893   24.042
 6271.00    2.61759   2.60664   24.166
 6272.00    2.63513   2.61930   24.261
 6273.00    2.64995   2.62610   24.201
 6274.00    2.64771   2.61873   24.118
 6275.00    2.64535   2.59765   24.087
 6276.00    2.65168   2.56990   -1.000
 6277.00    2.63481   2.54197   -1.000
 6278.00    2.58709   2.51642   -1.000
 6279.00    2.52272   2.49538   25.066
 6280.00    2.44758   2.48468   25.696
 6281.00    2.40618   2.49307   26.082
 6282.00    2.41899   2.52302   26.167
 6283.00    2.43282   2.56468   25.986
 6284.00    2.45008   2.60319   25.536
 6285.00    2.45679   2.63165   25.104
 6286.00    2.46314   2.65344   -1.000
 6287.00    2.49718   2.67312   24.464
 6288.00    2.54963   2.68616   24.269
 6289.00    2.58772   2.68307   24.052
 6290.00    2.61712   2.66221   23.911
 6291.00    2.60574   2.63484   23.906
 6292.00    2.58893   2.61536   24.066
 6293.00    2.61177   2.60839   24.273
 6294.00    2.61453   2.60565   24.427
 6295.00    2.61151   2.59445   24.456
 6296.00    2.59108   2.57141   24.485
 6297.00    2.56881   2.54898   24.555
 6298.00    2.54447   2.54082   24.758
 6299.00    2.52053   2.54345   24.895
 6300.00    2.46840   2.54173   24.906
 6301.00    2.38980   2.53249   24.851
 6302.00    2.39986   2.52954   24.738
 6303.00    2.67286   2.54385   -1.000
 6304.00    2.91280   2.57133   -1.000
 6305.00    2.89079   2.60295   -1.000
 6306.00    2.74914   2.63425   -1.000
 6307.00    2.69045   2.66348   24.457
 6308.00    2.68696   2.68309   24.183
 6309.00    2.66464   2.68454   23.984
 6310.00    2.64371   2.66961   23.791
 6311.00    2.63452   2.64960   23.796
 6312.00    2.62839   2.63252   23.923
 6313.00    2.62640   2.61661   24.080
 6314.00    2.61121   2.59658   24.165
 6315.00    2.59202   2.57341   24.255
 6316.00    2.58453   2.55241   24.299
 6317.00    2.58019   2.53581   24.528
 6318.00    2.55643   2.53013   24.580
 6319.00    2.55516   2.54582   24.553
 6320.00    2.59727   2.58037   24.539
 6321.00    2.61881   2.61686   24.561
 6322.00    2.62252   2.64511   24.425
 6323.00    2.63261   2.66827   24.116
 6324.00    2.66132   2.69006   23.910
 6325.00    2.68780   2.70687   23.835
 6326.00    2.68711   2.71468   23.747
 6327.00    2.69282   2.71672   23.621
 6328.00    2.68288   2.71785   23.563
 6329.00    2.69792   2.71844   23.540
 6330.00    2.71598   2.71958   23.430
 6331.00    2.69239   2.72499   23.469
 6332.00    2.69163   2.73041   23.483
 6333.00    2.71108   2.72075   23.485
 6334.00    2.67419   2.68645   23.394
 6335.00    2.75980   2.63943   -1.000
 6336.00    2.72747   2.60641   -1.000
 6337.00    2.61871   2.60455   23.576
 6338.00    2.66034   2.62830   24.115
 6339.00    2.66314   2.66186   24.071
 6340.00    2.68947   2.69000   23.842
 6341.00    2.70424   2.70000   23.594
 6342.00    2.68125   2.68714   23.352
 6343.00    2.66656   2.66230   23.254
 6344.00    2.66900   2.64662   23.156
 6345.00    2.67277   2.65381   23.215
 6346.00    2.67532   2.67943   23.421
 6347.00    2.68791   2.71041   23.419
 6348.00    2.71149   2.73810   23.338
 6349.00    2.72510   2.75868   23.201
 6350.00    2.73341   2.77065   23.044
 6351.00    2.72739   2.77275   22.978
 6352.00    2.70775   2.76200   22.984
 6353.00    2.69967   2.73765   22.936
 6354.00    2.66884   2.70718   22.977
 6355.00    2.64745   2.68237   23.084
 6356.00    2.64494   2.66522   23.211
 6357.00    2.62759   2.64584   23.488
 6358.00    2.60242   2.61785   23.656
 6359.00    2.59074   2.58719   23.655
 6360.00    2.57831   2.56229   23.758
 6361.00    2.55943   2.54612   24.030
 6362.00    2.56244   2.54151   24.086
 6363.00    2.57587   2.55386   23.973
 6364.00    2.57330   2.58370   23.907
 6365.00    2.56733   2.62370   23.882
 6366.00    2.63342   2.66542   23.783
 6367.00    2.73165   2.70312   23.619
 6368.00    2.77646   2.73085   23.473
 6369.00    2.72009   2.74510   23.347
 6370.00    2.69164   2.75131   23.194
 6371.00    2.68504   2.76058   23.051
 6372.00    2.66710   2.77692   23.011
 6373.00    2.69179   2.79297   23.022
 6374.00    2.70174   2.80044   22.932
 6375.00    2.67761   2.79967   22.860
 6376.00    2.66335   2.79314   22.931
 6377.00    2.64547   2.78006   22.946
 6378.00    2.63246   2.76239   23.004
 6379.00    2.62104   2.74707   23.097
 6380.00    2.59775   2.74002   23.222
 6381.00    2.60635   2.74242   23.377
 6382.00    2.61965   2.75029   23.449
 6383.00    2.61985   2.75749   23.462
 6384.00    2.62089   2.76236   23.505
 6385.00    2.61941   2.76908   23.487
 6386.00    2.62469   2.77987   23.438
 6387.00    2.61536   2.79057   23.559
 6388.00    2.61092   2.79666   23.597
 6389.00    2.60108   2.79624   -1.000
 6390.00    2.59546   2.78435   23.663
 6391.00    2.56558   2.75443   23.752
 6392.00    2.51165   2.71098   -1.000
 6393.00    2.47674   2.67651   -1.000
 6394.00    2.45515   2.67510   -1.000
 6395.00    2.47695   2.70785   -1.000
 6396.00    2.50788   2.74812   -1.000
 6397.00    2.50553   2.76342   -1.000
 6398.00    2.46882   2.73878   -1.000
 6399.00    2.40880   2.69146   -1.000
 6400.00    2.36263   2.66255   -1.000
 6401.00    2.39411   2.68043   -1.000
 6402.00    2.42495   2.73324   -1.000
 6403.00    2.47364   2.78547   -1.000
 6404.00    2.47159   2.81202   -1.000
 6405.00    2.43922   2.80657   -1.000
 6406.00    2.41418   2.77831   -1.000
 6407.00    2.37864   2.74738   -1.000
 6408.00    2.34939   2.73191   -1.000
 6409.00    2.34794   2.73265   -1.000
 6410.00    2.31979   2.73553   -1.000
 6411.00    2.28746   2.73121   -1.000
 6412.00    2.27122   2.72597   -1.000
 6413.00    2.25423   2.72974   -1.000
 6414.00    2.24357   2.74283   -1.000
 6415.00    2.25690   2.75876   -1.000
 6416.00    2.24654   2.77048   -1.000
 6417.00    2.24206   2.76928   -1.000
 6418.00    2.23194   2.74941   -1.000
 6419.00    2.18462   2.71600   -1.000
 6420.00    2.12629   2.68751   -1.000
 6421.00    2.09156   2.68575   -1.000
 6422.00    2.08989   2.71588   -1.000
 6423.00    2.10431   2.75986   -1.000
 6424.00    2.10839   2.79606   -1.000
 6425.00    2.10333   2.81868   -1.000
 6426.00    2.09785   2.83201   -1.000
 6427.00    2.07484   2.83377   -1.000
 6428.00    2.04898   2.81413   -1.000
