###################################################################
## OUTPUT of StarlightChains_v04.for    [Cid@UFSC - 01/Apr/2007] ##
###################################################################

## Some input info
NGC6352_a_1.cxt                          [arq_obs]
Base.BC03.N                              [arq_base]
NGC6352_a_1.msk                          [arq_masks]
StCv04.C99.config                        [arq_config]
   45                                    [N_base]
    0                                    [N_YAV_components = # of components with extra extinction!]
    0                                    [i_FitPowerLaw (1/0 = Yes/No)]
-9.99                                    [alpha_PowerLaw]
CCM                                      [red_law_option]
 1.458241                                [q_norm = A(l_norm)/A(V)]

## (Re)Sampling Parameters
 3359.00                                 [l_ini (A)]
 6428.00                                 [l_fin (A)]
    1.00                                 [dl    (A)]     (OBS: dl_cushion =    50.00 A)

## Normalization info
 4020.00                                 [l_norm (A) - for base]
 4010.00                                 [llow_norm (A) - window for f_obs]
 4060.00                                 [lupp_norm (A) - window for f_obs]
4.889122E-15                             [fobs_norm (in input units)]

## S/N
 4730.00                                 [llow_SN (A) - window for S/N]
 4780.00                                 [lupp_SN (A) - window for S/N]
  33.884                                 [S/N in S/N window]
  22.882                                 [S/N in norm. window]
 274.330                                 [S/N_err in S/N window]
 185.259                                 [S/N_err in norm. window]
  1.0000                                 [fscale_chi2]

## etc...
  2147483613                             [idum_orig]
  3060                                   [NOl_eff]
   625                                   [Nl_eff]
  2435    NSIGMA                         [Ntot_cliped & clip_method]
  1685040                                [Nglobal_steps]
   7                                     [N_chains]
   9                                     [NEX0s_base = N_base in EX0s-fits]
 0   0   1      257   2.0   3.884E+02    [Clip-Bug, RC-Crash & Burn-In warning-flags, n_censored_weights, wei_nsig_threshold & wei_limit]
    23     22.278     22.274      0.004  [idt_all, wdt_TotTime, wdt_UsrTime & wdt_SysTime (sec)]

## Synthesis Results - Best model ##

 2.78665E+00                             [chi2/Nl_eff]
     1.20149                             [adev (%)]

   100.30384                             [sum-of-x (%)]
 1.12985E-14                             [Flux_tot (units of input spectrum!)]
 3.86416E-10                             [Mini_tot (???)]
 1.99779E-10                             [Mcor_tot (???)]

  15.55                                  [v0_min  (km/s)]
  57.87                                  [vd_min  (km/s)]
 0.6214                                  [AV_min  (mag)]
 0.0000                                  [YAV_min (mag)]

# j     x_j(%)      Mini_j(%)     Mcor_j(%)     age_j(yr)     Z_j      (L/M)_j    YAV?  Mstars   component_j        a/Fe...       SSP_chi2r SSP_adev(%)   SSP_AV   SSP_x(%)
  1      1.8153     4.7502E-03    9.1880E-03    1.000000E+06  0.00400  1.114E-02    0   1.0000   age020_m42            0.0000     2.1054E+03    26.4471   4.0000    93.9184
  2      1.8981     1.3585E-03    2.6273E-03    3.160000E+06  0.00400  4.073E-02    0   0.9999   age045_m42            0.0000     6.4831E+02    12.7399   3.7081    93.2260
  3      0.0000     0.0000E+00    0.0000E+00    5.010000E+06  0.00400  2.534E-02    0   0.9488   age055_m42            0.0000     8.5054E+02    16.2271   4.0000    89.9850
  4      2.3695     5.4344E-03    9.3151E-03    1.000000E+07  0.00400  1.271E-02    0   0.8862   age070_m42            0.0000     8.7514E+02    15.8578   3.3016    91.8289
  5      0.0000     0.0000E+00    0.0000E+00    2.512000E+07  0.00400  5.070E-03    0   0.8174   age090_m42            0.0000     7.9266E+02    15.1567   3.1687    93.5663
  6      0.0000     0.0000E+00    0.0000E+00    4.000000E+07  0.00400  3.505E-03    0   0.7851   age104_m42            0.0000     6.1559E+02    13.0926   2.8699    96.0939
  7      0.0000     0.0000E+00    0.0000E+00    1.015200E+08  0.00400  2.268E-03    0   0.7207   age116_m42            0.0000     8.9566E+02    11.8270   2.9704   101.8499
  8      0.0000     0.0000E+00    0.0000E+00    2.861200E+08  0.00400  1.079E-03    0   0.6613   age125_m42            0.0000     8.9003E+02    11.5726   2.4789   103.9776
  9      0.0000     0.0000E+00    0.0000E+00    6.405400E+08  0.00400  5.077E-04    0   0.6197   age132_m42            0.0000     8.9568E+02    11.8184   2.1226   107.8164
 10      0.0000     0.0000E+00    0.0000E+00    9.047900E+08  0.00400  3.535E-04    0   0.6024   age135_m42            0.0000     6.5135E+02    10.0010   1.8728   107.4120
 11      0.0000     0.0000E+00    0.0000E+00    1.434000E+09  0.00400  1.910E-04    0   0.5716   age139_m42            0.0000     3.0889E+02     6.6989   1.3401   106.3745
 12      0.0000     0.0000E+00    0.0000E+00    2.500000E+09  0.00400  9.818E-05    0   0.5463   age150_m42            0.0000     9.0556E+01     3.5487   1.0355   102.6691
 13     22.7772     1.4073E+01    1.4231E+01    5.000000E+09  0.00400  4.718E-05    0   0.5228   age161_m42            0.0000     2.7580E+01     2.2998   0.8486   100.0416
 14     34.7473     4.5937E+01    4.4248E+01    1.100000E+10  0.00400  2.205E-05    0   0.4980   age185_m42            0.0000     1.3659E+01     1.7872   0.5781    98.2265
 15      0.4201     6.5029E-01    6.1972E-01    1.300000E+10  0.00400  1.883E-05    0   0.4927   age193_m42            0.0000     1.7406E+01     1.9830   0.5583    98.1870
 16      0.0000     0.0000E+00    0.0000E+00    1.000000E+06  0.02000  1.989E-02    0   1.0000   age020_m62            0.0000     1.9733E+03    25.3796   4.0000    94.1535
 17      0.0000     0.0000E+00    0.0000E+00    3.160000E+06  0.02000  3.772E-02    0   0.9858   age045_m62            0.0000     1.5785E+03    23.0022   4.0000    93.7022
 18      0.0000     0.0000E+00    0.0000E+00    5.010000E+06  0.02000  3.227E-02    0   0.9342   age055_m62            0.0000     8.0349E+02    14.8983   3.9503    90.5116
 19      0.0000     0.0000E+00    0.0000E+00    1.000000E+07  0.02000  1.011E-02    0   0.8751   age070_m62            0.0000     1.3518E+03    20.3899   3.2468    90.2785
 20      0.0000     0.0000E+00    0.0000E+00    2.512000E+07  0.02000  4.206E-03    0   0.8099   age090_m62            0.0000     1.0417E+03    18.0844   3.1906    90.8652
 21      0.0000     0.0000E+00    0.0000E+00    4.000000E+07  0.02000  3.373E-03    0   0.7799   age104_m62            0.0000     7.2050E+02    13.3516   3.0788    97.3658
 22      0.0000     0.0000E+00    0.0000E+00    1.015200E+08  0.02000  1.878E-03    0   0.7221   age116_m62            0.0000     9.0419E+02    11.9270   2.9727   102.9619
 23      0.0000     0.0000E+00    0.0000E+00    2.861200E+08  0.02000  8.869E-04    0   0.6700   age125_m62            0.0000     1.2314E+03    13.6248   2.4967   108.6015
 24      0.0000     0.0000E+00    0.0000E+00    6.405400E+08  0.02000  3.657E-04    0   0.6322   age132_m62            0.0000     7.9181E+02    10.5166   1.8206   111.6803
 25      0.0000     0.0000E+00    0.0000E+00    9.047900E+08  0.02000  2.312E-04    0   0.6152   age135_m62            0.0000     4.5701E+02     7.8569   1.4369   111.0121
 26      0.0000     0.0000E+00    0.0000E+00    1.434000E+09  0.02000  1.168E-04    0   0.5865   age139_m62            0.0000     1.3301E+02     4.2427   0.9812   106.5162
 27      0.0000     0.0000E+00    0.0000E+00    2.500000E+09  0.02000  5.505E-05    0   0.5610   age150_m62            0.0000     4.0844E+01     2.6959   0.5909   104.1844
 28     25.6130     2.8761E+01    2.9779E+01    5.000000E+09  0.02000  2.596E-05    0   0.5353   age161_m62            0.0000     8.4132E+01     4.2587   0.2583   104.2372
 29      1.3376     3.3354E+00    3.2921E+00    1.100000E+10  0.02000  1.169E-05    0   0.5103   age185_m62            0.0000     2.2182E+02     6.7830  -0.1072   105.7571
 30      0.0000     0.0000E+00    0.0000E+00    1.300000E+10  0.02000  9.691E-06    0   0.5047   age193_m62            0.0000     2.5470E+02     7.2215  -0.1540   106.0422
 31      0.0000     0.0000E+00    0.0000E+00    1.000000E+06  0.05000  2.651E-02    0   0.9998   age020_m72            0.0000     1.9334E+03    25.0190   4.0000    95.1623
 32      0.0000     0.0000E+00    0.0000E+00    3.160000E+06  0.05000  4.817E-02    0   0.9577   age045_m72            0.0000     1.1886E+03    19.8124   4.0000    93.9497
 33      0.0000     0.0000E+00    0.0000E+00    5.010000E+06  0.05000  3.101E-02    0   0.9147   age055_m72            0.0000     9.1239E+02    16.5341   3.9246    89.9422
 34      0.0000     0.0000E+00    0.0000E+00    1.000000E+07  0.05000  8.954E-03    0   0.8524   age070_m72            0.0000     9.1289E+02    17.2769   4.0000    92.5407
 35      0.0000     0.0000E+00    0.0000E+00    2.512000E+07  0.05000  4.207E-03    0   0.7902   age090_m72            0.0000     6.7881E+02    13.5438   3.7501    93.5618
 36      0.0000     0.0000E+00    0.0000E+00    4.000000E+07  0.05000  3.198E-03    0   0.7618   age104_m72            0.0000     7.4381E+02    11.3282   3.3112    99.5344
 37      0.0000     0.0000E+00    0.0000E+00    1.015200E+08  0.05000  1.716E-03    0   0.7092   age116_m72            0.0000     9.8217E+02    12.3087   3.0575   103.0236
 38      0.0000     0.0000E+00    0.0000E+00    2.861200E+08  0.05000  7.047E-04    0   0.6618   age125_m72            0.0000     1.1135E+03    12.6039   2.2920   108.8842
 39      0.0000     0.0000E+00    0.0000E+00    6.405400E+08  0.05000  2.633E-04    0   0.6253   age132_m72            0.0000     5.4502E+02     8.4115   1.4429   111.0918
 40      0.0000     0.0000E+00    0.0000E+00    9.047900E+08  0.05000  1.484E-04    0   0.6088   age135_m72            0.0000     1.8819E+02     5.1311   0.9355   106.8807
 41      0.0000     0.0000E+00    0.0000E+00    1.434000E+09  0.05000  7.827E-05    0   0.5847   age139_m72            0.0000     7.9951E+01     3.8233   0.5208   104.1236
 42      9.3258     7.2321E+00    7.8097E+00    2.500000E+09  0.05000  3.759E-05    0   0.5583   age150_m72            0.0000     1.0590E+02     4.8098   0.1826   103.8373
 43      0.0000     0.0000E+00    0.0000E+00    5.000000E+09  0.05000  1.548E-05    0   0.5320   age161_m72            0.0000     2.3519E+02     6.6645  -0.2447   103.9220
 44      0.0000     0.0000E+00    0.0000E+00    1.100000E+10  0.05000  6.532E-06    0   0.5070   age185_m72            0.0000     4.9503E+02     9.3494  -0.6188   103.6876
 45      0.0000     0.0000E+00    0.0000E+00    1.300000E+10  0.05000  5.316E-06    0   0.5018   age193_m72            0.0000     6.2025E+02    10.4482  -0.7338   103.7025


## Synthesis Results - Average & Chains ##

# j      x_j: min, <> & last-chain-values for 1 ...  7 chains
  1      1.8153      1.4599      1.4899      1.5663      1.4523      1.4650      1.5179      1.5057      1.5316
  2      1.8981      1.3100      1.2679      1.3493      1.3843      1.1344      1.4152      1.6225      1.3300
  3      0.0000      0.5076      0.5060      0.5703      0.4079      0.5179      0.5148      0.4847      0.4658
  4      2.3695      2.6116      2.6348      2.6487      2.6131      2.5352      2.5797      2.3378      2.6138
  5      0.0000      0.0189      0.0000      0.0000      0.0000      0.0438      0.0000      0.0000      0.0000
  6      0.0000      0.0192      0.0000      0.0000      0.0000      0.0000      0.0000      0.0000      0.0000
  7      0.0000      0.0168      0.0000      0.0000      0.0000      0.0000      0.0000      0.0000      0.0097
  8      0.0000      0.0201      0.0000      0.0000      0.0000      0.0000      0.0705      0.0000      0.0000
  9      0.0000      0.0292      0.0000      0.1341      0.0000      0.0000      0.0993      0.0367      0.0000
 10      0.0000      0.0673      0.1688      0.0639      0.1229      0.0000      0.1313      0.1643      0.0000
 11      0.0000      0.0684      0.0752      0.0921      0.0835      0.2338      0.0000      0.3333      0.0233
 12      0.0000      0.2498      1.0289      0.2920      0.3094      0.6436      0.3075      0.0000      1.0327
 13     22.7772     20.5371     20.3642     20.4622     20.8146     20.7895     20.8105     20.4830     20.2467
 14     34.7473     35.0861     35.1081     34.8023     35.6118     35.2125     34.7478     35.5192     35.2431
 15      0.4201      1.0406      1.2991      1.7583      0.8153      0.7992      1.5731      0.7581      0.7465
 16      0.0000      0.0155      0.0000      0.0000      0.0000      0.0000      0.0967      0.0000      0.0861
 17      0.0000      0.0178      0.0000      0.0000      0.0000      0.0113      0.0000      0.0000      0.0000
 18      0.0000      0.0171      0.0000      0.0000      0.0154      0.0000      0.0000      0.0000      0.0000
 19      0.0000      0.0374      0.0000      0.0000      0.0000      0.2212      0.0045      0.0183      0.0000
 20      0.0000      0.0246      0.0101      0.0000      0.0787      0.0226      0.0000      0.0000      0.0000
 21      0.0000      0.0118      0.0000      0.0000      0.0000      0.0000      0.0000      0.0000      0.0000
 22      0.0000      0.0144      0.0511      0.0320      0.0000      0.1147      0.0000      0.0167      0.0000
 23      0.0000      0.0162      0.0000      0.0000      0.0000      0.0000      0.0000      0.0856      0.0000
 24      0.0000      0.0278      0.0000      0.0020      0.0533      0.0000      0.0158      0.0000      0.0000
 25      0.0000      0.0388      0.0808      0.0549      0.0000      0.0000      0.0000      0.0000      0.3054
 26      0.0000      0.1252      0.0108      0.1905      0.2385      0.0327      0.0487      0.2194      0.1773
 27      0.0000      0.2692      0.0425      0.0000      0.0000      0.0000      0.0000      0.0000      0.1971
 28     25.6130     25.5780     25.1216     25.7169     25.5303     25.5819     25.5688     25.6194     25.2223
 29      1.3376      1.9240      2.0129      1.9733      1.8812      1.9418      1.8231      2.3042      2.0790
 30      0.0000      0.1168      0.2176      0.0000      0.0000      0.0000      0.1299      0.0000      0.1285
 31      0.0000      0.0481      0.1362      0.0176      0.0922      0.0000      0.0000      0.1559      0.0000
 32      0.0000      0.0208      0.0000      0.0000      0.1012      0.0081      0.0000      0.0647      0.0720
 33      0.0000      0.0302      0.0000      0.0000      0.0000      0.1753      0.0000      0.0000      0.0708
 34      0.0000      0.0271      0.0000      0.0165      0.0143      0.0000      0.0000      0.0000      0.0000
 35      0.0000      0.0105      0.0466      0.0000      0.0000      0.0000      0.0000      0.0000      0.0000
 36      0.0000      0.0190      0.0000      0.0000      0.0000      0.0000      0.0000      0.0000      0.0000
 37      0.0000      0.0165      0.0000      0.0000      0.0000      0.0000      0.0000      0.0000      0.0000
 38      0.0000      0.0161      0.0000      0.0000      0.0000      0.0000      0.0486      0.0000      0.0000
 39      0.0000      0.0347      0.0574      0.0000      0.0000      0.0000      0.0000      0.0000      0.0000
 40      0.0000      0.0714      0.0000      0.0531      0.0000      0.0000      0.0000      0.0000      0.1181
 41      0.0000      0.2200      0.0873      0.0000      0.1504      0.0535      0.4485      0.0000      0.0000
 42      9.3258      8.3459      8.4624      8.3956      8.5233      8.5528      8.2786      8.5744      8.4440
 43      0.0000      0.1295      0.0569      0.1535      0.0605      0.1901      0.0000      0.0465      0.2355
 44      0.0000      0.0346      0.0026      0.0000      0.0000      0.0000      0.0000      0.0000      0.0000
 45      0.0000      0.0866      0.0465      0.0000      0.0000      0.0744      0.1278      0.0251      0.0000

# j      m_j: min, <> & last-chain-values for 1 ...  7 chains
  1  9.1880E-03  7.2337E-03  7.3883E-03  7.7721E-03  7.2490E-03  7.2869E-03  7.5228E-03  7.4588E-03  7.6328E-03
  2  2.6273E-03  1.7750E-03  1.7195E-03  1.8311E-03  1.8896E-03  1.5431E-03  1.9181E-03  2.1982E-03  1.8126E-03
  3  0.0000E+00  1.0490E-03  1.0467E-03  1.1804E-03  8.4919E-04  1.0745E-03  1.0642E-03  1.0015E-03  9.6832E-04
  4  9.3151E-03  1.0051E-02  1.0149E-02  1.0209E-02  1.0131E-02  9.7948E-03  9.9304E-03  8.9956E-03  1.0118E-02
  5  0.0000E+00  1.6862E-04  0.0000E+00  0.0000E+00  0.0000E+00  3.9145E-04  0.0000E+00  0.0000E+00  0.0000E+00
  6  0.0000E+00  2.3711E-04  0.0000E+00  0.0000E+00  0.0000E+00  0.0000E+00  0.0000E+00  0.0000E+00  0.0000E+00
  7  0.0000E+00  2.9474E-04  0.0000E+00  0.0000E+00  0.0000E+00  0.0000E+00  0.0000E+00  0.0000E+00  1.7174E-04
  8  0.0000E+00  6.7833E-04  0.0000E+00  0.0000E+00  0.0000E+00  0.0000E+00  2.3868E-03  0.0000E+00  0.0000E+00
  9  0.0000E+00  1.9664E-03  0.0000E+00  9.0505E-03  0.0000E+00  0.0000E+00  6.6900E-03  2.4708E-03  0.0000E+00
 10  0.0000E+00  6.3337E-03  1.5891E-02  6.0173E-03  1.1645E-02  0.0000E+00  1.2357E-02  1.5449E-02  0.0000E+00
 11  0.0000E+00  1.1294E-02  1.2433E-02  1.5236E-02  1.3899E-02  3.8773E-02  0.0000E+00  5.5044E-02  3.8693E-03
 12  0.0000E+00  7.6716E-02  3.1626E-01  8.9803E-02  9.5720E-02  1.9845E-01  9.4465E-02  0.0000E+00  3.1902E-01
 13  1.4231E+01  1.2561E+01  1.2466E+01  1.2534E+01  1.2825E+01  1.2765E+01  1.2731E+01  1.2526E+01  1.2455E+01
 14  4.4248E+01  4.3739E+01  4.3804E+01  4.3449E+01  4.4721E+01  4.4067E+01  4.3327E+01  4.4270E+01  4.4189E+01
 15  6.1972E-01  1.5029E+00  1.8778E+00  2.5431E+00  1.1861E+00  1.1587E+00  2.2724E+00  1.0947E+00  1.0844E+00
 16  0.0000E+00  4.2909E-05  0.0000E+00  0.0000E+00  0.0000E+00  0.0000E+00  2.6833E-04  0.0000E+00  2.4034E-04
 17  0.0000E+00  2.5736E-05  0.0000E+00  0.0000E+00  0.0000E+00  1.6311E-05  0.0000E+00  0.0000E+00  0.0000E+00
 18  0.0000E+00  2.7399E-05  0.0000E+00  0.0000E+00  2.4759E-05  0.0000E+00  0.0000E+00  0.0000E+00  0.0000E+00
 19  0.0000E+00  1.7890E-04  0.0000E+00  0.0000E+00  0.0000E+00  1.0608E-03  2.1406E-05  8.7377E-05  0.0000E+00
 20  0.0000E+00  2.6190E-04  1.0756E-04  0.0000E+00  8.4222E-04  2.4061E-04  0.0000E+00  0.0000E+00  0.0000E+00
 21  0.0000E+00  1.5106E-04  0.0000E+00  0.0000E+00  0.0000E+00  0.0000E+00  0.0000E+00  0.0000E+00  0.0000E+00
 22  0.0000E+00  3.0485E-04  1.0860E-03  6.8011E-04  0.0000E+00  2.4428E-03  0.0000E+00  3.5453E-04  0.0000E+00
 23  0.0000E+00  6.7440E-04  0.0000E+00  0.0000E+00  0.0000E+00  0.0000E+00  0.0000E+00  3.5673E-03  0.0000E+00
 24  0.0000E+00  2.6495E-03  0.0000E+00  1.9528E-04  5.1207E-03  0.0000E+00  1.5063E-03  0.0000E+00  0.0000E+00
 25  0.0000E+00  5.7042E-03  1.1877E-02  8.0822E-03  0.0000E+00  0.0000E+00  0.0000E+00  0.0000E+00  4.5112E-02
 26  0.0000E+00  3.4691E-02  2.9839E-03  5.2863E-02  6.6590E-02  9.1010E-03  1.3508E-02  6.0804E-02  4.9439E-02
 27  0.0000E+00  1.5144E-01  2.3943E-02  0.0000E+00  0.0000E+00  0.0000E+00  0.0000E+00  0.0000E+00  1.1151E-01
 28  2.9779E+01  2.9112E+01  2.8617E+01  2.9313E+01  2.9271E+01  2.9230E+01  2.9108E+01  2.9153E+01  2.8873E+01
 29  3.2921E+00  4.6358E+00  4.8542E+00  4.7617E+00  4.5660E+00  4.6970E+00  4.3937E+00  5.5508E+00  5.0383E+00
 30  0.0000E+00  3.3564E-01  6.2614E-01  0.0000E+00  0.0000E+00  0.0000E+00  3.7336E-01  0.0000E+00  3.7163E-01
 31  0.0000E+00  1.0008E-04  2.8375E-04  3.6711E-05  1.9326E-04  0.0000E+00  0.0000E+00  3.2456E-04  0.0000E+00
 32  0.0000E+00  2.2830E-05  0.0000E+00  0.0000E+00  1.1190E-04  8.8963E-06  0.0000E+00  7.0962E-05  7.9455E-05
 33  0.0000E+00  4.9243E-05  0.0000E+00  0.0000E+00  0.0000E+00  2.8653E-04  0.0000E+00  0.0000E+00  1.1588E-04
 34  0.0000E+00  1.4225E-04  0.0000E+00  8.7000E-05  7.5869E-05  0.0000E+00  0.0000E+00  0.0000E+00  0.0000E+00
 35  0.0000E+00  1.0922E-04  4.8326E-04  0.0000E+00  0.0000E+00  0.0000E+00  0.0000E+00  0.0000E+00  0.0000E+00
 36  0.0000E+00  2.4923E-04  0.0000E+00  0.0000E+00  0.0000E+00  0.0000E+00  0.0000E+00  0.0000E+00  0.0000E+00
 37  0.0000E+00  3.7542E-04  0.0000E+00  0.0000E+00  0.0000E+00  0.0000E+00  0.0000E+00  0.0000E+00  0.0000E+00
 38  0.0000E+00  8.3209E-04  0.0000E+00  0.0000E+00  0.0000E+00  0.0000E+00  2.5175E-03  0.0000E+00  0.0000E+00
 39  0.0000E+00  4.5431E-03  7.5244E-03  0.0000E+00  0.0000E+00  0.0000E+00  0.0000E+00  0.0000E+00  0.0000E+00
 40  0.0000E+00  1.6163E-02  0.0000E+00  1.2047E-02  0.0000E+00  0.0000E+00  0.0000E+00  0.0000E+00  2.6895E-02
 41  0.0000E+00  9.0694E-02  3.6041E-02  0.0000E+00  6.2462E-02  2.2128E-02  1.8498E-01  0.0000E+00  0.0000E+00
 42  7.8097E+00  6.8419E+00  6.9435E+00  6.8928E+00  7.0388E+00  7.0389E+00  6.7884E+00  7.0279E+00  6.9625E+00
 43  0.0000E+00  2.4563E-01  1.0810E-01  2.9166E-01  1.1561E-01  3.6205E-01  0.0000E+00  8.8278E-02  4.4924E-01
 44  0.0000E+00  1.4811E-01  1.1224E-02  0.0000E+00  0.0000E+00  0.0000E+00  0.0000E+00  0.0000E+00  0.0000E+00
 45  0.0000E+00  4.5111E-01  2.4274E-01  0.0000E+00  0.0000E+00  3.8898E-01  6.6623E-01  1.3093E-01  0.0000E+00

# AV, chi2 & Mass for <> & i_chain = 1 ...  7 solutions
AV       0.6214      0.6169      0.6186      0.6187      0.6195      0.6176      0.6185      0.6180      0.6197
chi2 2.7867E+00  2.7978E+00  2.7925E+00  2.7897E+00  2.7908E+00  2.7934E+00  2.7922E+00  2.7909E+00  2.7921E+00
Mass 1.9978E-10  2.0285E-10  2.0314E-10  2.0303E-10  2.0207E-10  2.0225E-10  2.0322E-10  2.0319E-10  2.0244E-10
  15.41                                  [v0_min (km/s) before EX0s...]
  58.03                                  [vd_min (km/s) before EX0s...]


## Synthetic spectrum (Best Model) ##l_obs f_obs f_syn wei
 3070    [Nl_obs]
 3359.00    0.00000   0.42069   -2.000
 3360.00    0.00000   0.38173   -2.000
 3361.00    0.00000   0.37226   -2.000
 3362.00    0.29167   0.39789   -1.000
 3363.00    0.28697   0.44256   -1.000
 3364.00    0.28240   0.48020   -1.000
 3365.00    0.35133   0.49245   -1.000
 3366.00    0.24013   0.47672   -1.000
 3367.00    0.29038   0.44566   -1.000
 3368.00    0.19124   0.41634   -1.000
 3369.00    0.22193   0.39881   -1.000
 3370.00    0.33910   0.39100   -1.000
 3371.00    0.20866   0.38786   -1.000
 3372.00    0.14517   0.39108   -1.000
 3373.00    0.20511   0.40809   -1.000
 3374.00    0.34226   0.44003   -1.000
 3375.00    0.35448   0.47963   -1.000
 3376.00    0.34778   0.50896   -1.000
 3377.00    0.36504   0.51043   -1.000
 3378.00    0.28244   0.48547   -1.000
 3379.00    0.27553   0.45216   -1.000
 3380.00    0.27520   0.43087   -1.000
 3381.00    0.31015   0.43184   -1.000
 3382.00    0.28367   0.45066   -1.000
 3383.00    0.29485   0.47273   -1.000
 3384.00    0.33639   0.48882   -1.000
 3385.00    0.28225   0.50211   -1.000
 3386.00    0.26910   0.51189   -1.000
 3387.00    0.34731   0.51385   -1.000
 3388.00    0.38658   0.51088   -1.000
 3389.00    0.34256   0.50693   -1.000
 3390.00    0.35656   0.49997   -1.000
 3391.00    0.35457   0.48707   -1.000
 3392.00    0.36921   0.46949   -1.000
 3393.00    0.31078   0.45886   -1.000
 3394.00    0.30161   0.46677   -1.000
 3395.00    0.35335   0.49117   -1.000
 3396.00    0.34604   0.52028   -1.000
 3397.00    0.40911   0.54624   -1.000
 3398.00    0.44769   0.56402   -1.000
 3399.00    0.46597   0.56930   -1.000
 3400.00    0.39357   0.56312   -1.000
 3401.00    0.43666   0.55001   -1.000
 3402.00    0.46391   0.53228   -1.000
 3403.00    0.40665   0.51466   -1.000
 3404.00    0.37901   0.50314   -1.000
 3405.00    0.32224   0.49662   -1.000
 3406.00    0.34898   0.48949   -1.000
 3407.00    0.37245   0.48188   -1.000
 3408.00    0.41020   0.47872   -1.000
 3409.00    0.39483   0.48381   -1.000
 3410.00    0.39523   0.49394   -1.000
 3411.00    0.45127   0.49735   58.790
 3412.00    0.44212   0.48716   58.451
 3413.00    0.45255   0.46913   56.728
 3414.00    0.42606   0.45680   56.233
 3415.00    0.36259   0.45930   -1.000
 3416.00    0.37196   0.47547   -1.000
 3417.00    0.43002   0.49868   -1.000
 3418.00    0.44963   0.52277   -1.000
 3419.00    0.43457   0.54393   -1.000
 3420.00    0.40028   0.55580   -1.000
 3421.00    0.44105   0.55307   -1.000
 3422.00    0.48013   0.53941   50.106
 3423.00    0.44797   0.52530   -1.000
 3424.00    0.37048   0.51877   -1.000
 3425.00    0.44212   0.52007   -1.000
 3426.00    0.41032   0.52507   -1.000
 3427.00    0.45130   0.53461   -1.000
 3428.00    0.48259   0.55407   -1.000
 3429.00    0.49493   0.57610   -1.000
 3430.00    0.50954   0.58388   -1.000
 3431.00    0.52200   0.57008   -1.000
 3432.00    0.45085   0.54458   -1.000
 3433.00    0.42745   0.52586   -1.000
 3434.00    0.47778   0.52388   -1.000
 3435.00    0.45422   0.53289   -1.000
 3436.00    0.44287   0.53769   -1.000
 3437.00    0.45710   0.52945   -1.000
 3438.00    0.42803   0.50608   -1.000
 3439.00    0.46614   0.46993   53.050
 3440.00    0.44131   0.42852   51.569
 3441.00    0.43193   0.39608   54.631
 3442.00    0.40938   0.38580   58.917
 3443.00    0.42469   0.39601   61.451
 3444.00    0.37596   0.41590   61.712
 3445.00    0.41750   0.43701   61.472
 3446.00    0.52733   0.46002   -1.000
 3447.00    0.47733   0.48793   55.988
 3448.00    0.44697   0.51805   -1.000
 3449.00    0.44259   0.54191   -1.000
 3450.00    0.40435   0.54935   -1.000
 3451.00    0.47610   0.53769   -1.000
 3452.00    0.47585   0.51719   -1.000
 3453.00    0.49109   0.50567   -1.000
 3454.00    0.52729   0.51056   -1.000
 3455.00    0.52540   0.52182  388.437
 3456.00    0.48303   0.52466   -1.000
 3457.00    0.46757   0.51107   -1.000
 3458.00    0.50496   0.48819   -1.000
 3459.00    0.51216   0.46811   -1.000
 3460.00    0.50889   0.45461   -1.000
 3461.00    0.46774   0.45334   53.898
 3462.00    0.45193   0.47070   50.177
 3463.00    0.46718   0.49644   49.923
 3464.00    0.43706   0.51165   -1.000
 3465.00    0.49338   0.51219   -1.000
 3466.00    0.52407   0.50798   -1.000
 3467.00    0.48477   0.51192   -1.000
 3468.00    0.52982   0.52561  388.437
 3469.00    0.58133   0.54116   -1.000
 3470.00    0.55058   0.54910  388.437
 3471.00    0.63281   0.54391   -1.000
 3472.00    0.53481   0.52550   -1.000
 3473.00    0.53046   0.49727   -1.000
 3474.00    0.52241   0.46488   -1.000
 3475.00    0.49824   0.43982   -1.000
 3476.00    0.43072   0.43596  388.437
 3477.00    0.38856   0.45460   -1.000
 3478.00    0.43087   0.48341   51.677
 3479.00    0.42971   0.50842   -1.000
 3480.00    0.45637   0.52184   -1.000
 3481.00    0.50569   0.52261   -1.000
 3482.00    0.46234   0.51399   -1.000
 3483.00    0.43900   0.50276   -1.000
 3484.00    0.45737   0.49890   -1.000
 3485.00    0.51260   0.51035  388.437
 3486.00    0.49388   0.53265   -1.000
 3487.00    0.52619   0.54569   -1.000
 3488.00    0.59207   0.53506   -1.000
 3489.00    0.58671   0.50662   -1.000
 3490.00    0.52814   0.47939   -1.000
 3491.00    0.44572   0.46913   -1.000
 3492.00    0.41020   0.47483   -1.000
 3493.00    0.44718   0.48558   -1.000
 3494.00    0.47154   0.49026   -1.000
 3495.00    0.50342   0.48442   -1.000
 3496.00    0.50270   0.47518   -1.000
 3497.00    0.50833   0.47885   -1.000
 3498.00    0.48394   0.50343   -1.000
 3499.00    0.54263   0.53377   -1.000
 3500.00    0.60629   0.55225   -1.000
 3501.00    0.57817   0.56074   -1.000
 3502.00    0.62325   0.56784   -1.000
 3503.00    0.65069   0.57398   -1.000
 3504.00    0.55145   0.57154   -1.000
 3505.00    0.58981   0.55992   -1.000
 3506.00    0.58152   0.54861   -1.000
 3507.00    0.58447   0.54370   -1.000
 3508.00    0.55737   0.54188   -1.000
 3509.00    0.54155   0.53515  388.437
 3510.00    0.52314   0.52259  388.437
 3511.00    0.48259   0.50935   -1.000
 3512.00    0.54687   0.49716   -1.000
 3513.00    0.59104   0.48443   -1.000
 3514.00    0.52952   0.48018   -1.000
 3515.00    0.53151   0.49577   -1.000
 3516.00    0.50993   0.52915   -1.000
 3517.00    0.52158   0.56350   -1.000
 3518.00    0.56791   0.57903   -1.000
 3519.00    0.60073   0.56983   -1.000
 3520.00    0.62011   0.54277   -1.000
 3521.00    0.55497   0.51173   -1.000
 3522.00    0.54719   0.48639   -1.000
 3523.00    0.45968   0.46338  388.437
 3524.00    0.41906   0.44305   -1.000
 3525.00    0.50890   0.43364   -1.000
 3526.00    0.48359   0.44392   56.013
 3527.00    0.47531   0.47450   51.100
 3528.00    0.50559   0.51314   51.026
 3529.00    0.48645   0.54278   -1.000
 3530.00    0.53365   0.55457   -1.000
 3531.00    0.59233   0.55228   -1.000
 3532.00    0.61544   0.54838   -1.000
 3533.00    0.58799   0.55303   -1.000
 3534.00    0.51275   0.56494   -1.000
 3535.00    0.56053   0.57523   -1.000
 3536.00    0.64124   0.58008   -1.000
 3537.00    0.59084   0.58517  388.437
 3538.00    0.57007   0.59553   -1.000
 3539.00    0.59104   0.60530   -1.000
 3540.00    0.60942   0.60385  388.437
 3541.00    0.61301   0.59399   -1.000
 3542.00    0.53049   0.58996   -1.000
 3543.00    0.55949   0.59583   -1.000
 3544.00    0.67747   0.60559   -1.000
 3545.00    0.63322   0.60993   -1.000
 3546.00    0.59140   0.60526   -1.000
 3547.00    0.58617   0.59787   -1.000
 3548.00    0.58774   0.59449  388.437
 3549.00    0.56419   0.59630   -1.000
 3550.00    0.57149   0.59839   -1.000
 3551.00    0.58556   0.59468   -1.000
 3552.00    0.58990   0.58250   -1.000
 3553.00    0.52303   0.56781   -1.000
 3554.00    0.53366   0.55968   -1.000
 3555.00    0.45728   0.56141   -1.000
 3556.00    0.48877   0.56769   -1.000
 3557.00    0.55607   0.56895   -1.000
 3558.00    0.49752   0.56341   -1.000
 3559.00    0.52884   0.55904   -1.000
 3560.00    0.54653   0.56420   -1.000
 3561.00    0.46556   0.57950   -1.000
 3562.00    0.51503   0.59276   -1.000
 3563.00    0.57757   0.58443  388.437
 3564.00    0.56026   0.54395   -1.000
 3565.00    0.53287   0.49397   -1.000
 3566.00    0.48521   0.46708   -1.000
 3567.00    0.45018   0.46410   57.994
 3568.00    0.44034   0.46435   51.778
 3569.00    0.44909   0.45219   51.572
 3570.00    0.46398   0.43691   51.237
 3571.00    0.42616   0.43875   52.687
 3572.00    0.42196   0.45695   53.784
 3573.00    0.47579   0.47742   52.478
 3574.00    0.49817   0.49131   50.223
 3575.00    0.53252   0.49839   -1.000
 3576.00    0.51189   0.50192   -1.000
 3577.00    0.48869   0.49922   -1.000
 3578.00    0.47694   0.48426  388.437
 3579.00    0.47886   0.45522   -1.000
 3580.00    0.47466   0.42193   -1.000
 3581.00    0.43375   0.39902   60.492
 3582.00    0.36848   0.39466   55.155
 3583.00    0.38069   0.40269   58.404
 3584.00    0.38259   0.40467   59.216
 3585.00    0.37025   0.39473   59.476
 3586.00    0.36835   0.38594   60.784
 3587.00    0.35967   0.39040   62.722
 3588.00    0.36675   0.41177   63.795
 3589.00    0.41754   0.44601   61.182
 3590.00    0.47583   0.48473   57.937
 3591.00    0.51009   0.51692   55.095
 3592.00    0.55593   0.53352   50.492
 3593.00    0.55553   0.53776   -1.000
 3594.00    0.53951   0.54329  388.437
 3595.00    0.52796   0.55991   -1.000
 3596.00    0.56379   0.58196   -1.000
 3597.00    0.57235   0.60002   -1.000
 3598.00    0.61679   0.61377  388.437
 3599.00    0.61304   0.62298   -1.000
 3600.00    0.61903   0.62100  379.413
 3601.00    0.60912   0.60085   -1.000
 3602.00    0.63329   0.56706   -1.000
 3603.00    0.56825   0.53386   -1.000
 3604.00    0.55060   0.51388   -1.000
 3605.00    0.55045   0.50947   -1.000
 3606.00    0.50913   0.50973  388.437
 3607.00    0.48831   0.50247   -1.000
 3608.00    0.50395   0.48654   -1.000
 3609.00    0.49323   0.47485   -1.000
 3610.00    0.46503   0.48221   -1.000
 3611.00    0.44137   0.50311   -1.000
 3612.00    0.50113   0.52188   -1.000
 3613.00    0.56974   0.53636   -1.000
 3614.00    0.55967   0.55158   -1.000
 3615.00    0.54166   0.56556   -1.000
 3616.00    0.56905   0.56156   -1.000
 3617.00    0.55769   0.52541   -1.000
 3618.00    0.51431   0.47924   -1.000
 3619.00    0.50765   0.46062   -1.000
 3620.00    0.49825   0.47980   -1.000
 3621.00    0.49883   0.51971   59.210
 3622.00    0.53594   0.55699   -1.000
 3623.00    0.60051   0.58185   -1.000
 3624.00    0.61496   0.60205   -1.000
 3625.00    0.57500   0.62948   -1.000
 3626.00    0.62653   0.66101   -1.000
 3627.00    0.65661   0.68275   -1.000
 3628.00    0.69665   0.67773   -1.000
 3629.00    0.62122   0.63583   -1.000
 3630.00    0.52219   0.57156   -1.000
 3631.00    0.45945   0.51800   -1.000
 3632.00    0.49828   0.49889  388.437
 3633.00    0.53431   0.51135   -1.000
 3634.00    0.53977   0.53504  388.437
 3635.00    0.50130   0.55470   -1.000
 3636.00    0.50816   0.56877   -1.000
 3637.00    0.55826   0.58723   -1.000
 3638.00    0.58781   0.61359   -1.000
 3639.00    0.59213   0.63983   -1.000
 3640.00    0.60436   0.65325   -1.000
 3641.00    0.65752   0.64606   -1.000
 3642.00    0.62194   0.62242  357.839
 3643.00    0.55445   0.59353   -1.000
 3644.00    0.57483   0.56956  376.925
 3645.00    0.60105   0.55301   -1.000
 3646.00    0.56168   0.53890   -1.000
 3647.00    0.53075   0.52694  388.437
 3648.00    0.52968   0.52375  388.437
 3649.00    0.54874   0.53329   -1.000
 3650.00    0.57215   0.55559   -1.000
 3651.00    0.60346   0.58739   -1.000
 3652.00    0.65178   0.62043   -1.000
 3653.00    0.64677   0.64510  388.343
 3654.00    0.65830   0.65872  371.561
 3655.00    0.62723   0.66664   -1.000
 3656.00    0.67146   0.67767  355.486
 3657.00    0.68836   0.69231  353.585
 3658.00    0.66109   0.70361   -1.000
 3659.00    0.65671   0.70901   -1.000
 3660.00    0.65649   0.70817   -1.000
 3661.00    0.69273   0.69900  340.014
 3662.00    0.61016   0.68332   -1.000
 3663.00    0.58876   0.66789   -1.000
 3664.00    0.65266   0.65957  346.839
 3665.00    0.65118   0.65948   -1.000
 3666.00    0.62986   0.66073   -1.000
 3667.00    0.62839   0.65493   -1.000
 3668.00    0.62615   0.64006   -1.000
 3669.00    0.61130   0.62784   -1.000
 3670.00    0.58688   0.63175   -1.000
 3671.00    0.60181   0.65085   -1.000
 3672.00    0.66045   0.67152   -1.000
 3673.00    0.69838   0.68196   -1.000
 3674.00    0.67893   0.68055  350.439
 3675.00    0.67074   0.66815  348.063
 3676.00    0.65933   0.64663   -1.000
 3677.00    0.64289   0.62083   -1.000
 3678.00    0.60483   0.59649  357.158
 3679.00    0.60317   0.58088   -1.000
 3680.00    0.62175   0.57859   -1.000
 3681.00    0.59175   0.58951  388.437
 3682.00    0.60217   0.60709  388.437
 3683.00    0.64750   0.61945   -1.000
 3684.00    0.62180   0.61586  371.458
 3685.00    0.60784   0.59272   -1.000
 3686.00    0.59216   0.56273   -1.000
 3687.00    0.57319   0.54706   -1.000
 3688.00    0.54910   0.55778   -1.000
 3689.00    0.58403   0.59198   -1.000
 3690.00    0.64869   0.63526   -1.000
 3691.00    0.64012   0.66680   -1.000
 3692.00    0.66313   0.67345   -1.000
 3693.00    0.64608   0.66269   -1.000
 3694.00    0.64370   0.64971  341.775
 3695.00    0.64855   0.64255  349.863
 3696.00    0.62879   0.64395   -1.000
 3697.00    0.65668   0.65672  355.547
 3698.00    0.63075   0.68030   -1.000
 3699.00    0.65375   0.70503   -1.000
 3700.00    0.68113   0.71728   -1.000
 3701.00    0.71415   0.70685  329.487
 3702.00    0.72577   0.66947   -1.000
 3703.00    0.68175   0.61399   -1.000
 3704.00    0.67393   0.55796   -1.000
 3705.00    0.62223   0.51930   -1.000
 3706.00    0.57244   0.50697   -1.000
 3707.00    0.52676   0.51266   -1.000
 3708.00    0.50306   0.52508   -1.000
 3709.00    0.53494   0.54181  388.437
 3710.00    0.59768   0.56576   -1.000
 3711.00    0.63660   0.59850   -1.000
 3712.00    0.66304   0.63923   -1.000
 3713.00    0.66352   0.67851   -1.000
 3714.00    0.70851   0.70397  350.686
 3715.00    0.73036   0.70973   -1.000
 3716.00    0.73225   0.69436   -1.000
 3717.00    0.71973   0.65842   -1.000
 3718.00    0.65920   0.60296   -1.000
 3719.00    0.52345   0.53169  340.401
 3720.00    0.44491   0.46809   -1.000
 3721.00    0.45701   0.44112   -1.000
 3722.00    0.50492   0.45859   -1.000
 3723.00    0.50988   0.50893   64.678
 3724.00    0.54454   0.56864   -1.000
 3725.00    0.61415   0.60824  388.437
 3726.00    0.65102   0.61504   -1.000
 3727.00    0.65874   0.60706   -1.000
 3728.00    0.67466   0.60550   -1.000
 3729.00    0.77838   0.60986   -1.000
 3730.00    0.86975   0.60529   -1.000
 3731.00    0.79514   0.57672   -1.000
 3732.00    0.63898   0.52382   -1.000
 3733.00    0.51244   0.46233   -1.000
 3734.00    0.43090   0.40974   -1.000
 3735.00    0.43814   0.38279   -1.000
 3736.00    0.46547   0.39168   -1.000
 3737.00    0.46520   0.43302   56.879
 3738.00    0.48072   0.49550   55.214
 3739.00    0.51453   0.56131   50.564
 3740.00    0.55280   0.60780   -1.000
 3741.00    0.60786   0.62169   -1.000
 3742.00    0.60814   0.60500  375.123
 3743.00    0.59466   0.56868   -1.000
 3744.00    0.57486   0.52871   -1.000
 3745.00    0.52375   0.49743   -1.000
 3746.00    0.52764   0.47238   -1.000
 3747.00    0.51599   0.44537   -1.000
 3748.00    0.47619   0.41632   -1.000
 3749.00    0.43828   0.40356   65.548
 3750.00    0.46294   0.42630   52.438
 3751.00    0.51883   0.48173   53.743
 3752.00    0.60048   0.54924   -1.000
 3753.00    0.64441   0.61264   -1.000
 3754.00    0.67516   0.66055   -1.000
 3755.00    0.69375   0.67782   -1.000
 3756.00    0.69928   0.65444   -1.000
 3757.00    0.66547   0.60191   -1.000
 3758.00    0.54214   0.55112   -1.000
 3759.00    0.50801   0.52997   -1.000
 3760.00    0.55858   0.54069   -1.000
 3761.00    0.61312   0.56124   -1.000
 3762.00    0.60080   0.57450   -1.000
 3763.00    0.58946   0.58069   -1.000
 3764.00    0.57813   0.58282  383.943
 3765.00    0.59366   0.57922   -1.000
 3766.00    0.57481   0.57048  376.108
 3767.00    0.59321   0.56209   -1.000
 3768.00    0.64886   0.55710   -1.000
 3769.00    0.62963   0.55477   -1.000
 3770.00    0.61073   0.55628   -1.000
 3771.00    0.60229   0.56978   -1.000
 3772.00    0.60984   0.59860   -1.000
 3773.00    0.66666   0.62997   -1.000
 3774.00    0.71184   0.65002   -1.000
 3775.00    0.71004   0.65983   -1.000
 3776.00    0.67138   0.66671  342.586
 3777.00    0.67858   0.67647  342.073
 3778.00    0.69624   0.69177  341.345
 3779.00    0.70628   0.71042  340.416
 3780.00    0.71526   0.72820   -1.000
 3781.00    0.73568   0.74134  327.002
 3782.00    0.76620   0.74910   -1.000
 3783.00    0.77717   0.74979   -1.000
 3784.00    0.74323   0.73583  312.978
 3785.00    0.70066   0.70219  312.601
 3786.00    0.67411   0.65870   -1.000
 3787.00    0.63170   0.62055   -1.000
 3788.00    0.60534   0.59721   -1.000
 3789.00    0.58281   0.59131  375.796
 3790.00    0.59216   0.59742  385.948
 3791.00    0.63147   0.60439   -1.000
 3792.00    0.64526   0.60043   -1.000
 3793.00    0.58546   0.58306  377.671
 3794.00    0.54425   0.55925   -1.000
 3795.00    0.51569   0.53552   -1.000
 3796.00    0.50775   0.51139  388.437
 3797.00    0.52098   0.48390   -1.000
 3798.00    0.52464   0.46718   -1.000
 3799.00    0.52106   0.48307   -1.000
 3800.00    0.57105   0.53003   -1.000
 3801.00    0.62449   0.58942   -1.000
 3802.00    0.64384   0.64251  388.437
 3803.00    0.65373   0.67620   -1.000
 3804.00    0.68573   0.68735  361.904
 3805.00    0.69335   0.67764   -1.000
 3806.00    0.66682   0.65695   -1.000
 3807.00    0.65255   0.64703  351.553
 3808.00    0.66028   0.66015  362.749
 3809.00    0.68068   0.68640  371.847
 3810.00    0.70081   0.70472  366.778
 3811.00    0.69391   0.69902  353.642
 3812.00    0.65218   0.66863   -1.000
 3813.00    0.60044   0.62393   -1.000
 3814.00    0.58544   0.58006  366.223
 3815.00    0.55844   0.55428  388.276
 3816.00    0.57437   0.55464   -1.000
 3817.00    0.56607   0.56629  388.437
 3818.00    0.59088   0.56534   -1.000
 3819.00    0.56930   0.54275   -1.000
 3820.00    0.52752   0.51592   -1.000
 3821.00    0.53637   0.51037   -1.000
 3822.00    0.52998   0.52258   -1.000
 3823.00    0.53833   0.52609   -1.000
 3824.00    0.53280   0.50703   -1.000
 3825.00    0.46735   0.47690   -1.000
 3826.00    0.44316   0.45527   -1.000
 3827.00    0.44748   0.44912   71.678
 3828.00    0.42876   0.45388   52.521
 3829.00    0.42984   0.45989   52.529
 3830.00    0.41836   0.45819   51.784
 3831.00    0.40735   0.44373   50.933
 3832.00    0.45553   0.41934   51.128
 3833.00    0.44039   0.39377   52.961
 3834.00    0.39276   0.37892   56.667
 3835.00    0.40571   0.38014   59.281
 3836.00    0.42972   0.38978   58.969
 3837.00    0.42272   0.39670   56.911
 3838.00    0.41904   0.39873   55.342
 3839.00    0.40879   0.40551   55.805
 3840.00    0.40341   0.42980   57.131
 3841.00    0.45337   0.47383   56.831
 3842.00    0.50646   0.52711   54.206
 3843.00    0.52133   0.57473   -1.000
 3844.00    0.55923   0.60519   -1.000
 3845.00    0.59801   0.62049   -1.000
 3846.00    0.60181   0.63091   -1.000
 3847.00    0.61614   0.63925   -1.000
 3848.00    0.64203   0.63819  388.437
 3849.00    0.61860   0.62887   -1.000
 3850.00    0.56069   0.62310   -1.000
 3851.00    0.56200   0.62842   -1.000
 3852.00    0.60790   0.64062   -1.000
 3853.00    0.63285   0.64546   -1.000
 3854.00    0.60697   0.63428   -1.000
 3855.00    0.55200   0.61439   -1.000
 3856.00    0.53442   0.59327   -1.000
 3857.00    0.52949   0.56926   -1.000
 3858.00    0.50241   0.54214   -1.000
 3859.00    0.48476   0.52314   -1.000
 3860.00    0.49221   0.52935   69.594
 3861.00    0.52828   0.56360   51.075
 3862.00    0.56897   0.61038   51.309
 3863.00    0.61471   0.64377   -1.000
 3864.00    0.63810   0.65166   -1.000
 3865.00    0.61222   0.64591   -1.000
 3866.00    0.58493   0.63925   -1.000
 3867.00    0.58736   0.63561   -1.000
 3868.00    0.59566   0.63121   -1.000
 3869.00    0.57613   0.61794   -1.000
 3870.00    0.54069   0.59287   -1.000
 3871.00    0.50816   0.56468   -1.000
 3872.00    0.49578   0.55031   -1.000
 3873.00    0.50511   0.56118   -1.000
 3874.00    0.53987   0.59449   -1.000
 3875.00    0.58761   0.62535   -1.000
 3876.00    0.61475   0.62741   -1.000
 3877.00    0.57361   0.60328   -1.000
 3878.00    0.56413   0.57759   -1.000
 3879.00    0.55887   0.56830   -1.000
 3880.00    0.54405   0.57208   -1.000
 3881.00    0.54749   0.57715   -1.000
 3882.00    0.54621   0.57988   -1.000
 3883.00    0.56759   0.58225   -1.000
 3884.00    0.59988   0.57822   -1.000
 3885.00    0.58395   0.55738   -1.000
 3886.00    0.56710   0.52097   -1.000
 3887.00    0.56157   0.48760   -1.000
 3888.00    0.54587   0.47520   -1.000
 3889.00    0.56743   0.49169   -1.000
 3890.00    0.59173   0.53373   -1.000
 3891.00    0.61556   0.58724   -1.000
 3892.00    0.64740   0.62908   -1.000
 3893.00    0.67467   0.64461   -1.000
 3894.00    0.67042   0.64289   -1.000
 3895.00    0.64785   0.64276  334.202
 3896.00    0.67840   0.65328   -1.000
 3897.00    0.70347   0.66618   -1.000
 3898.00    0.69227   0.67090   -1.000
 3899.00    0.71457   0.67080   -1.000
 3900.00    0.71609   0.67447   -1.000
 3901.00    0.68948   0.68039  330.621
 3902.00    0.67806   0.67964  329.048
 3903.00    0.70372   0.66708   -1.000
 3904.00    0.69936   0.64799   -1.000
 3905.00    0.66536   0.63592   -1.000
 3906.00    0.64023   0.64200  347.273
 3907.00    0.65541   0.66797   -1.000
 3908.00    0.71944   0.70548   -1.000
 3909.00    0.71894   0.73805   -1.000
 3910.00    0.71292   0.75736   -1.000
 3911.00    0.76450   0.76860  308.711
 3912.00    0.78140   0.77407  304.495
 3913.00    0.73728   0.77192   -1.000
 3914.00    0.74625   0.76337   -1.000
 3915.00    0.76270   0.75104   -1.000
 3916.00    0.73910   0.73806  306.610
 3917.00    0.70496   0.72406   -1.000
 3918.00    0.67914   0.70421   -1.000
 3919.00    0.67216   0.67755  322.908
 3920.00    0.65994   0.65006   -1.000
 3921.00    0.62614   0.63288  343.512
 3922.00    0.63112   0.63261  359.618
 3923.00    0.64807   0.64161  370.530
 3924.00    0.65351   0.64382   -1.000
 3925.00    0.64224   0.62799   -1.000
 3926.00    0.59038   0.59215  364.577
 3927.00    0.52247   0.54037   -1.000
 3928.00    0.46558   0.48083   -1.000
 3929.00    0.43088   0.42169   -1.000
 3930.00    0.36827   0.36415   81.794
 3931.00    0.30809   0.30992   60.379
 3932.00    0.27388   0.26364   70.695
 3933.00    0.24106   0.23375   83.273
 3934.00    0.20740   0.23108   97.875
 3935.00    0.21656   0.25854   -1.000
 3936.00    0.27049   0.30768   -1.000
 3937.00    0.31877   0.36976   -1.000
 3938.00    0.38291   0.43587   -1.000
 3939.00    0.45820   0.49545   68.486
 3940.00    0.53414   0.54228   57.132
 3941.00    0.55735   0.57114  119.294
 3942.00    0.53944   0.58290   -1.000
 3943.00    0.56092   0.58776   -1.000
 3944.00    0.58596   0.59925   -1.000
 3945.00    0.60118   0.62439   -1.000
 3946.00    0.64659   0.65451  388.437
 3947.00    0.67893   0.67594  374.940
 3948.00    0.69622   0.68983  348.572
 3949.00    0.71492   0.70573  338.840
 3950.00    0.73624   0.72177   -1.000
 3951.00    0.74776   0.72900   -1.000
 3952.00    0.74957   0.72983   -1.000
 3953.00    0.75494   0.73415   -1.000
 3954.00    0.76401   0.74216   -1.000
 3955.00    0.76904   0.74237   -1.000
 3956.00    0.75910   0.73146   -1.000
 3957.00    0.74582   0.72190   -1.000
 3958.00    0.70818   0.71768   -1.000
 3959.00    0.72162   0.70279   -1.000
 3960.00    0.72327   0.66216   -1.000
 3961.00    0.65620   0.60267   -1.000
 3962.00    0.59058   0.54716   -1.000
 3963.00    0.52831   0.50752   -1.000
 3964.00    0.46853   0.47325  388.437
 3965.00    0.42903   0.42721  388.437
 3966.00    0.38347   0.36291   79.562
 3967.00    0.32311   0.29718   56.655
 3968.00    0.26475   0.25516   68.444
 3969.00    0.24193   0.24994   84.082
 3970.00    0.26524   0.28048   96.976
 3971.00    0.33381   0.33654   96.311
 3972.00    0.42081   0.40361   82.762
 3973.00    0.48507   0.47257   68.034
 3974.00    0.51897   0.54001   56.562
 3975.00    0.57894   0.60179  112.526
 3976.00    0.64245   0.65686   -1.000
 3977.00    0.70138   0.70581  378.211
 3978.00    0.74887   0.75085  345.709
 3979.00    0.80634   0.78897   -1.000
 3980.00    0.83106   0.81113   -1.000
 3981.00    0.84378   0.81464   -1.000
 3982.00    0.83101   0.80792   -1.000
 3983.00    0.80059   0.80478  280.805
 3984.00    0.80196   0.81227   -1.000
 3985.00    0.82767   0.82631  285.887
 3986.00    0.86248   0.84260   -1.000
 3987.00    0.85539   0.85987  275.617
 3988.00    0.85598   0.87445   -1.000
 3989.00    0.89306   0.88341  265.914
 3990.00    0.90803   0.88901   -1.000
 3991.00    0.91168   0.89762   -1.000
 3992.00    0.92922   0.91027   -1.000
 3993.00    0.98303   0.91808   -1.000
 3994.00    0.98086   0.91272   -1.000
 3995.00    0.92087   0.89505   -1.000
 3996.00    0.89703   0.87507   -1.000
 3997.00    0.89310   0.86619   -1.000
 3998.00    0.89050   0.87600   -1.000
 3999.00    0.91509   0.90008   -1.000
 4000.00    0.94664   0.92859   -1.000
 4001.00    0.96386   0.95149  257.137
 4002.00    0.97528   0.95853   -1.000
 4003.00    0.99779   0.94204   -1.000
 4004.00    0.93161   0.90395   -1.000
 4005.00    0.86839   0.86318  239.328
 4006.00    0.84999   0.84958  250.985
 4007.00    0.88707   0.87273   -1.000
 4008.00    0.93683   0.91230   -1.000
 4009.00    0.95590   0.94480  259.512
 4010.00    0.96327   0.96235  247.189
 4011.00    0.98803   0.96952   -1.000
 4012.00    1.00191   0.97308   -1.000
 4013.00    0.99400   0.97726   -1.000
 4014.00    0.95276   0.98197   -1.000
 4015.00    0.99789   0.98352  239.327
 4016.00    1.02370   0.98036   -1.000
 4017.00    1.00000   0.97716   -1.000
 4018.00    1.00243   0.98108   -1.000
 4019.00    1.01593   0.99058   -1.000
 4020.00    1.00078   0.99786  238.974
 4021.00    1.00739   0.99791  236.238
 4022.00    1.01993   0.99299   -1.000
 4023.00    0.99362   0.98645  237.355
 4024.00    0.96302   0.98115   -1.000
 4025.00    0.99184   0.98434  241.132
 4026.00    1.03286   1.00059   -1.000
 4027.00    1.06690   1.02166   -1.000
 4028.00    1.09415   1.02479   -1.000
 4029.00    1.05854   0.99467   -1.000
 4030.00    0.98602   0.94227   -1.000
 4031.00    0.92680   0.89158   -1.000
 4032.00    0.88311   0.86214   -1.000
 4033.00    0.89181   0.85937   -1.000
 4034.00    0.92553   0.88067   -1.000
 4035.00    0.94388   0.92174   -1.000
 4036.00    0.97916   0.97527  257.491
 4037.00    1.02000   1.02624  246.414
 4038.00    1.07104   1.05410   -1.000
 4039.00    1.09472   1.05104   -1.000
 4040.00    1.06196   1.03370   -1.000
 4041.00    1.00408   1.01938   -1.000
 4042.00    1.00176   1.00154  228.420
 4043.00    1.02309   0.96053   -1.000
 4044.00    0.98074   0.89187   -1.000
 4045.00    0.91383   0.83201   -1.000
 4046.00    0.84888   0.82402   -1.000
 4047.00    0.84416   0.87024   -1.000
 4048.00    0.92360   0.93977   -1.000
 4049.00    1.00073   0.99755  262.552
 4050.00    1.04664   1.02731   -1.000
 4051.00    1.04985   1.03151   -1.000
 4052.00    1.03961   1.01779   -1.000
 4053.00    1.02376   0.99484   -1.000
 4054.00    0.97463   0.97405  232.168
 4055.00    0.94107   0.95907   -1.000
 4056.00    0.93923   0.94551  243.217
 4057.00    0.96381   0.93618   -1.000
 4058.00    0.98722   0.94043   -1.000
 4059.00    1.00502   0.96061   -1.000
 4060.00    1.02380   0.97991   -1.000
 4061.00    1.00545   0.97023   -1.000
 4062.00    0.96294   0.92753   -1.000
 4063.00    0.92777   0.87893   -1.000
 4064.00    0.89870   0.85547   -1.000
 4065.00    0.89682   0.86435   -1.000
 4066.00    0.92558   0.89091   -1.000
 4067.00    0.93900   0.92227   -1.000
 4068.00    0.97755   0.95139   -1.000
 4069.00    1.04765   0.96419   -1.000
 4070.00    1.04322   0.94945   -1.000
 4071.00    0.99533   0.92110   -1.000
 4072.00    0.96800   0.90770   -1.000
 4073.00    0.98517   0.91983   -1.000
 4074.00    1.01395   0.93391   -1.000
 4075.00    0.99497   0.92141   -1.000
 4076.00    0.93778   0.88630   -1.000
 4077.00    0.88970   0.85704   -1.000
 4078.00    0.88794   0.86012   -1.000
 4079.00    0.92111   0.89923   -1.000
 4080.00    0.97879   0.95436   -1.000
 4081.00    1.02759   0.99421   -1.000
 4082.00    1.05553   1.00061   -1.000
 4083.00    1.01979   0.98205   -1.000
 4084.00    0.95933   0.96306  231.093
 4085.00    0.96296   0.96514  237.393
 4086.00    1.00559   0.99100   -1.000
 4087.00    1.06963   1.02798   -1.000
 4088.00    1.12232   1.05773   -1.000
 4089.00    1.14254   1.06733   -1.000
 4090.00    1.11462   1.05676   -1.000
 4091.00    1.06203   1.03824   -1.000
 4092.00    1.04335   1.02418   -1.000
 4093.00    1.04498   1.01285   -1.000
 4094.00    1.02638   0.99565   -1.000
 4095.00    1.00403   0.96799   -1.000
 4096.00    0.98755   0.93593   -1.000
 4097.00    0.96696   0.90781   -1.000
 4098.00    0.95404   0.87893   -1.000
 4099.00    0.90976   0.83749   -1.000
 4100.00    0.84919   0.78236   -1.000
 4101.00    0.81114   0.73639   -1.000
 4102.00    0.79590   0.72826   -1.000
 4103.00    0.82011   0.76545   -1.000
 4104.00    0.87583   0.83125   -1.000
 4105.00    0.93322   0.89586   -1.000
 4106.00    0.97819   0.93946   -1.000
 4107.00    1.01140   0.96183   -1.000
 4108.00    0.99994   0.96791   -1.000
 4109.00    0.98619   0.96448   -1.000
 4110.00    0.99680   0.96185   -1.000
 4111.00    0.98603   0.96635   -1.000
 4112.00    0.97689   0.97868  249.811
 4113.00    0.99340   0.99703  249.827
 4114.00    1.01916   1.01819  245.220
 4115.00    1.04563   1.03450  240.339
 4116.00    1.05583   1.03763   -1.000
 4117.00    1.05262   1.02597   -1.000
 4118.00    1.03420   1.00721   -1.000
 4119.00    1.00036   0.99281  236.349
 4120.00    1.00145   0.98951  243.039
 4121.00    1.00752   0.99468  248.511
 4122.00    0.98540   1.00121   -1.000
 4123.00    0.98293   1.00787   -1.000
 4124.00    1.01323   1.01691  244.129
 4125.00    1.04309   1.02454   -1.000
 4126.00    1.03459   1.02283  239.323
 4127.00    0.99487   1.01198   -1.000
 4128.00    0.98510   1.00021   -1.000
 4129.00    1.02464   0.99149   -1.000
 4130.00    1.04205   0.97826   -1.000
 4131.00    1.00057   0.95441   -1.000
 4132.00    0.95384   0.92909   -1.000
 4133.00    0.92908   0.92022  255.543
 4134.00    0.93751   0.93852  263.742
 4135.00    0.97832   0.97677  268.106
 4136.00    1.02548   1.01861  263.624
 4137.00    1.05349   1.05129  252.272
 4138.00    1.05492   1.07187   -1.000
 4139.00    1.06804   1.08001   -1.000
 4140.00    1.08097   1.06774   -1.000
 4141.00    1.04248   1.02783   -1.000
 4142.00    0.96582   0.97205  232.227
 4143.00    0.89882   0.92760   -1.000
 4144.00    0.88862   0.92028   -1.000
 4145.00    0.94209   0.95129  275.594
 4146.00    1.00228   0.99266  277.092
 4147.00    1.02723   1.01733  263.030
 4148.00    1.01614   1.01974  250.213
 4149.00    0.99454   1.01295   -1.000
 4150.00    0.98167   1.00994   -1.000
 4151.00    0.98819   1.00967   -1.000
 4152.00    1.00011   1.00446  256.775
 4153.00    0.97257   0.99121   -1.000
 4154.00    0.94338   0.97650   -1.000
 4155.00    0.94873   0.97093   -1.000
 4156.00    0.97039   0.97913  259.436
 4157.00    0.98009   0.99770   -1.000
 4158.00    1.03551   1.02165   -1.000
 4159.00    1.27803   1.04572   -1.000
 4160.00    1.28930   1.06466   -1.000
 4161.00    0.84512   1.07868   -1.000
 4162.00    0.77662   1.09010   -1.000
 4163.00    1.08485   1.09746   -1.000
 4164.00    1.09678   1.09581  236.667
 4165.00    1.00569   1.08081   -1.000
 4166.00    0.99293   1.05746   -1.000
 4167.00    0.97293   1.03934   -1.000
 4168.00    0.96645   1.03440   -1.000
 4169.00    0.98272   1.03482   -1.000
 4170.00    0.98136   1.02181   -1.000
 4171.00    0.94331   0.98835   -1.000
 4172.00    0.90802   0.94863   -1.000
 4173.00    0.89518   0.92801   -1.000
 4174.00    0.90366   0.93769   -1.000
 4175.00    0.94030   0.96305   -1.000
 4176.00    0.97858   0.98344  277.041
 4177.00    0.98626   0.99544  266.823
 4178.00    0.97852   1.00812   -1.000
 4179.00    0.96400   1.02259   -1.000
 4180.00    0.96915   1.02828   -1.000
 4181.00    0.96921   1.02123   -1.000
 4182.00    0.94548   1.01392   -1.000
 4183.00    0.95983   1.02003   -1.000
 4184.00    1.01220   1.03457   -1.000
 4185.00    1.04132   1.03843  250.568
 4186.00    1.02012   1.02389  245.768
 4187.00    0.97928   1.00449   -1.000
 4188.00    0.96376   0.99796   -1.000
 4189.00    0.98685   1.00793   -1.000
 4190.00    1.01228   1.02460   -1.000
 4191.00    1.02126   1.04132   -1.000
 4192.00    1.04773   1.05807  250.551
 4193.00    1.06684   1.06891  248.231
 4194.00    1.03584   1.06204   -1.000
 4195.00    0.99961   1.03418   -1.000
 4196.00    0.96833   0.99605   -1.000
 4197.00    0.92535   0.96328   -1.000
 4198.00    0.89291   0.94360   -1.000
 4199.00    0.90651   0.93532   -1.000
 4200.00    0.94563   0.93584  271.608
 4201.00    0.94380   0.94274  270.365
 4202.00    0.92617   0.95440   -1.000
 4203.00    0.94117   0.97300   -1.000
 4204.00    0.96535   0.99972   -1.000
 4205.00    0.99119   1.03009   -1.000
 4206.00    1.01351   1.05790   -1.000
 4207.00    1.02965   1.07842   -1.000
 4208.00    1.05471   1.08794   -1.000
 4209.00    1.07387   1.08758   -1.000
 4210.00    1.06371   1.08494   -1.000
 4211.00    1.04877   1.08755   -1.000
 4212.00    1.04902   1.09040   -1.000
 4213.00    1.02692   1.07876   -1.000
 4214.00    0.99745   1.04966   -1.000
 4215.00    0.98760   1.02049   -1.000
 4216.00    0.97416   1.01289   -1.000
 4217.00    1.00582   1.03447   -1.000
 4218.00    1.06650   1.07314  261.260
 4219.00    1.08595   1.10807   -1.000
 4220.00    1.09616   1.12482   -1.000
 4221.00    1.12842   1.11713  226.073
 4222.00    1.10926   1.08144   -1.000
 4223.00    1.04168   1.01626   -1.000
 4224.00    0.96780   0.92881   -1.000
 4225.00    0.87575   0.84109   -1.000
 4226.00    0.79997   0.78754  259.617
 4227.00    0.76991   0.79690   -1.000
 4228.00    0.82569   0.86968   -1.000
 4229.00    0.95389   0.96417   -1.000
 4230.00    1.02822   1.03243  292.415
 4231.00    1.05701   1.05913  257.156
 4232.00    1.05608   1.05464  237.200
 4233.00    1.03298   1.03662  230.003
 4234.00    1.04994   1.01697   -1.000
 4235.00    1.03725   1.00129   -1.000
 4236.00    1.01021   0.99259   -1.000
 4237.00    0.99184   0.99393  245.779
 4238.00    0.98227   1.00763   -1.000
 4239.00    0.99449   1.02950   -1.000
 4240.00    1.02100   1.05252   -1.000
 4241.00    1.05524   1.07271   -1.000
 4242.00    1.08035   1.09016   -1.000
 4243.00    1.10078   1.10769  235.794
 4244.00    1.11920   1.12325  233.649
 4245.00    1.12299   1.12538  231.294
 4246.00    1.11278   1.10386  226.798
 4247.00    1.05993   1.06379  225.242
 4248.00    0.99600   1.02352   -1.000
 4249.00    0.97990   0.99976   -1.000
 4250.00    0.97956   0.99922   -1.000
 4251.00    0.98129   1.01447   -1.000
 4252.00    0.99335   1.02928   -1.000
 4253.00    1.02087   1.02850  251.161
 4254.00    1.01492   1.01600  243.783
 4255.00    0.99201   1.01640   -1.000
 4256.00    1.02851   1.03762  244.602
 4257.00    1.07465   1.05529   -1.000
 4258.00    1.08560   1.04285   -1.000
 4259.00    1.04710   1.00408   -1.000
 4260.00    0.98533   0.97546  237.387
 4261.00    0.96006   0.98746   -1.000
 4262.00    1.00236   1.03749   -1.000
 4263.00    1.05692   1.09654   -1.000
 4264.00    1.09947   1.13674   -1.000
 4265.00    1.13956   1.14989   -1.000
 4266.00    1.14886   1.14159  223.104
 4267.00    1.10057   1.11798   -1.000
 4268.00    1.06862   1.07997  221.550
 4269.00    1.04289   1.02805   -1.000
 4270.00    0.97635   0.96943  234.358
 4271.00    0.92577   0.91877  242.284
 4272.00    0.89042   0.89197  254.564
 4273.00    0.87477   0.89467   -1.000
 4274.00    0.87998   0.91995   -1.000
 4275.00    0.90932   0.96196   -1.000
 4276.00    0.95793   1.01726   -1.000
 4277.00    1.04881   1.06961   -1.000
 4278.00    1.09022   1.09605  249.579
 4279.00    1.05424   1.08897   -1.000
 4280.00    1.01515   1.06608   -1.000
 4281.00    1.00473   1.05172   -1.000
 4282.00    0.99638   1.05260   -1.000
 4283.00    1.00501   1.05575   -1.000
 4284.00    1.01808   1.04809   -1.000
 4285.00    0.99700   1.03193   -1.000
 4286.00    0.98945   1.01354   -1.000
 4287.00    0.97474   0.99191   -1.000
 4288.00    0.94572   0.96166   -1.000
 4289.00    0.89567   0.92632   -1.000
 4290.00    0.84047   0.90714   -1.000
 4291.00    0.86141   0.92206   -1.000
 4292.00    0.93018   0.95974   -1.000
 4293.00    0.98653   0.99221  281.727
 4294.00    1.00576   1.00108  265.400
 4295.00    0.98484   0.98732  253.493
 4296.00    0.93391   0.95856   -1.000
 4297.00    0.89586   0.91591   -1.000
 4298.00    0.85921   0.86061  260.387
 4299.00    0.80014   0.80772  269.422
 4300.00    0.73561   0.77602   -1.000
 4301.00    0.72788   0.77083   -1.000
 4302.00    0.73988   0.78243   -1.000
 4303.00    0.76741   0.79834   -1.000
 4304.00    0.77166   0.81113   -1.000
 4305.00    0.77887   0.81227   -1.000
 4306.00    0.77883   0.79376   -1.000
 4307.00    0.75339   0.76195  305.243
 4308.00    0.72651   0.73706   -1.000
 4309.00    0.71755   0.73891   -1.000
 4310.00    0.71821   0.77159   -1.000
 4311.00    0.76569   0.82218   -1.000
 4312.00    0.80805   0.87887   -1.000
 4313.00    0.84552   0.94287   -1.000
 4314.00    0.92212   1.01797   -1.000
 4315.00    1.02087   1.10165   -1.000
 4316.00    0.76609   1.18058   -1.000
 4317.00    0.50075   1.23548   -1.000
 4318.00    1.02292   1.25473   -1.000
 4319.00    1.24086   1.24491  211.105
 4320.00    1.18827   1.21939   -1.000
 4321.00    1.17788   1.17812  208.571
 4322.00    1.13121   1.11418   -1.000
 4323.00    1.03389   1.03130  218.414
 4324.00    0.95484   0.95355  227.278
 4325.00    0.89330   0.91749   -1.000
 4326.00    0.88713   0.94380   -1.000
 4327.00    0.95477   1.02199   -1.000
 4328.00    1.06012   1.10998   -1.000
 4329.00    1.14490   1.16886   -1.000
 4330.00    1.18592   1.19183  229.967
 4331.00    1.18604   1.19711   -1.000
 4332.00    1.17032   1.20445   -1.000
 4333.00    1.15938   1.21494   -1.000
 4334.00    1.19293   1.21648   -1.000
 4335.00    1.21772   1.19377   -1.000
 4336.00    1.19017   1.13579   -1.000
 4337.00    1.08810   1.04501   -1.000
 4338.00    0.99239   0.94581   -1.000
 4339.00    0.90146   0.87238   -1.000
 4340.00    0.84721   0.84913  259.530
 4341.00    0.88349   0.88176  282.603
 4342.00    0.98103   0.95393   -1.000
 4343.00    1.06868   1.03124   -1.000
 4344.00    1.09465   1.08950  267.940
 4345.00    1.10248   1.13038   -1.000
 4346.00    1.13079   1.16289   -1.000
 4347.00    1.15256   1.19112   -1.000
 4348.00    1.16654   1.21084   -1.000
 4349.00    1.19320   1.20748   -1.000
 4350.00    1.16870   1.17013  215.818
 4351.00    1.10429   1.11351  213.851
 4352.00    1.04986   1.07518   -1.000
 4353.00    1.02560   1.07880   -1.000
 4354.00    1.04489   1.11613   -1.000
 4355.00    1.09675   1.15993   -1.000
 4356.00    1.14690   1.18899   -1.000
 4357.00    1.17878   1.19967   -1.000
 4358.00    1.17305   1.19796   -1.000
 4359.00    1.14276   1.19530   -1.000
 4360.00    1.16438   1.20402   -1.000
 4361.00    1.19690   1.22619   -1.000
 4362.00    1.20279   1.25065   -1.000
 4363.00    1.22163   1.26876   -1.000
 4364.00    1.22508   1.28060   -1.000
 4365.00    1.23917   1.28104   -1.000
 4366.00    1.25387   1.26186  206.881
 4367.00    1.18395   1.23074   -1.000
 4368.00    1.13819   1.20439   -1.000
 4369.00    1.16422   1.19007   -1.000
 4370.00    1.19196   1.18336  220.746
 4371.00    1.17443   1.17398  221.158
 4372.00    1.13769   1.15392   -1.000
 4373.00    1.11469   1.12323  218.242
 4374.00    1.08275   1.09311  219.003
 4375.00    1.05947   1.08261   -1.000
 4376.00    1.07335   1.10400   -1.000
 4377.00    1.12175   1.14482   -1.000
 4378.00    1.17534   1.17838  234.872
 4379.00    1.17187   1.18617   -1.000
 4380.00    1.15007   1.15996  215.402
 4381.00    1.12757   1.09664   -1.000
 4382.00    1.07117   1.00685   -1.000
 4383.00    0.95943   0.92361   -1.000
 4384.00    0.86343   0.89191   -1.000
 4385.00    0.89677   0.93052   -1.000
 4386.00    1.00080   1.00606  285.968
 4387.00    1.07526   1.06869  276.110
 4388.00    1.11528   1.09569   -1.000
 4389.00    1.11497   1.09908   -1.000
 4390.00    1.10429   1.10080  227.592
 4391.00    1.09568   1.11169   -1.000
 4392.00    1.10168   1.12889   -1.000
 4393.00    1.14768   1.14097  229.538
 4394.00    1.15601   1.14566  224.586
 4395.00    1.12227   1.15578   -1.000
 4396.00    1.13201   1.18038   -1.000
 4397.00    1.18012   1.20693   -1.000
 4398.00    1.22981   1.21227   -1.000
 4399.00    1.18081   1.19371   -1.000
 4400.00    1.12601   1.17000   -1.000
 4401.00    1.10473   1.15450   -1.000
 4402.00    1.14377   1.14102  224.142
 4403.00    1.15438   1.11285   -1.000
 4404.00    1.08042   1.07228  223.677
 4405.00    1.02310   1.04636   -1.000
 4406.00    1.02964   1.05182   -1.000
 4407.00    1.07631   1.07962  243.915
 4408.00    1.09721   1.11499   -1.000
 4409.00    1.12911   1.15769   -1.000
 4410.00    1.17402   1.21067   -1.000
 4411.00    1.22978   1.25703   -1.000
 4412.00    1.24663   1.27101   -1.000
 4413.00    1.25080   1.24563  209.357
 4414.00    1.22387   1.19598   -1.000
 4415.00    1.14609   1.15131  204.608
 4416.00    1.09224   1.14129   -1.000
 4417.00    1.14272   1.17377   -1.000
 4418.00    1.21914   1.22789  228.243
 4419.00    1.24486   1.27431   -1.000
 4420.00    1.23705   1.29157   -1.000
 4421.00    1.23339   1.27778   -1.000
 4422.00    1.21386   1.25163   -1.000
 4423.00    1.21206   1.23350   -1.000
 4424.00    1.18852   1.23034   -1.000
 4425.00    1.17574   1.23314   -1.000
 4426.00    1.18369   1.23334   -1.000
 4427.00    1.18552   1.23488   -1.000
 4428.00    1.21032   1.23958   -1.000
 4429.00    1.23589   1.24293  213.587
 4430.00    1.21645   1.24375   -1.000
 4431.00    1.19981   1.24303   -1.000
 4432.00    1.19685   1.23755   -1.000
 4433.00    1.20830   1.21813  213.725
 4434.00    1.16314   1.18570   -1.000
 4435.00    1.11865   1.16514   -1.000
 4436.00    1.12969   1.18200   -1.000
 4437.00    1.18284   1.23340   -1.000
 4438.00    1.24145   1.28864   -1.000
 4439.00    1.25623   1.31529   -1.000
 4440.00    1.27157   1.30165   -1.000
 4441.00    1.25790   1.25984  198.437
 4442.00    1.21533   1.21961  200.541
 4443.00    1.17203   1.20943   -1.000
 4444.00    1.15375   1.23699   -1.000
 4445.00    1.18813   1.28277   -1.000
 4446.00    1.25047   1.31911   -1.000
 4447.00    1.26987   1.33432   -1.000
 4448.00    1.28620   1.33502   -1.000
 4449.00    1.31165   1.33178   -1.000
 4450.00    1.30157   1.32654   -1.000
 4451.00    1.28031   1.31533   -1.000
 4452.00    1.28002   1.29262  206.480
 4453.00    1.26640   1.25240  207.292
 4454.00    1.21219   1.20115  206.529
 4455.00    1.14523   1.16036   -1.000
 4456.00    1.13406   1.14658   -1.000
 4457.00    1.16276   1.15508  227.268
 4458.00    1.16462   1.16780  228.827
 4459.00    1.15244   1.17374   -1.000
 4460.00    1.14027   1.17619   -1.000
 4461.00    1.14239   1.18363   -1.000
 4462.00    1.17191   1.20194   -1.000
 4463.00    1.22515   1.23120  226.415
 4464.00    1.25507   1.26151  226.262
 4465.00    1.24196   1.28018   -1.000
 4466.00    1.23391   1.28273   -1.000
 4467.00    1.24971   1.27400   -1.000
 4468.00    1.25975   1.26253  209.014
 4469.00    1.22595   1.25772   -1.000
 4470.00    1.22676   1.26867   -1.000
 4471.00    1.26999   1.29791   -1.000
 4472.00    1.31160   1.33657   -1.000
 4473.00    1.34947   1.37019   -1.000
 4474.00    1.32728   1.38972   -1.000
 4475.00    1.33717   1.39794   -1.000
 4476.00    1.36695   1.40304   -1.000
 4477.00    1.38017   1.40483   -1.000
 4478.00    1.37879   1.39237   -1.000
 4479.00    1.31608   1.35821   -1.000
 4480.00    1.24870   1.31101   -1.000
 4481.00    1.20547   1.27568   -1.000
 4482.00    1.21614   1.27311   -1.000
 4483.00    1.26379   1.30373   -1.000
 4484.00    1.32197   1.35196   -1.000
 4485.00    1.37362   1.39486   -1.000
 4486.00    1.37870   1.41238   -1.000
 4487.00    1.37858   1.39849   -1.000
 4488.00    1.33576   1.36492   -1.000
 4489.00    1.29050   1.33314   -1.000
 4490.00    1.24969   1.32200   -1.000
 4491.00    1.27466   1.33352   -1.000
 4492.00    1.30715   1.35048   -1.000
 4493.00    1.33252   1.35230   -1.000
 4494.00    1.32227   1.33558  198.945
 4495.00    1.30351   1.31904   -1.000
 4496.00    1.29538   1.32144   -1.000
 4497.00    1.26934   1.34241   -1.000
 4498.00    1.32207   1.36795   -1.000
 4499.00    1.36218   1.38558   -1.000
 4500.00    1.36274   1.39213   -1.000
 4501.00    1.34157   1.39640   -1.000
 4502.00    1.33530   1.41156   -1.000
 4503.00    1.35595   1.43906   -1.000
 4504.00    1.40049   1.46868   -1.000
 4505.00    1.39976   1.48715   -1.000
 4506.00    1.40615   1.48769   -1.000
 4507.00    1.40767   1.47637   -1.000
 4508.00    1.41031   1.46581   -1.000
 4509.00    1.43774   1.46273   -1.000
 4510.00    1.44673   1.46369   -1.000
 4511.00    1.43326   1.46004   -1.000
 4512.00    1.41719   1.44615   -1.000
 4513.00    1.39619   1.42605   -1.000
 4514.00    1.36462   1.40868   -1.000
 4515.00    1.36051   1.39936   -1.000
 4516.00    1.33965   1.39742   -1.000
 4517.00    1.32251   1.39735   -1.000
 4518.00    1.31081   1.39631   -1.000
 4519.00    1.30105   1.39967   -1.000
 4520.00    1.34545   1.41030   -1.000
 4521.00    1.38576   1.42010   -1.000
 4522.00    1.36672   1.41793   -1.000
 4523.00    1.34928   1.40076   -1.000
 4524.00    1.31911   1.37484   -1.000
 4525.00    1.27984   1.34527   -1.000
 4526.00    1.25281   1.31057   -1.000
 4527.00    1.21285   1.27175   -1.000
 4528.00    1.18580   1.23904   -1.000
 4529.00    1.18792   1.22548   -1.000
 4530.00    1.20628   1.23407   -1.000
 4531.00    1.22979   1.25458   -1.000
 4532.00    1.25633   1.26982   -1.000
 4533.00    1.25564   1.26833   -1.000
 4534.00    1.22139   1.25645   -1.000
 4535.00    1.19458   1.25451   -1.000
 4536.00    1.22042   1.28032   -1.000
 4537.00    1.29493   1.33142   -1.000
 4538.00    1.35868   1.38422   -1.000
 4539.00    1.38449   1.41342   -1.000
 4540.00    1.37842   1.41422   -1.000
 4541.00    1.38791   1.40294   -1.000
 4542.00    1.38843   1.39703  193.398
 4543.00    1.36017   1.39802   -1.000
 4544.00    1.34212   1.39557   -1.000
 4545.00    1.31520   1.38464   -1.000
 4546.00    1.33402   1.37063   -1.000
 4547.00    1.24613   1.35787   -1.000
 4548.00    0.52451   1.34406   -1.000
 4549.00   -0.27852   1.33068    0.000
 4550.00   -0.15328   1.32699    0.000
 4551.00    0.36058   1.33728   -1.000
 4552.00    0.63508   1.34997   -1.000
 4553.00    0.42125   1.35123   -1.000
 4554.00    1.29445   1.34335   -1.000
 4555.00    1.30678   1.34060   -1.000
 4556.00    1.33504   1.35611   -1.000
 4557.00    1.38435   1.39045  208.091
 4558.00    1.38970   1.42910   -1.000
 4559.00    1.42415   1.45720   -1.000
 4560.00    1.47876   1.47114  188.931
 4561.00    1.46010   1.47292  186.954
 4562.00    1.43521   1.46289   -1.000
 4563.00    1.39676   1.44102   -1.000
 4564.00    1.33062   1.41397   -1.000
 4565.00    1.31008   1.39636   -1.000
 4566.00    1.34601   1.40067   -1.000
 4567.00    1.39876   1.42530   -1.000
 4568.00    1.45282   1.45271  196.768
 4569.00    1.42534   1.46351   -1.000
 4570.00    1.40233   1.45231   -1.000
 4571.00    1.39065   1.43004   -1.000
 4572.00    1.35351   1.41566   -1.000
 4573.00    1.35092   1.42198   -1.000
 4574.00    1.44405   1.44288  197.959
 4575.00    1.45292   1.46083  195.039
 4576.00    1.41962   1.46619   -1.000
 4577.00    1.39073   1.45923   -1.000
 4578.00    1.37313   1.44044   -1.000
 4579.00    1.36695   1.41085   -1.000
 4580.00    1.33782   1.37891   -1.000
 4581.00    1.31925   1.35737   -1.000
 4582.00    1.34659   1.35283  200.411
 4583.00    1.38701   1.36051   -1.000
 4584.00    1.37348   1.36904  201.939
 4585.00    1.33666   1.37208   -1.000
 4586.00    1.33454   1.37625   -1.000
 4587.00    1.37414   1.39159   -1.000
 4588.00    1.37785   1.41721   -1.000
 4589.00    1.40817   1.44052   -1.000
 4590.00    1.43390   1.44795   -1.000
 4591.00    1.43463   1.43644  187.884
 4592.00    1.37614   1.41495   -1.000
 4593.00    1.34718   1.39723   -1.000
 4594.00    1.34988   1.39083   -1.000
 4595.00    1.35631   1.39297   -1.000
 4596.00    1.38341   1.39851   -1.000
 4597.00    1.38685   1.40569   -1.000
 4598.00    1.37553   1.41234   -1.000
 4599.00    1.37355   1.41404   -1.000
 4600.00    1.37761   1.40948   -1.000
 4601.00    1.36202   1.40302   -1.000
 4602.00    1.35622   1.40037   -1.000
 4603.00    1.38268   1.40266   -1.000
 4604.00    1.39221   1.40718   -1.000
 4605.00    1.39610   1.41358   -1.000
 4606.00    1.38707   1.42515   -1.000
 4607.00    1.37973   1.44465   -1.000
 4608.00    1.42902   1.47043   -1.000
 4609.00    1.48817   1.49500  189.824
 4610.00    1.51533   1.50677  185.918
 4611.00    1.48580   1.50074   -1.000
 4612.00    1.44004   1.48582   -1.000
 4613.00    1.43969   1.47412   -1.000
 4614.00    1.43396   1.47113   -1.000
 4615.00    1.45133   1.47556   -1.000
 4616.00    1.47311   1.48133  187.274
 4617.00    1.44322   1.48322   -1.000
 4618.00    1.42747   1.48127   -1.000
 4619.00    1.43573   1.47972   -1.000
 4620.00    1.44647   1.48338   -1.000
 4621.00    1.47469   1.49305   -1.000
 4622.00    1.48630   1.50268   -1.000
 4623.00    1.46350   1.50517   -1.000
 4624.00    1.48934   1.50073  181.652
 4625.00    1.48819   1.49444  181.850
 4626.00    1.45598   1.48897   -1.000
 4627.00    1.45988   1.48561   -1.000
 4628.00    1.45961   1.48531   -1.000
 4629.00    1.44712   1.48723   -1.000
 4630.00    1.45940   1.49042   -1.000
 4631.00    1.48514   1.49464  185.949
 4632.00    1.45439   1.49637   -1.000
 4633.00    1.43987   1.48995   -1.000
 4634.00    1.43577   1.47700   -1.000
 4635.00    1.43255   1.46442   -1.000
 4636.00    1.43331   1.45419   -1.000
 4637.00    1.41392   1.44352   -1.000
 4638.00    1.40645   1.43259   -1.000
 4639.00    1.42159   1.42626  190.667
 4640.00    1.40262   1.42989   -1.000
 4641.00    1.41905   1.44397   -1.000
 4642.00    1.44161   1.46088   -1.000
 4643.00    1.46845   1.46807  188.675
 4644.00    1.47234   1.45738  184.408
 4645.00    1.44481   1.43143  182.657
 4646.00    1.40128   1.39925  184.105
 4647.00    1.36706   1.37389  188.034
 4648.00    1.33586   1.36927   -1.000
 4649.00    1.36386   1.38827   -1.000
 4650.00    1.43262   1.41942  197.560
 4651.00    1.45444   1.44655  193.618
 4652.00    1.45135   1.46015  189.419
 4653.00    1.44552   1.45951  187.375
 4654.00    1.43819   1.44777  187.146
 4655.00    1.41601   1.43319   -1.000
 4656.00    1.38306   1.42940   -1.000
 4657.00    1.37523   1.44632   -1.000
 4658.00    1.40716   1.48217   -1.000
 4659.00    1.48555   1.52263   -1.000
 4660.00    1.55203   1.54802  186.077
 4661.00    1.52799   1.54756   -1.000
 4662.00    1.46084   1.52612   -1.000
 4663.00    1.44270   1.49564   -1.000
 4664.00    1.47382   1.46371  179.548
 4665.00    1.43247   1.42941  183.914
 4666.00    1.34275   1.38941   -1.000
 4667.00    1.29576   1.35005   -1.000
 4668.00    1.26923   1.32926   -1.000
 4669.00    1.30736   1.34066   -1.000
 4670.00    1.39800   1.37804   -1.000
 4671.00    1.45247   1.42031   -1.000
 4672.00    1.45575   1.44957  198.505
 4673.00    1.43946   1.46271   -1.000
 4674.00    1.45245   1.46892   -1.000
 4675.00    1.47464   1.47795  185.728
 4676.00    1.46331   1.48857   -1.000
 4677.00    1.49032   1.48926  185.230
 4678.00    1.52325   1.47293   -1.000
 4679.00    1.46926   1.44603   -1.000
 4680.00    1.40727   1.42146  182.193
 4681.00    1.39765   1.40845  186.257
 4682.00    1.38973   1.40934   -1.000
 4683.00    1.41161   1.42203  192.676
 4684.00    1.45627   1.43989  193.684
 4685.00    1.48166   1.45403   -1.000
 4686.00    1.48766   1.46005   -1.000
 4687.00    1.47163   1.45942  184.309
 4688.00    1.44726   1.45570  184.996
 4689.00    1.44445   1.45173  185.208
 4690.00    1.45690   1.44899  186.138
 4691.00    1.44989   1.44748  186.090
 4692.00    1.46602   1.44901   -1.000
 4693.00    1.47970   1.45692   -1.000
 4694.00    1.50300   1.46980   -1.000
 4695.00    1.51387   1.48144   -1.000
 4696.00    1.51064   1.48571   -1.000
 4697.00    1.50648   1.47756   -1.000
 4698.00    1.42687   1.45636   -1.000
 4699.00    1.40486   1.42997   -1.000
 4700.00    1.39910   1.40747  183.701
 4701.00    1.40231   1.39106  188.684
 4702.00    1.38582   1.37937  190.053
 4703.00    1.39014   1.37518  188.829
 4704.00    1.40043   1.38332   -1.000
 4705.00    1.43705   1.39939   -1.000
 4706.00    1.42087   1.40937  193.897
 4707.00    1.42918   1.40497   -1.000
 4708.00    1.38794   1.39423  188.259
 4709.00    1.37062   1.39230   -1.000
 4710.00    1.39654   1.40509  194.956
 4711.00    1.43902   1.42598  196.243
 4712.00    1.49421   1.44405   -1.000
 4713.00    1.52092   1.45047   -1.000
 4714.00    1.48585   1.44628   -1.000
 4715.00    1.44273   1.44473  182.688
 4716.00    1.45315   1.45699  184.908
 4717.00    1.49073   1.48128  187.945
 4718.00    1.50790   1.50687  187.144
 4719.00    1.50311   1.52470   -1.000
 4720.00    1.53107   1.53271  180.120
 4721.00    1.53768   1.53294  179.211
 4722.00    1.48859   1.52977   -1.000
 4723.00    1.47868   1.52855   -1.000
 4724.00    1.52565   1.53058  179.927
 4725.00    1.54768   1.52882   -1.000
 4726.00    1.50797   1.51303  179.492
 4727.00    1.46159   1.48025   -1.000
 4728.00    1.43722   1.44140  178.852
 4729.00    1.42259   1.41474  183.807
 4730.00    1.39201   1.40916   -1.000
 4731.00    1.39029   1.41948   -1.000
 4732.00    1.43682   1.43679  192.687
 4733.00    1.42946   1.45442   -1.000
 4734.00    1.45173   1.46672   -1.000
 4735.00    1.47687   1.47094  186.899
 4736.00    1.47798   1.47031  185.400
 4737.00    1.50131   1.47061   -1.000
 4738.00    1.49826   1.47592   -1.000
 4739.00    1.48567   1.48562  185.688
 4740.00    1.48075   1.49372  185.429
 4741.00    1.48903   1.49659  183.243
 4742.00    1.50029   1.49850  183.610
 4743.00    1.49896   1.50343  184.613
 4744.00    1.50671   1.50956  184.558
 4745.00    1.50114   1.51501  182.904
 4746.00    1.50143   1.52074   -1.000
 4747.00    1.52795   1.52861  181.685
 4748.00    1.53213   1.53837  181.613
 4749.00    1.55359   1.54699  180.102
 4750.00    1.54113   1.55215  178.454
 4751.00    1.54255   1.55155  178.251
 4752.00    1.51588   1.54201   -1.000
 4753.00    1.49863   1.52451   -1.000
 4754.00    1.47155   1.50579   -1.000
 4755.00    1.49424   1.49406  182.296
 4756.00    1.45932   1.49278   -1.000
 4757.00    1.47267   1.49957   -1.000
 4758.00    1.46913   1.51067   -1.000
 4759.00    1.47406   1.52226   -1.000
 4760.00    1.47263   1.52779   -1.000
 4761.00    1.44883   1.51967   -1.000
 4762.00    1.46773   1.49615   -1.000
 4763.00    1.42001   1.46507   -1.000
 4764.00    1.39578   1.43901   -1.000
 4765.00    1.38693   1.42411   -1.000
 4766.00    1.39260   1.41999   -1.000
 4767.00    1.41606   1.42881  195.198
 4768.00    1.43815   1.45336   -1.000
 4769.00    1.48482   1.48647  193.040
 4770.00    1.50231   1.51172  190.074
 4771.00    1.49588   1.51975   -1.000
 4772.00    1.48289   1.51755   -1.000
 4773.00    1.46667   1.51937   -1.000
 4774.00    1.50440   1.53242   -1.000
 4775.00    1.52613   1.55086   -1.000
 4776.00    1.52301   1.56432   -1.000
 4777.00    1.54534   1.56947   -1.000
 4778.00    1.54158   1.56818   -1.000
 4779.00    1.51990   1.56215   -1.000
 4780.00    1.51725   1.55260   -1.000
 4781.00    1.51227   1.54103   -1.000
 4782.00    1.48112   1.52771   -1.000
 4783.00    1.47284   1.51331   -1.000
 4784.00    1.47579   1.50155   -1.000
 4785.00    1.45619   1.49416   -1.000
 4786.00    1.47147   1.48900   -1.000
 4787.00    1.46621   1.48519   -1.000
 4788.00    1.44219   1.48416   -1.000
 4789.00    1.45579   1.48728   -1.000
 4790.00    1.48606   1.49559  191.436
 4791.00    1.46893   1.51075   -1.000
 4792.00    1.47888   1.53342   -1.000
 4793.00    1.49803   1.56180   -1.000
 4794.00    1.56373   1.59101   -1.000
 4795.00    1.56421   1.61337   -1.000
 4796.00    1.57365   1.62029   -1.000
 4797.00    1.54418   1.60825   -1.000
 4798.00    1.51082   1.58352   -1.000
 4799.00    1.50663   1.55819   -1.000
 4800.00    1.47995   1.54456   -1.000
 4801.00    1.49938   1.54962   -1.000
 4802.00    1.53629   1.56897   -1.000
 4803.00    1.56418   1.58745   -1.000
 4804.00    1.55658   1.59172   -1.000
 4805.00    1.52731   1.58087   -1.000
 4806.00    1.51290   1.56417   -1.000
 4807.00    1.54086   1.55037  182.208
 4808.00    1.51487   1.54316   -1.000
 4809.00    1.50531   1.54508   -1.000
 4810.00    1.52459   1.55550   -1.000
 4811.00    1.54492   1.56797   -1.000
 4812.00    1.56746   1.57642  184.283
 4813.00    1.53228   1.58076   -1.000
 4814.00    1.53120   1.58490   -1.000
 4815.00    1.54518   1.59267   -1.000
 4816.00    1.55032   1.60479   -1.000
 4817.00    1.56646   1.61808   -1.000
 4818.00    1.59037   1.62823   -1.000
 4819.00    1.59201   1.63329   -1.000
 4820.00    1.57805   1.63291   -1.000
 4821.00    1.53715   1.62347   -1.000
 4822.00    1.51907   1.60073   -1.000
 4823.00    1.51399   1.56907   -1.000
 4824.00    1.46923   1.54311   -1.000
 4825.00    1.47885   1.53776   -1.000
 4826.00    1.52141   1.55235   -1.000
 4827.00    1.52246   1.56951   -1.000
 4828.00    1.53533   1.57543   -1.000
 4829.00    1.51588   1.57090   -1.000
 4830.00    1.49558   1.56303   -1.000
 4831.00    1.50212   1.55343   -1.000
 4832.00    1.49200   1.54238   -1.000
 4833.00    1.50309   1.53751   -1.000
 4834.00    1.51688   1.54474   -1.000
 4835.00    1.56859   1.55971  185.358
 4836.00    1.58792   1.57243  182.258
 4837.00    1.52368   1.57519   -1.000
 4838.00    1.49295   1.56670   -1.000
 4839.00    1.49967   1.55020   -1.000
 4840.00    1.47527   1.53213   -1.000
 4841.00    1.47147   1.52005   -1.000
 4842.00    1.50634   1.51696  186.639
 4843.00    1.55765   1.52094   -1.000
 4844.00    1.51659   1.53021  186.078
 4845.00    1.52634   1.54539   -1.000
 4846.00    1.54382   1.56200   -1.000
 4847.00    1.55851   1.56849  181.694
 4848.00    1.53159   1.56071   -1.000
 4849.00    1.52279   1.54988   -1.000
 4850.00    1.52838   1.54783   -1.000
 4851.00    1.51872   1.55295   -1.000
 4852.00    1.52031   1.55391   -1.000
 4853.00    1.53629   1.54117  181.799
 4854.00    1.51409   1.51245  181.593
 4855.00    1.46367   1.47496  182.741
 4856.00    1.41003   1.44330   -1.000
 4857.00    1.39467   1.42465   -1.000
 4858.00    1.42042   1.40435   -1.000
 4859.00    1.38475   1.35376   -1.000
 4860.00    1.24906   1.26634   -1.000
 4861.00    1.17238   1.17888  199.272
 4862.00    1.22807   1.14278   -1.000
 4863.00    1.37698   1.17874   -1.000
 4864.00    1.46356   1.25947   -1.000
 4865.00    1.39855   1.34275   -1.000
 4866.00    1.36764   1.40737   -1.000
 4867.00    1.41700   1.45028   -1.000
 4868.00    1.46412   1.47422  195.184
 4869.00    1.47267   1.47778  191.326
 4870.00    1.45374   1.45771  189.743
 4871.00    1.39138   1.42053   -1.000
 4872.00    1.36765   1.38990   -1.000
 4873.00    1.38854   1.39186  196.650
 4874.00    1.40958   1.42658   -1.000
 4875.00    1.44808   1.46853   -1.000
 4876.00    1.48194   1.49627  193.059
 4877.00    1.49141   1.50977   -1.000
 4878.00    1.49182   1.52271   -1.000
 4879.00    1.49595   1.54164   -1.000
 4880.00    1.49737   1.55916   -1.000
 4881.00    1.50065   1.56427   -1.000
 4882.00    1.47333   1.55573   -1.000
 4883.00    1.46909   1.54281   -1.000
 4884.00    1.52113   1.52954  187.199
 4885.00    1.49829   1.51138  188.134
 4886.00    1.47434   1.49066   -1.000
 4887.00    1.46323   1.47630  188.685
 4888.00    1.44502   1.46952   -1.000
 4889.00    1.43780   1.46007   -1.000
 4890.00    1.40532   1.43999   -1.000
 4891.00    1.34587   1.42112   -1.000
 4892.00    1.41609   1.42930  194.321
 4893.00    1.46561   1.47850  198.453
 4894.00    1.54922   1.55378  196.576
 4895.00    1.59458   1.62187   -1.000
 4896.00    1.62706   1.66095   -1.000
 4897.00    1.61126   1.67197   -1.000
 4898.00    1.62350   1.66431   -1.000
 4899.00    1.62030   1.64654   -1.000
 4900.00    1.56518   1.62662   -1.000
 4901.00    1.55424   1.61090   -1.000
 4902.00    1.52536   1.59888   -1.000
 4903.00    1.52434   1.58727   -1.000
 4904.00    1.50906   1.58065   -1.000
 4905.00    1.53574   1.58967   -1.000
 4906.00    1.55113   1.61188   -1.000
 4907.00    1.59985   1.62680   -1.000
 4908.00    1.56358   1.61761   -1.000
 4909.00    1.51301   1.58619   -1.000
 4910.00    1.50194   1.54943   -1.000
 4911.00    1.47327   1.52781   -1.000
 4912.00    1.48017   1.53182   -1.000
 4913.00    1.50228   1.55642   -1.000
 4914.00    1.54716   1.58732   -1.000
 4915.00    1.56729   1.61191   -1.000
 4916.00    1.58140   1.61800   -1.000
 4917.00    1.56680   1.59215   -1.000
 4918.00    1.49539   1.53017   -1.000
 4919.00    1.42928   1.44904   -1.000
 4920.00    1.37435   1.38305  184.281
 4921.00    1.36865   1.36222  194.543
 4922.00    1.39938   1.38823  203.590
 4923.00    1.46387   1.43586   -1.000
 4924.00    1.48899   1.47737  198.385
 4925.00    1.46530   1.50653   -1.000
 4926.00    1.46942   1.53497   -1.000
 4927.00    1.52043   1.57002   -1.000
 4928.00    1.57022   1.60709   -1.000
 4929.00    1.58336   1.63759   -1.000
 4930.00    1.62572   1.65499   -1.000
 4931.00    1.62639   1.65449   -1.000
 4932.00    1.56774   1.63276   -1.000
 4933.00    1.51967   1.59551   -1.000
 4934.00    1.49478   1.56059   -1.000
 4935.00    1.49168   1.54365   -1.000
 4936.00    1.51482   1.54005   -1.000
 4937.00    1.53103   1.52877  187.653
 4938.00    1.44866   1.50063   -1.000
 4939.00    1.42158   1.47682   -1.000
 4940.00    1.46593   1.48491   -1.000
 4941.00    1.53835   1.52779  195.069
 4942.00    1.56987   1.58293  193.050
 4943.00    1.57760   1.62412   -1.000
 4944.00    1.59682   1.64169   -1.000
 4945.00    1.62800   1.64074  177.135
 4946.00    1.60174   1.63320   -1.000
 4947.00    1.59919   1.63193   -1.000
 4948.00    1.61209   1.64283   -1.000
 4949.00    1.65552   1.66011  177.416
 4950.00    1.67263   1.67290  175.738
 4951.00    1.63272   1.67592   -1.000
 4952.00    1.62160   1.67039   -1.000
 4953.00    1.62409   1.65896   -1.000
 4954.00    1.60412   1.64083   -1.000
 4955.00    1.58742   1.60786   -1.000
 4956.00    1.52806   1.55024   -1.000
 4957.00    1.44678   1.47924   -1.000
 4958.00    1.41476   1.43427   -1.000
 4959.00    1.46301   1.44782  193.511
 4960.00    1.56646   1.50984   -1.000
 4961.00    1.62548   1.57752   -1.000
 4962.00    1.61858   1.61737  185.202
 4963.00    1.59129   1.62666   -1.000
 4964.00    1.57123   1.61484   -1.000
 4965.00    1.57645   1.59023  178.663
 4966.00    1.54515   1.56294   -1.000
 4967.00    1.51907   1.54329   -1.000
 4968.00    1.49982   1.53526   -1.000
 4969.00    1.50637   1.53796   -1.000
 4970.00    1.54102   1.54955  188.555
 4971.00    1.56558   1.56786  187.985
 4972.00    1.58614   1.58981  186.567
 4973.00    1.58639   1.61113   -1.000
 4974.00    1.60320   1.62662   -1.000
 4975.00    1.59897   1.63234   -1.000
 4976.00    1.59185   1.62698   -1.000
 4977.00    1.60498   1.61170  177.988
 4978.00    1.56300   1.58971   -1.000
 4979.00    1.52662   1.56527   -1.000
 4980.00    1.49492   1.53827   -1.000
 4981.00    1.49505   1.50211  186.691
 4982.00    1.43120   1.45356   -1.000
 4983.00    1.36623   1.40672   -1.000
 4984.00    1.39527   1.38622  198.083
 4985.00    1.42505   1.40456   -1.000
 4986.00    1.47099   1.45219   -1.000
 4987.00    1.50403   1.50664  200.463
 4988.00    1.54707   1.54729  194.789
 4989.00    1.54644   1.56301   -1.000
 4990.00    1.52774   1.55700   -1.000
 4991.00    1.53659   1.54456  184.176
 4992.00    1.53025   1.53984  186.951
 4993.00    1.56255   1.54515   -1.000
 4994.00    1.52726   1.55424   -1.000
 4995.00    1.54085   1.56297   -1.000
 4996.00    1.58353   1.57096  186.420
 4997.00    1.56294   1.57466  186.345
 4998.00    1.54990   1.56586   -1.000
 4999.00    1.53763   1.54056  184.446
 5000.00    1.50016   1.50608  185.594
 5001.00    1.45632   1.47728   -1.000
 5002.00    1.49237   1.46489   -1.000
 5003.00    1.51628   1.46600   -1.000
 5004.00    1.52299   1.46554   -1.000
 5005.00    1.47670   1.45102   -1.000
 5006.00    1.43570   1.42799  191.304
 5007.00    1.44858   1.41900   -1.000
 5008.00    1.46068   1.43960   -1.000
 5009.00    1.53130   1.47813   -1.000
 5010.00    1.50569   1.50668  195.232
 5011.00    1.48072   1.50469   -1.000
 5012.00    1.45833   1.47233  187.251
 5013.00    1.41644   1.42836  189.727
 5014.00    1.42547   1.39662   -1.000
 5015.00    1.42359   1.38964   -1.000
 5016.00    1.43001   1.40124   -1.000
 5017.00    1.46833   1.41723   -1.000
 5018.00    1.46579   1.43036   -1.000
 5019.00    1.45595   1.44369  197.721
 5020.00    1.48679   1.45867   -1.000
 5021.00    1.51184   1.46915   -1.000
 5022.00    1.49663   1.47195   -1.000
 5023.00    1.48761   1.47415  193.097
 5024.00    1.50974   1.48605   -1.000
 5025.00    1.49457   1.50577  194.384
 5026.00    1.50629   1.51769  193.275
 5027.00    1.51264   1.51453  191.226
 5028.00    1.50704   1.50781  189.939
 5029.00    1.51304   1.51215  190.839
 5030.00    1.55379   1.53176   -1.000
 5031.00    1.60728   1.56084   -1.000
 5032.00    1.61022   1.58986   -1.000
 5033.00    1.62107   1.60845  183.774
 5034.00    1.62884   1.60520   -1.000
 5035.00    1.57137   1.57643  178.696
 5036.00    1.47765   1.53584   -1.000
 5037.00    1.47909   1.50297   -1.000
 5038.00    1.46411   1.48081   -1.000
 5039.00    1.45010   1.45262  195.275
 5040.00    1.37967   1.40775   -1.000
 5041.00    1.32654   1.36716   -1.000
 5042.00    1.38034   1.36593  206.157
 5043.00    1.44932   1.41570   -1.000
 5044.00    1.51541   1.49479   -1.000
 5045.00    1.54394   1.56788   -1.000
 5046.00    1.59203   1.61129   -1.000
 5047.00    1.62478   1.61839  183.988
 5048.00    1.59218   1.59370  180.073
 5049.00    1.58766   1.55117   -1.000
 5050.00    0.43669   1.51088   -1.000
 5051.00   -0.12447   1.48965    0.000
 5052.00   -0.08032   1.49346    0.000
 5053.00    1.00683   1.51852   -1.000
 5054.00    1.68281   1.55377   -1.000
 5055.00    1.62871   1.58483   -1.000
 5056.00    1.62781   1.60453   -1.000
 5057.00    1.63827   1.61621   -1.000
 5058.00    1.64646   1.62506   -1.000
 5059.00    1.63084   1.63429  178.177
 5060.00    1.62180   1.64410   -1.000
 5061.00    1.64483   1.65150  178.822
 5062.00    1.63620   1.64973  178.760
 5063.00    1.59684   1.62890   -1.000
 5064.00    1.53978   1.58807   -1.000
 5065.00    1.49125   1.54434   -1.000
 5066.00    1.49260   1.51819   -1.000
 5067.00    1.49447   1.51451   -1.000
 5068.00    1.51597   1.52339  194.109
 5069.00    1.56620   1.53428   -1.000
 5070.00    1.58278   1.54370   -1.000
 5071.00    1.59773   1.54813   -1.000
 5072.00    1.56884   1.54377   -1.000
 5073.00    1.54008   1.53594  186.173
 5074.00    1.55130   1.53530  187.613
 5075.00    1.56540   1.54339   -1.000
 5076.00    1.56967   1.55119   -1.000
 5077.00    1.58073   1.54783   -1.000
 5078.00    1.55947   1.52517   -1.000
 5079.00    1.52481   1.48434   -1.000
 5080.00    1.46569   1.44339   -1.000
 5081.00    1.45154   1.42480   -1.000
 5082.00    1.45795   1.43278   -1.000
 5083.00    1.50661   1.45565   -1.000
 5084.00    1.51607   1.48280   -1.000
 5085.00    1.57016   1.51150   -1.000
 5086.00    1.57601   1.54001   -1.000
 5087.00    1.58795   1.56230   -1.000
 5088.00    1.59637   1.57515   -1.000
 5089.00    1.57090   1.58226  185.430
 5090.00    1.61226   1.58892   -1.000
 5091.00    1.61128   1.59848  184.235
 5092.00    1.61468   1.61212  182.912
 5093.00    1.62037   1.62682  181.893
 5094.00    1.63556   1.63353  180.949
 5095.00    1.62505   1.62157  178.897
 5096.00    1.59018   1.58845  177.270
 5097.00    1.54261   1.54365  178.775
 5098.00    1.50731   1.50233  182.448
 5099.00    1.49073   1.47888  186.392
 5100.00    1.51201   1.48303   -1.000
 5101.00    1.53740   1.51162   -1.000
 5102.00    1.55585   1.54629  195.686
 5103.00    1.57086   1.56655  191.077
 5104.00    1.55924   1.56682  185.550
 5105.00    1.55063   1.55392  183.768
 5106.00    1.53682   1.53478  184.749
 5107.00    1.52687   1.51356  187.142
 5108.00    1.53242   1.49523   -1.000
 5109.00    1.51705   1.48633   -1.000
 5110.00    1.51899   1.49145   -1.000
 5111.00    1.52233   1.51028  194.073
 5112.00    1.52804   1.53692  192.861
 5113.00    1.57657   1.56273  191.480
 5114.00    1.58582   1.58336  188.783
 5115.00    1.60233   1.60081  186.450
 5116.00    1.63110   1.61715  184.177
 5117.00    1.65019   1.63088   -1.000
 5118.00    1.61785   1.63815   -1.000
 5119.00    1.59938   1.63487   -1.000
 5120.00    1.63413   1.61906  178.087
 5121.00    1.59817   1.59279  178.518
 5122.00    1.54365   1.56034   -1.000
 5123.00    1.48703   1.52558   -1.000
 5124.00    1.46349   1.49425   -1.000
 5125.00    1.47304   1.47452  191.232
 5126.00    1.49439   1.47048   -1.000
 5127.00    1.48209   1.47621  198.590
 5128.00    1.48693   1.48254  196.969
 5129.00    1.45416   1.48700   -1.000
 5130.00    1.48841   1.49402  194.798
 5131.00    1.54270   1.50733   -1.000
 5132.00    1.54947   1.52553   -1.000
 5133.00    1.56454   1.54370   -1.000
 5134.00    1.57927   1.55829   -1.000
 5135.00    1.58134   1.56738  187.551
 5136.00    1.58656   1.56618   -1.000
 5137.00    1.55253   1.55010  184.138
 5138.00    1.51280   1.52363  183.599
 5139.00    1.50586   1.49981  186.698
 5140.00    1.50864   1.48805   -1.000
 5141.00    1.51406   1.48671   -1.000
 5142.00    1.50085   1.48848  194.780
 5143.00    1.48578   1.49126  193.134
 5144.00    1.48051   1.49726   -1.000
 5145.00    1.53471   1.50348   -1.000
 5146.00    1.54737   1.50220   -1.000
 5147.00    1.50734   1.49344  193.374
 5148.00    1.50178   1.48873  192.538
 5149.00    1.54412   1.49472   -1.000
 5150.00    1.54607   1.50194   -1.000
 5151.00    1.49706   1.49933  192.553
 5152.00    1.49988   1.48856  191.376
 5153.00    1.49531   1.47865   -1.000
 5154.00    1.49430   1.47830   -1.000
 5155.00    1.52728   1.49347   -1.000
 5156.00    1.56045   1.52383   -1.000
 5157.00    1.59819   1.56032   -1.000
 5158.00    1.62583   1.59085   -1.000
 5159.00    1.62678   1.60923   -1.000
 5160.00    1.63544   1.61514   -1.000
 5161.00    1.64750   1.60954   -1.000
 5162.00    1.62954   1.59199   -1.000
 5163.00    1.61725   1.56218   -1.000
 5164.00    1.58050   1.51863   -1.000
 5165.00    1.48672   1.45291   -1.000
 5166.00    1.37212   1.35898  185.543
 5167.00    1.22198   1.25728   -1.000
 5168.00    1.16934   1.19282   -1.000
 5169.00    1.24399   1.19127   -1.000
 5170.00    1.31750   1.22198   -1.000
 5171.00    1.28745   1.22676   -1.000
 5172.00    1.20430   1.19228   -1.000
 5173.00    1.15671   1.16565  224.503
 5174.00    1.22979   1.20007   -1.000
 5175.00    1.35795   1.29661   -1.000
 5176.00    1.47927   1.40524   -1.000
 5177.00    1.52174   1.48148   -1.000
 5178.00    1.54793   1.51718   -1.000
 5179.00    1.56653   1.52186   -1.000
 5180.00    1.55043   1.49659   -1.000
 5181.00    1.48378   1.43168   -1.000
 5182.00    1.36348   1.32830   -1.000
 5183.00    1.21985   1.21930  198.050
 5184.00    1.13282   1.16149   -1.000
 5185.00    1.19757   1.19246  235.737
 5186.00    1.38326   1.29287   -1.000
 5187.00    1.52294   1.40528   -1.000
 5188.00    1.57059   1.48347   -1.000
 5189.00    1.58073   1.51943   -1.000
 5190.00    1.58438   1.52501   -1.000
 5191.00    1.54994   1.50658   -1.000
 5192.00    1.50842   1.47370   -1.000
 5193.00    1.49118   1.44748   -1.000
 5194.00    1.48831   1.44348   -1.000
 5195.00    1.52023   1.45868   -1.000
 5196.00    1.55099   1.48223   -1.000
 5197.00    1.59557   1.50953   -1.000
 5198.00    1.63043   1.54080   -1.000
 5199.00    1.63714   1.57124   -1.000
 5200.00    1.66281   1.59201   -1.000
 5201.00    1.63770   1.59683   -1.000
 5202.00    1.61857   1.58283   -1.000
 5203.00    1.60755   1.54938   -1.000
 5204.00    1.54232   1.49969   -1.000
 5205.00    1.46999   1.44391   -1.000
 5206.00    1.43377   1.39728   -1.000
 5207.00    1.42763   1.36978   -1.000
 5208.00    1.44555   1.36128   -1.000
 5209.00    1.43353   1.37055   -1.000
 5210.00    1.46194   1.40139   -1.000
 5211.00    1.54179   1.45522   -1.000
 5212.00    1.62496   1.52116   -1.000
 5213.00    1.67259   1.57668   -1.000
 5214.00    1.64788   1.60082   -1.000
 5215.00    1.64594   1.59100   -1.000
 5216.00    1.58742   1.56655   -1.000
 5217.00    1.57132   1.55472   -1.000
 5218.00    1.61281   1.56955   -1.000
 5219.00    1.65307   1.60413   -1.000
 5220.00    1.66962   1.64060   -1.000
 5221.00    1.68970   1.66418   -1.000
 5222.00    1.69667   1.66734   -1.000
 5223.00    1.67137   1.64631   -1.000
 5224.00    1.60187   1.59995  177.447
 5225.00    1.52471   1.53259  179.449
 5226.00    1.46667   1.46261  184.645
 5227.00    1.46678   1.42142   -1.000
 5228.00    1.49217   1.43284   -1.000
 5229.00    1.57557   1.48954   -1.000
 5230.00    1.66485   1.55464   -1.000
 5231.00    1.67564   1.59137   -1.000
 5232.00    1.63793   1.59059   -1.000
 5233.00    1.59849   1.56903   -1.000
 5234.00    1.58233   1.55361   -1.000
 5235.00    1.60799   1.56364   -1.000
 5236.00    1.64414   1.59868   -1.000
 5237.00    1.66795   1.64189   -1.000
 5238.00    1.68791   1.67505  183.060
 5239.00    1.71764   1.69047   -1.000
 5240.00    1.73290   1.69161   -1.000
 5241.00    1.69874   1.68595  176.089
 5242.00    1.71501   1.68011   -1.000
 5243.00    1.73615   1.67954   -1.000
 5244.00    1.70497   1.68439   -1.000
 5245.00    1.70899   1.68448   -1.000
 5246.00    1.67776   1.66767  175.240
 5247.00    1.61603   1.63550   -1.000
 5248.00    1.59635   1.60301  178.040
 5249.00    1.61621   1.58295   -1.000
 5250.00    1.63836   1.57614   -1.000
 5251.00    1.61350   1.57788   -1.000
 5252.00    1.60481   1.58594   -1.000
 5253.00    1.65003   1.59650   -1.000
 5254.00    1.65383   1.60374   -1.000
 5255.00    1.63842   1.61034   -1.000
 5256.00    1.65575   1.62756   -1.000
 5257.00    1.72457   1.65923   -1.000
 5258.00    1.75682   1.69294   -1.000
 5259.00    1.73982   1.70912   -1.000
 5260.00    1.72573   1.69463   -1.000
 5261.00    1.69113   1.64887   -1.000
 5262.00    1.61241   1.58098   -1.000
 5263.00    1.53041   1.50594   -1.000
 5264.00    1.45502   1.43994   -1.000
 5265.00    1.41626   1.39686   -1.000
 5266.00    1.45559   1.38334   -1.000
 5267.00    1.49187   1.38986   -1.000
 5268.00    1.49556   1.39206   -1.000
 5269.00    1.44714   1.37440   -1.000
 5270.00    1.40268   1.35376   -1.000
 5271.00    1.45288   1.36634   -1.000
 5272.00    1.56481   1.42196   -1.000
 5273.00    1.61613   1.48847   -1.000
 5274.00    1.61284   1.53309   -1.000
 5275.00    1.62188   1.55617   -1.000
 5276.00    1.64258   1.57929   -1.000
 5277.00    1.67542   1.61670   -1.000
 5278.00    1.73025   1.66054   -1.000
 5279.00    1.77967   1.68819   -1.000
 5280.00    1.74196   1.68371   -1.000
 5281.00    1.65864   1.65186  173.361
 5282.00    1.62707   1.61161  173.885
 5283.00    1.60711   1.58264   -1.000
 5284.00    1.62325   1.58117   -1.000
 5285.00    1.67617   1.61356   -1.000
 5286.00    1.73109   1.66741   -1.000
 5287.00    1.77028   1.71745   -1.000
 5288.00    1.78136   1.74649   -1.000
 5289.00    1.75510   1.75705  172.836
 5290.00    1.76681   1.76090  170.980
 5291.00    1.79776   1.76266   -1.000
 5292.00    1.77914   1.76016   -1.000
 5293.00    1.75734   1.75255  170.873
 5294.00    1.74602   1.73882  170.413
 5295.00    1.72700   1.71307  171.237
 5296.00    1.70202   1.66919   -1.000
 5297.00    1.61185   1.61392  175.003
 5298.00    1.56008   1.57133  179.423
 5299.00    1.61311   1.56245   -1.000
 5300.00    1.62144   1.58378   -1.000
 5301.00    1.65563   1.61510   -1.000
 5302.00    1.67781   1.64350   -1.000
 5303.00    1.71362   1.67273   -1.000
 5304.00    1.75822   1.70750   -1.000
 5305.00    1.78906   1.73841   -1.000
 5306.00    1.79045   1.75253   -1.000
 5307.00    1.79126   1.75067   -1.000
 5308.00    1.75119   1.74642  170.673
 5309.00    1.77738   1.75188   -1.000
 5310.00    1.81483   1.76577   -1.000
 5311.00    1.80007   1.77710   -1.000
 5312.00    1.76511   1.77797  171.109
 5313.00    1.75880   1.76826  169.908
 5314.00    1.75342   1.75205  169.900
 5315.00    1.74573   1.73284  170.758
 5316.00    1.74940   1.71412   -1.000
 5317.00    1.72895   1.70230   -1.000
 5318.00    1.74019   1.70305   -1.000
 5319.00    1.75642   1.71338   -1.000
 5320.00    1.77112   1.72243   -1.000
 5321.00    1.78273   1.72054   -1.000
 5322.00    1.73333   1.70420   -1.000
 5323.00    1.71074   1.67562   -1.000
 5324.00    1.67720   1.64257   -1.000
 5325.00    1.63540   1.61163   -1.000
 5326.00    1.63661   1.57680   -1.000
 5327.00    1.58456   1.52633   -1.000
 5328.00    1.52247   1.47001   -1.000
 5329.00    1.50766   1.44475   -1.000
 5330.00    1.57423   1.47683   -1.000
 5331.00    1.64683   1.54879   -1.000
 5332.00    1.71830   1.61816   -1.000
 5333.00    1.75797   1.66180   -1.000
 5334.00    1.74611   1.68787   -1.000
 5335.00    1.75594   1.70878   -1.000
 5336.00    1.77063   1.72287   -1.000
 5337.00    1.75731   1.72280   -1.000
 5338.00    1.74850   1.70552   -1.000
 5339.00    1.71414   1.67267   -1.000
 5340.00    1.68473   1.63386   -1.000
 5341.00    1.63065   1.60880   -1.000
 5342.00    1.62322   1.61397  182.129
 5343.00    1.69666   1.64375   -1.000
 5344.00    1.75031   1.67369   -1.000
 5345.00    1.71660   1.68479   -1.000
 5346.00    1.71643   1.67741   -1.000
 5347.00    1.71802   1.66229   -1.000
 5348.00    1.70363   1.64874   -1.000
 5349.00    1.68983   1.64340   -1.000
 5350.00    1.69715   1.65203   -1.000
 5351.00    1.72898   1.67607   -1.000
 5352.00    1.75016   1.70799   -1.000
 5353.00    1.76616   1.73623   -1.000
 5354.00    1.78860   1.75722   -1.000
 5355.00    1.79228   1.77595  172.696
 5356.00    1.80748   1.79402  171.902
 5357.00    1.83027   1.80674   -1.000
 5358.00    1.84215   1.81085   -1.000
 5359.00    1.84843   1.80701   -1.000
 5360.00    1.84252   1.79606   -1.000
 5361.00    1.80575   1.77787   -1.000
 5362.00    1.78395   1.75442   -1.000
 5363.00    1.78014   1.72973   -1.000
 5364.00    1.74304   1.70688   -1.000
 5365.00    1.73704   1.68858   -1.000
 5366.00    1.74048   1.67792   -1.000
 5367.00    1.70897   1.67348   -1.000
 5368.00    1.70912   1.66517   -1.000
 5369.00    1.70935   1.64047   -1.000
 5370.00    1.66491   1.59937   -1.000
 5371.00    1.60747   1.56167   -1.000
 5372.00    1.63798   1.55462   -1.000
 5373.00    1.70195   1.59031   -1.000
 5374.00    1.73756   1.65348   -1.000
 5375.00    1.77490   1.71322   -1.000
 5376.00    1.81753   1.74825   -1.000
 5377.00    1.80886   1.75941   -1.000
 5378.00    1.81068   1.75906   -1.000
 5379.00    1.80230   1.75570   -1.000
 5380.00    1.77542   1.74945   -1.000
 5381.00    1.77594   1.73807   -1.000
 5382.00    1.77438   1.72325   -1.000
 5383.00    1.78217   1.71137   -1.000
 5384.00    1.73579   1.70976   -1.000
 5385.00    1.75799   1.72096   -1.000
 5386.00    1.78851   1.73832   -1.000
 5387.00    1.80364   1.74941   -1.000
 5388.00    1.78015   1.74559   -1.000
 5389.00    1.74010   1.72757  172.717
 5390.00    1.70391   1.70282  173.316
 5391.00    1.69420   1.68001  174.849
 5392.00    1.69937   1.66402   -1.000
 5393.00    1.71918   1.65507   -1.000
 5394.00    1.70580   1.64931   -1.000
 5395.00    1.67665   1.63891   -1.000
 5396.00    1.63538   1.61890   -1.000
 5397.00    1.62828   1.59662   -1.000
 5398.00    1.67552   1.58971   -1.000
 5399.00    1.69600   1.60872   -1.000
 5400.00    1.71122   1.64380   -1.000
 5401.00    1.74466   1.67370   -1.000
 5402.00    1.75014   1.68291   -1.000
 5403.00    1.71962   1.66446   -1.000
 5404.00    1.65977   1.62061   -1.000
 5405.00    1.60494   1.56981   -1.000
 5406.00    1.59517   1.53992   -1.000
 5407.00    1.61413   1.54446   -1.000
 5408.00    1.65174   1.56940   -1.000
 5409.00    1.66871   1.58969   -1.000
 5410.00    1.64723   1.59884   -1.000
 5411.00    1.66126   1.61249   -1.000
 5412.00    1.70458   1.64175   -1.000
 5413.00    1.76828   1.67710   -1.000
 5414.00    1.79426   1.70257   -1.000
 5415.00    1.75523   1.71623   -1.000
 5416.00    1.76061   1.72848   -1.000
 5417.00    1.79755   1.74365   -1.000
 5418.00    1.79334   1.75476   -1.000
 5419.00    1.79054   1.75526   -1.000
 5420.00    1.77365   1.74713   -1.000
 5421.00    1.77895   1.73712   -1.000
 5422.00    1.74989   1.72769   -1.000
 5423.00    1.74045   1.71624   -1.000
 5424.00    1.75738   1.70500   -1.000
 5425.00    1.71931   1.70482  175.004
 5426.00    1.77037   1.72141   -1.000
 5427.00    1.78702   1.73899   -1.000
 5428.00    1.79486   1.73146   -1.000
 5429.00    1.94031   1.69439   -1.000
 5430.00    1.79973   1.65367   -1.000
 5431.00    1.68148   1.63669   -1.000
 5432.00    1.70090   1.64200   -1.000
 5433.00    1.71721   1.64591   -1.000
 5434.00    1.65948   1.63596   -1.000
 5435.00    1.65764   1.62471   -1.000
 5436.00    1.68940   1.63260   -1.000
 5437.00    1.70690   1.66686   -1.000
 5438.00    1.77086   1.71641   -1.000
 5439.00    1.82395   1.76237   -1.000
 5440.00    1.84872   1.79308   -1.000
 5441.00    1.84277   1.80903   -1.000
 5442.00    1.82536   1.81441  171.736
 5443.00    1.81589   1.80759  170.128
 5444.00    1.78747   1.78095  169.618
 5445.00    1.75107   1.73146   -1.000
 5446.00    1.69702   1.67217   -1.000
 5447.00    1.65684   1.62966   -1.000
 5448.00    1.68068   1.62613   -1.000
 5449.00    1.73999   1.65982   -1.000
 5450.00    1.78419   1.70544   -1.000
 5451.00    1.80567   1.73677   -1.000
 5452.00    1.81639   1.74316   -1.000
 5453.00    1.78839   1.72483   -1.000
 5454.00    1.73070   1.68695   -1.000
 5455.00    1.67277   1.64405   -1.000
 5456.00    1.66120   1.62164   -1.000
 5457.00    1.70652   1.63831   -1.000
 5458.00    1.78229   1.68462   -1.000
 5459.00    1.80777   1.72928   -1.000
 5460.00    1.79666   1.74679   -1.000
 5461.00    1.77097   1.73379   -1.000
 5462.00    1.73775   1.70471   -1.000
 5463.00    1.73783   1.67971   -1.000
 5464.00    1.74647   1.67279   -1.000
 5465.00    1.75012   1.68496   -1.000
 5466.00    1.76496   1.70646   -1.000
 5467.00    1.75929   1.72626   -1.000
 5468.00    1.75512   1.73919   -1.000
 5469.00    1.76828   1.74423   -1.000
 5470.00    1.76445   1.74115   -1.000
 5471.00    1.73613   1.73195  175.818
 5472.00    1.75310   1.72044   -1.000
 5473.00    1.73170   1.70711   -1.000
 5474.00    1.73608   1.68789   -1.000
 5475.00    1.71102   1.65944   -1.000
 5476.00    1.67855   1.62741   -1.000
 5477.00    1.66387   1.60825   -1.000
 5478.00    1.68331   1.61593   -1.000
 5479.00    1.73364   1.64434   -1.000
 5480.00    1.76604   1.66971   -1.000
 5481.00    1.74439   1.67638   -1.000
 5482.00    1.68646   1.67392  181.734
 5483.00    1.69306   1.68250  182.033
 5484.00    1.74975   1.70752   -1.000
 5485.00    1.80131   1.73464   -1.000
 5486.00    1.80839   1.74600   -1.000
 5487.00    1.78244   1.73719   -1.000
 5488.00    1.75533   1.72000   -1.000
 5489.00    1.75059   1.71061   -1.000
 5490.00    1.75721   1.71499   -1.000
 5491.00    1.75069   1.72626   -1.000
 5492.00    1.75118   1.73495   -1.000
 5493.00    1.75531   1.73803   -1.000
 5494.00    1.74773   1.73791  178.917
 5495.00    1.76101   1.73590   -1.000
 5496.00    1.78647   1.73028   -1.000
 5497.00    1.79296   1.72202   -1.000
 5498.00    1.79196   1.71732   -1.000
 5499.00    1.78119   1.71958   -1.000
 5500.00    1.79319   1.72160   -1.000
 5501.00    1.77767   1.71311   -1.000
 5502.00    1.75699   1.69691   -1.000
 5503.00    1.74569   1.68603   -1.000
 5504.00    1.77711   1.68453   -1.000
 5505.00    1.77549   1.68341   -1.000
 5506.00    1.71968   1.67602   -1.000
 5507.00    1.72901   1.66943   -1.000
 5508.00    1.77053   1.67489   -1.000
 5509.00    1.79626   1.69079   -1.000
 5510.00    1.78202   1.70208   -1.000
 5511.00    1.74899   1.69617   -1.000
 5512.00    1.71115   1.67484   -1.000
 5513.00    1.68276   1.65191   -1.000
 5514.00    1.68692   1.64202   -1.000
 5515.00    1.72451   1.65015   -1.000
 5516.00    1.73125   1.67170   -1.000
 5517.00    1.74745   1.69976   -1.000
 5518.00    1.79561   1.72910   -1.000
 5519.00    1.83462   1.75431   -1.000
 5520.00    1.85316   1.76988   -1.000
 5521.00    1.85018   1.77472   -1.000
 5522.00    1.82879   1.77355   -1.000
 5523.00    1.81594   1.77120   -1.000
 5524.00    1.80045   1.76616   -1.000
 5525.00    1.79134   1.75192   -1.000
 5526.00    1.77195   1.72370   -1.000
 5527.00    1.73413   1.68573   -1.000
 5528.00    1.71555   1.65352   -1.000
 5529.00    1.71492   1.64592   -1.000
 5530.00    1.72047   1.66868   -1.000
 5531.00    1.75102   1.70603   -1.000
 5532.00    1.79613   1.73442   -1.000
 5533.00    1.82723   1.74282   -1.000
 5534.00    1.80162   1.73659   -1.000
 5535.00    1.77740   1.72710   -1.000
 5536.00    1.79764   1.72322   -1.000
 5537.00    1.78914   1.72764   -1.000
 5538.00    1.78600   1.73710   -1.000
 5539.00    1.80672   1.74814   -1.000
 5540.00    1.83627   1.76009   -1.000
 5541.00    1.86819   1.77000   -1.000
 5542.00    1.85505   1.77161   -1.000
 5543.00    1.83855   1.76338   -1.000
 5544.00    1.80527   1.75220   -1.000
 5545.00    1.77922   1.74656   -1.000
 5546.00    1.80022   1.74908   -1.000
 5547.00    1.81797   1.75807   -1.000
 5548.00    1.82870   1.77209   -1.000
 5549.00    1.85007   1.78818   -1.000
 5550.00    1.83837   1.80045   -1.000
 5551.00    1.84745   1.80407   -1.000
 5552.00    1.85335   1.79802   -1.000
 5553.00    1.83345   1.78493   -1.000
 5554.00    1.81861   1.77093   -1.000
 5555.00    1.80782   1.76286   -1.000
 5556.00    1.82566   1.76246   -1.000
 5557.00    1.82463   1.76562   -1.000
 5558.00    1.82169   1.76873   -1.000
 5559.00    1.83073   1.77140   -1.000
 5560.00    1.81858   1.77217   -1.000
 5561.00    1.82184   1.76711   -1.000
 5562.00    1.81147   1.75556   -1.000
 5563.00    1.75850   1.74253   -1.000
 5564.00    1.74916   1.73302   -1.000
 5565.00    1.75846   1.72713   -1.000
 5566.00    1.76705   1.72228   -1.000
 5567.00    1.77050   1.71767   -1.000
 5568.00    1.76294   1.71447   -1.000
 5569.00    1.74940   1.71356   -1.000
 5570.00    1.75981   1.71434   -1.000
 5571.00    1.79608   1.71456   -1.000
 5572.00    1.79594   1.71185   -1.000
 5573.00    1.77793   1.70813   -1.000
 5574.00    1.78233   1.71044   -1.000
 5575.00    1.82349   1.72140   -1.000
 5576.00    1.92561   1.73458   -1.000
 5577.00    2.19788   1.74470   -1.000
 5578.00    3.63912   1.75355   -1.000
 5579.00    7.12076   1.76230   -1.000
 5580.00    8.88904   1.76780   -1.000
 5581.00    4.88348   1.76782   -1.000
 5582.00   -1.15731   1.76401    0.000
 5583.00   -3.27419   1.75862    0.000
 5584.00   -1.65607   1.74947    0.000
 5585.00    0.23794   1.72925   -1.000
 5586.00    1.26606   1.69265   -1.000
 5587.00    1.59194   1.64674   -1.000
 5588.00    1.61961   1.60962  182.594
 5589.00    1.65638   1.59640   -1.000
 5590.00    1.69238   1.60853   -1.000
 5591.00    1.70945   1.63530   -1.000
 5592.00    1.74276   1.66181   -1.000
 5593.00    1.75357   1.67883   -1.000
 5594.00    1.74579   1.68903   -1.000
 5595.00    1.75161   1.70108   -1.000
 5596.00    1.77780   1.71646   -1.000
 5597.00    1.79880   1.72500   -1.000
 5598.00    1.76807   1.71679   -1.000
 5599.00    1.73856   1.69558   -1.000
 5600.00    1.72901   1.67347   -1.000
 5601.00    1.71325   1.65691   -1.000
 5602.00    1.69349   1.64877   -1.000
 5603.00    1.71161   1.65668   -1.000
 5604.00    1.77456   1.68658   -1.000
 5605.00    1.81751   1.73163   -1.000
 5606.00    1.84060   1.77537   -1.000
 5607.00    1.86555   1.80476   -1.000
 5608.00    1.89249   1.81780   -1.000
 5609.00    1.87422   1.82083   -1.000
 5610.00    1.84168   1.82161   -1.000
 5611.00    1.83702   1.82349  174.687
 5612.00    1.85584   1.82114   -1.000
 5613.00    1.87491   1.80208   -1.000
 5614.00    1.82403   1.75931   -1.000
 5615.00    1.73915   1.70429   -1.000
 5616.00    1.70389   1.66474   -1.000
 5617.00    1.73612   1.66127   -1.000
 5618.00    1.79881   1.68696   -1.000
 5619.00    1.81833   1.71808   -1.000
 5620.00    1.80770   1.74063   -1.000
 5621.00    1.81495   1.75444   -1.000
 5622.00    1.81886   1.75883   -1.000
 5623.00    1.80565   1.74881   -1.000
 5624.00    1.77335   1.72641   -1.000
 5625.00    1.74056   1.70634   -1.000
 5626.00    1.75099   1.70424   -1.000
 5627.00    1.79173   1.72198   -1.000
 5628.00    1.81188   1.74790   -1.000
 5629.00    1.80815   1.76978   -1.000
 5630.00    1.83161   1.78353   -1.000
 5631.00    1.85551   1.79079   -1.000
 5632.00    1.83538   1.79308   -1.000
 5633.00    1.83387   1.79022   -1.000
 5634.00    1.82920   1.78166   -1.000
 5635.00    1.80674   1.76833   -1.000
 5636.00    1.80791   1.75359   -1.000
 5637.00    1.79983   1.74187   -1.000
 5638.00    1.77964   1.73620   -1.000
 5639.00    1.80607   1.73609   -1.000
 5640.00    1.82757   1.73682   -1.000
 5641.00    1.81662   1.73455   -1.000
 5642.00    1.79790   1.73205   -1.000
 5643.00    1.79737   1.73431   -1.000
 5644.00    1.82568   1.74130   -1.000
 5645.00    1.83308   1.74978   -1.000
 5646.00    1.83846   1.75763   -1.000
 5647.00    1.82816   1.76306   -1.000
 5648.00    1.83793   1.76435   -1.000
 5649.00    1.85699   1.76227   -1.000
 5650.00    1.84382   1.76123   -1.000
 5651.00    1.84637   1.76514   -1.000
 5652.00    1.85183   1.77157   -1.000
 5653.00    1.87020   1.77323   -1.000
 5654.00    1.85557   1.76635   -1.000
 5655.00    1.80527   1.75321   -1.000
 5656.00    1.79304   1.73537   -1.000
 5657.00    1.75980   1.71056   -1.000
 5658.00    1.69897   1.68177   -1.000
 5659.00    1.68079   1.66303   -1.000
 5660.00    1.72191   1.66517   -1.000
 5661.00    1.76205   1.68132   -1.000
 5662.00    1.76145   1.69738   -1.000
 5663.00    1.75823   1.70989   -1.000
 5664.00    1.78900   1.72455   -1.000
 5665.00    1.81036   1.74166   -1.000
 5666.00    1.80331   1.75310   -1.000
 5667.00    1.79454   1.75377   -1.000
 5668.00    1.79461   1.74866   -1.000
 5669.00    1.79824   1.74629   -1.000
 5670.00    1.80021   1.75064   -1.000
 5671.00    1.80618   1.76123   -1.000
 5672.00    1.82354   1.77570   -1.000
 5673.00    1.85664   1.79012   -1.000
 5674.00    1.88125   1.80003   -1.000
 5675.00    1.88492   1.80375   -1.000
 5676.00    1.88126   1.80406   -1.000
 5677.00    1.87776   1.80450   -1.000
 5678.00    1.86571   1.80442   -1.000
 5679.00    1.83696   1.80012   -1.000
 5680.00    1.83776   1.78925   -1.000
 5681.00    1.84316   1.77171   -1.000
 5682.00    1.82227   1.75032   -1.000
 5683.00    1.80307   1.73256   -1.000
 5684.00    1.79512   1.72613   -1.000
 5685.00    1.79844   1.73027   -1.000
 5686.00    1.80225   1.73540   -1.000
 5687.00    1.78748   1.73395   -1.000
 5688.00    1.76941   1.72885   -1.000
 5689.00    1.78580   1.72954   -1.000
 5690.00    1.82293   1.74188   -1.000
 5691.00    1.84405   1.76301   -1.000
 5692.00    1.84503   1.78447   -1.000
 5693.00    1.85799   1.79898   -1.000
 5694.00    1.87801   1.80493   -1.000
 5695.00    1.87459   1.80491   -1.000
 5696.00    1.86409   1.80135   -1.000
 5697.00    1.85576   1.79437   -1.000
 5698.00    1.83586   1.78299   -1.000
 5699.00    1.79744   1.76774   -1.000
 5700.00    1.78879   1.75138   -1.000
 5701.00    1.78150   1.73799   -1.000
 5702.00    1.75391   1.73205   -1.000
 5703.00    1.76766   1.73520   -1.000
 5704.00    1.80983   1.74260   -1.000
 5705.00    1.80870   1.74477   -1.000
 5706.00    1.76868   1.73526   -1.000
 5707.00    1.75692   1.71543   -1.000
 5708.00    1.72498   1.69117   -1.000
 5709.00    1.67615   1.66914  183.883
 5710.00    1.66881   1.65653  187.083
 5711.00    1.69358   1.65868   -1.000
 5712.00    1.74076   1.67670   -1.000
 5713.00    1.78987   1.70727   -1.000
 5714.00    1.83450   1.74213   -1.000
 5715.00    1.85777   1.77097   -1.000
 5716.00    1.87408   1.78879   -1.000
 5717.00    1.86534   1.79823   -1.000
 5718.00    1.84287   1.80485   -1.000
 5719.00    1.86828   1.81270   -1.000
 5720.00    1.88562   1.82307   -1.000
 5721.00    1.87788   1.83453   -1.000
 5722.00    1.87532   1.84456   -1.000
 5723.00    1.88145   1.85124   -1.000
 5724.00    1.89798   1.85280   -1.000
 5725.00    1.88629   1.84706   -1.000
 5726.00    1.85295   1.83410   -1.000
 5727.00    1.83734   1.81989   -1.000
 5728.00    1.86129   1.81252   -1.000
 5729.00    1.88100   1.81356   -1.000
 5730.00    1.85635   1.81644   -1.000
 5731.00    1.84441   1.81537   -1.000
 5732.00    1.84193   1.81333   -1.000
 5733.00    1.84355   1.81777   -1.000
 5734.00    1.87820   1.82949   -1.000
 5735.00    1.89223   1.84074   -1.000
 5736.00    1.88525   1.84443   -1.000
 5737.00    1.89281   1.84106   -1.000
 5738.00    1.88857   1.83626   -1.000
 5739.00    1.87259   1.83423   -1.000
 5740.00    1.86527   1.83446   -1.000
 5741.00    1.85443   1.83397   -1.000
 5742.00    1.85784   1.83192   -1.000
 5743.00    1.87309   1.83132   -1.000
 5744.00    1.87765   1.83536   -1.000
 5745.00    1.88521   1.84198   -1.000
 5746.00    1.87072   1.84414   -1.000
 5747.00    1.86683   1.83791   -1.000
 5748.00    1.87395   1.82907   -1.000
 5749.00    1.86340   1.82663   -1.000
 5750.00    1.84478   1.83028  175.554
 5751.00    1.85451   1.82899   -1.000
 5752.00    1.85856   1.81423   -1.000
 5753.00    1.83387   1.79149   -1.000
 5754.00    1.81997   1.77677   -1.000
 5755.00    1.82777   1.78238   -1.000
 5756.00    1.84961   1.80622   -1.000
 5757.00    1.86986   1.83405   -1.000
 5758.00    1.88650   1.85123   -1.000
 5759.00    1.89445   1.85103   -1.000
 5760.00    1.88727   1.83507   -1.000
 5761.00    1.85835   1.81063   -1.000
 5762.00    1.83898   1.78898   -1.000
 5763.00    1.84412   1.78226   -1.000
 5764.00    1.85283   1.79607   -1.000
 5765.00    1.86560   1.82350   -1.000
 5766.00    1.89763   1.85019   -1.000
 5767.00    1.91801   1.86615   -1.000
 5768.00    1.89838   1.87083   -1.000
 5769.00    1.89142   1.86878   -1.000
 5770.00    1.90765   1.86387   -1.000
 5771.00    1.89316   1.85717   -1.000
 5772.00    1.87271   1.84838   -1.000
 5773.00    1.87321   1.83893   -1.000
 5774.00    1.86141   1.83212   -1.000
 5775.00    1.86883   1.83050   -1.000
 5776.00    1.89433   1.83401   -1.000
 5777.00    1.89530   1.83860   -1.000
 5778.00    1.88566   1.83628   -1.000
 5779.00    1.85622   1.82050   -1.000
 5780.00    1.80107   1.79214  174.902
 5781.00    1.75219   1.76041  175.203
 5782.00    1.70997   1.73748   -1.000
 5783.00    1.69945   1.72893   -1.000
 5784.00    1.71862   1.73036  183.652
 5785.00    1.75586   1.73595   -1.000
 5786.00    1.81058   1.74672   -1.000
 5787.00    1.84007   1.76566   -1.000
 5788.00    1.86720   1.78842   -1.000
 5789.00    1.87133   1.80492   -1.000
 5790.00    1.85701   1.80963   -1.000
 5791.00    1.85511   1.80749   -1.000
 5792.00    1.84697   1.80931   -1.000
 5793.00    1.84700   1.82121   -1.000
 5794.00    1.85387   1.83920  177.144
 5795.00    1.86459   1.85379  176.121
 5796.00    1.87220   1.85769  174.746
 5797.00    1.86306   1.85125  173.655
 5798.00    1.85085   1.84363  173.140
 5799.00    1.84740   1.84598  173.733
 5800.00    1.87249   1.86027  174.881
 5801.00    1.91283   1.87718   -1.000
 5802.00    1.91018   1.88551   -1.000
 5803.00    1.90534   1.88087   -1.000
 5804.00    1.91780   1.86687   -1.000
 5805.00    1.88337   1.85205   -1.000
 5806.00    1.86001   1.84421   -1.000
 5807.00    1.86836   1.84519   -1.000
 5808.00    1.87833   1.85119   -1.000
 5809.00    1.89554   1.85811   -1.000
 5810.00    1.91217   1.86434   -1.000
 5811.00    1.92407   1.86884   -1.000
 5812.00    1.90660   1.86979   -1.000
 5813.00    1.89614   1.86555   -1.000
 5814.00    1.90816   1.85559   -1.000
 5815.00    1.88902   1.84202   -1.000
 5816.00    1.87330   1.83162   -1.000
 5817.00    1.89351   1.83288   -1.000
 5818.00    1.91457   1.84730   -1.000
 5819.00    1.93942   1.86623   -1.000
 5820.00    1.94630   1.87908   -1.000
 5821.00    1.94751   1.88242   -1.000
 5822.00    1.95772   1.87980   -1.000
 5823.00    1.94890   1.87615   -1.000
 5824.00    1.92428   1.87423   -1.000
 5825.00    1.91296   1.87444   -1.000
 5826.00    1.91710   1.87630   -1.000
 5827.00    1.92170   1.87916   -1.000
 5828.00    1.92614   1.88230   -1.000
 5829.00    1.91541   1.88495   -1.000
 5830.00    1.89615   1.88634  169.504
 5831.00    1.90051   1.88598  169.725
 5832.00    1.91665   1.88361   -1.000
 5833.00    1.93004   1.87906   -1.000
 5834.00    1.93785   1.87311   -1.000
 5835.00    1.92628   1.86837   -1.000
 5836.00    1.92836   1.86743   -1.000
 5837.00    1.93363   1.86959   -1.000
 5838.00    1.91880   1.87213   -1.000
 5839.00    1.91143   1.87481   -1.000
 5840.00    1.91454   1.87984   -1.000
 5841.00    1.92064   1.88711   -1.000
 5842.00    1.93233   1.89284   -1.000
 5843.00    1.94807   1.89348   -1.000
 5844.00    1.93770   1.88848   -1.000
 5845.00    1.92142   1.87907   -1.000
 5846.00    1.90311   1.86719   -1.000
 5847.00    1.87766   1.85616   -1.000
 5848.00    1.86937   1.84960   -1.000
 5849.00    1.89388   1.84773   -1.000
 5850.00    1.90955   1.84584   -1.000
 5851.00    1.89465   1.83851   -1.000
 5852.00    1.87998   1.82520   -1.000
 5853.00    1.85901   1.81106   -1.000
 5854.00    1.85155   1.80096   -1.000
 5855.00    1.85288   1.79280   -1.000
 5856.00    1.83612   1.77918   -1.000
 5857.00    1.80573   1.75846   -1.000
 5858.00    1.80186   1.74200   -1.000
 5859.00    1.82884   1.74348   -1.000
 5860.00    1.85272   1.76266   -1.000
 5861.00    1.86686   1.78643   -1.000
 5862.00    1.86712   1.80363   -1.000
 5863.00    1.88815   1.81300   -1.000
 5864.00    1.89647   1.81790   -1.000
 5865.00    1.88296   1.81852   -1.000
 5866.00    1.89413   1.81396   -1.000
 5867.00    1.90149   1.80896   -1.000
 5868.00    1.91280   1.81127   -1.000
 5869.00    1.94249   1.82292   -1.000
 5870.00    1.93972   1.83793   -1.000
 5871.00    1.91357   1.84827   -1.000
 5872.00    1.89557   1.85057   -1.000
 5873.00    1.88362   1.84751   -1.000
 5874.00    1.89932   1.84388   -1.000
 5875.00    1.90599   1.84157   -1.000
 5876.00    1.89534   1.83855   -1.000
 5877.00    1.90317   1.83214   -1.000
 5878.00    1.90870   1.82185   -1.000
 5879.00    1.88758   1.80962   -1.000
 5880.00    1.86992   1.79875   -1.000
 5881.00    1.86619   1.79170   -1.000
 5882.00    1.84968   1.78745   -1.000
 5883.00    1.83262   1.78256   -1.000
 5884.00    1.83933   1.77538   -1.000
 5885.00    1.86423   1.76552   -1.000
 5886.00    1.87880   1.74600   -1.000
 5887.00    1.85424   1.69988   -1.000
 5888.00    1.76356   1.61423   -1.000
 5889.00    1.64208   1.50237   -1.000
 5890.00    1.60608   1.40881   -1.000
 5891.00    1.74871   1.37860   -1.000
 5892.00    2.09059   1.41249   -1.000
 5893.00    2.20454   1.46450   -1.000
 5894.00    1.62183   1.48775   -1.000
 5895.00    0.79484   1.47331   -1.000
 5896.00    0.54625   1.45181   -1.000
 5897.00    0.98836   1.46223   -1.000
 5898.00    1.57642   1.51495   -1.000
 5899.00    1.86230   1.58745   -1.000
 5900.00    1.67523   1.65385   -1.000
 5901.00    1.36441   1.70490   -1.000
 5902.00    1.29737   1.74132   -1.000
 5903.00    1.48507   1.76456   -1.000
 5904.00    1.70430   1.77671   -1.000
 5905.00    1.80680   1.78183   -1.000
 5906.00    1.84628   1.78500   -1.000
 5907.00    1.88020   1.78966   -1.000
 5908.00    1.90452   1.79618   -1.000
 5909.00    1.89796   1.80318   -1.000
 5910.00    1.88079   1.80908   -1.000
 5911.00    1.85713   1.81149   -1.000
 5912.00    1.83682   1.80689   -1.000
 5913.00    1.83789   1.79326   -1.000
 5914.00    1.83242   1.77468   -1.000
 5915.00    1.82836   1.76060   -1.000
 5916.00    1.82141   1.75815   -1.000
 5917.00    1.84303   1.76728   -1.000
 5918.00    1.86868   1.78292   -1.000
 5919.00    1.88665   1.79850   -1.000
 5920.00    1.86161   1.80865   -1.000
 5921.00    1.82510   1.81164  180.203
 5922.00    1.82987   1.80990   -1.000
 5923.00    1.85224   1.80818   -1.000
 5924.00    1.86388   1.81039   -1.000
 5925.00    1.87288   1.81651   -1.000
 5926.00    1.86791   1.82239   -1.000
 5927.00    1.87699   1.82230   -1.000
 5928.00    1.89171   1.81357   -1.000
 5929.00    1.88029   1.80012   -1.000
 5930.00    1.85337   1.79076   -1.000
 5931.00    1.84292   1.79160   -1.000
 5932.00    1.85196   1.79953   -1.000
 5933.00    1.87196   1.80549   -1.000
 5934.00    1.89049   1.80558   -1.000
 5935.00    1.89068   1.80536   -1.000
 5936.00    1.88803   1.81127   -1.000
 5937.00    1.88378   1.82180   -1.000
 5938.00    1.87137   1.82999   -1.000
 5939.00    1.84959   1.83062   -1.000
 5940.00    1.84175   1.82324   -1.000
 5941.00    1.86411   1.81207   -1.000
 5942.00    1.87418   1.80433   -1.000
 5943.00    1.86117   1.80507   -1.000
 5944.00    1.85775   1.81302   -1.000
 5945.00    1.86157   1.82200   -1.000
 5946.00    1.86944   1.82547   -1.000
 5947.00    1.87385   1.82038   -1.000
 5948.00    1.84987   1.80973   -1.000
 5949.00    1.84012   1.80119   -1.000
 5950.00    1.85757   1.79971   -1.000
 5951.00    1.87473   1.80207   -1.000
 5952.00    1.85867   1.80180   -1.000
 5953.00    1.83940   1.79856   -1.000
 5954.00    1.85578   1.79746   -1.000
 5955.00    1.87069   1.79912   -1.000
 5956.00    1.87394   1.79857   -1.000
 5957.00    1.86532   1.79538   -1.000
 5958.00    1.84671   1.79576   -1.000
 5959.00    1.82993   1.80418   -1.000
 5960.00    1.83553   1.81852   -1.000
 5961.00    1.86639   1.83261   -1.000
 5962.00    1.88527   1.84141   -1.000
 5963.00    1.90025   1.84342   -1.000
 5964.00    1.89367   1.83963   -1.000
 5965.00    1.87303   1.83280   -1.000
 5966.00    1.86597   1.82745   -1.000
 5967.00    1.85583   1.82733   -1.000
 5968.00    1.86854   1.83241   -1.000
 5969.00    1.89797   1.83995   -1.000
 5970.00    1.89168   1.84759   -1.000
 5971.00    1.91544   1.85363   -1.000
 5972.00    1.93662   1.85615   -1.000
 5973.00    1.92273   1.85351   -1.000
 5974.00    1.90099   1.84453   -1.000
 5975.00    1.87656   1.82954   -1.000
 5976.00    1.85112   1.81256   -1.000
 5977.00    1.83755   1.80041   -1.000
 5978.00    1.85336   1.79847   -1.000
 5979.00    1.87206   1.80682   -1.000
 5980.00    1.88317   1.81965   -1.000
 5981.00    1.89526   1.82766   -1.000
 5982.00    1.86127   1.82350   -1.000
 5983.00    1.82953   1.80769   -1.000
 5984.00    1.82558   1.78978   -1.000
 5985.00    1.82037   1.78167   -1.000
 5986.00    1.83743   1.78725   -1.000
 5987.00    1.84468   1.80067   -1.000
 5988.00    1.87144   1.81420   -1.000
 5989.00    1.90013   1.82414   -1.000
 5990.00    1.88667   1.82982   -1.000
 5991.00    1.87608   1.83282   -1.000
 5992.00    1.88435   1.83719   -1.000
 5993.00    1.90519   1.84584   -1.000
 5994.00    1.91341   1.85529   -1.000
 5995.00    1.90902   1.85761   -1.000
 5996.00    1.88998   1.84938   -1.000
 5997.00    1.87441   1.83585   -1.000
 5998.00    1.86715   1.82584   -1.000
 5999.00    1.87766   1.82402   -1.000
 6000.00    1.88924   1.82745   -1.000
 6001.00    1.89035   1.82943   -1.000
 6002.00    1.89066   1.82654   -1.000
 6003.00    1.86387   1.82167   -1.000
 6004.00    1.84065   1.81938   -1.000
 6005.00    1.84088   1.81800   -1.000
 6006.00    1.83822   1.81084   -1.000
 6007.00    1.85122   1.79687   -1.000
 6008.00    1.84980   1.78564   -1.000
 6009.00    1.82526   1.78793   -1.000
 6010.00    1.83881   1.80265   -1.000
 6011.00    1.85085   1.81712   -1.000
 6012.00    1.84940   1.82089   -1.000
 6013.00    1.84127   1.81542   -1.000
 6014.00    1.82824   1.80878   -1.000
 6015.00    1.84100   1.80543   -1.000
 6016.00    1.83926   1.80411   -1.000
 6017.00    1.84341   1.80275   -1.000
 6018.00    1.86341   1.80038   -1.000
 6019.00    1.83575   1.79559   -1.000
 6020.00    1.82541   1.78868   -1.000
 6021.00    1.82110   1.78395   -1.000
 6022.00    1.82492   1.78542   -1.000
 6023.00    1.84159   1.79247   -1.000
 6024.00    1.84625   1.80244   -1.000
 6025.00    1.83541   1.81445   -1.000
 6026.00    1.84420   1.82760   -1.000
 6027.00    1.85873   1.83970   -1.000
 6028.00    1.86579   1.85001   -1.000
 6029.00    1.87129   1.85922  179.417
 6030.00    1.87974   1.86676  178.699
 6031.00    1.89695   1.87199   -1.000
 6032.00    1.90545   1.87640   -1.000
 6033.00    1.90206   1.88223   -1.000
 6034.00    1.88961   1.88946  177.285
 6035.00    1.88736   1.89514  177.426
 6036.00    1.90478   1.89627  176.826
 6037.00    1.90481   1.89266  176.146
 6038.00    1.88803   1.88594  175.894
 6039.00    1.87335   1.87798  175.741
 6040.00    1.85719   1.87104  175.597
 6041.00    1.85479   1.86787  176.185
 6042.00    1.86761   1.86996  176.999
 6043.00    1.86910   1.87622  177.362
 6044.00    1.88004   1.88371  177.573
 6045.00    1.90039   1.88984  177.147
 6046.00    1.91678   1.89409   -1.000
 6047.00    1.90849   1.89746  175.474
 6048.00    1.89199   1.90066  174.649
 6049.00    1.88964   1.90330  174.885
 6050.00    1.92003   1.90422   -1.000
 6051.00    1.93438   1.90211   -1.000
 6052.00    1.91200   1.89611   -1.000
 6053.00    1.88332   1.88641  175.596
 6054.00    1.86684   1.87457  175.864
 6055.00    1.86397   1.86323  176.076
 6056.00    1.87030   1.85582   -1.000
 6057.00    1.85816   1.85530  177.276
 6058.00    1.84101   1.86165   -1.000
 6059.00    1.86341   1.87119  178.833
 6060.00    1.89203   1.87882  178.981
 6061.00    1.88413   1.88036  178.343
 6062.00    1.86597   1.87351  177.355
 6063.00    1.85969   1.85848  176.900
 6064.00    1.84976   1.83936  177.297
 6065.00    1.86997   1.82513   -1.000
 6066.00    2.00656   1.82572   -1.000
 6067.00    2.21653   1.84272   -1.000
 6068.00    1.95630   1.86665   -1.000
 6069.00    0.71076   1.88676   -1.000
 6070.00    0.19440   1.89925   -1.000
 6071.00    1.20453   1.90582   -1.000
 6072.00    2.00663   1.90898   -1.000
 6073.00    2.13832   1.91001   -1.000
 6074.00    1.75431   1.90891   -1.000
 6075.00    0.77890   1.90462   -1.000
 6076.00    1.05880   1.89590   -1.000
 6077.00    1.97484   1.88310   -1.000
 6078.00    1.85386   1.86908  175.795
 6079.00    1.84787   1.85761  176.561
 6080.00    1.85584   1.85016  177.539
 6081.00    1.85648   1.84512  178.701
 6082.00    1.83961   1.84109  180.016
 6083.00    1.80872   1.83885   -1.000
 6084.00    1.81688   1.83905   -1.000
 6085.00    1.84145   1.84144  181.051
 6086.00    1.84669   1.84600  181.404
 6087.00    1.85457   1.85151  181.287
 6088.00    1.87504   1.85443   -1.000
 6089.00    1.87953   1.85192   -1.000
 6090.00    1.86893   1.84538   -1.000
 6091.00    1.85538   1.83961   -1.000
 6092.00    1.83787   1.83909  180.570
 6093.00    1.82790   1.84517  181.602
 6094.00    1.83877   1.85552  182.010
 6095.00    1.86972   1.86575  181.439
 6096.00    1.89620   1.87274   -1.000
 6097.00    1.89530   1.87685   -1.000
 6098.00    1.88404   1.87930  178.425
 6099.00    1.87471   1.87704  177.986
 6100.00    1.87590   1.86275   -1.000
 6101.00    1.84040   1.83282  178.620
 6102.00    1.79522   1.79643  178.660
 6103.00    1.78453   1.77327  179.435
 6104.00    1.80304   1.77713   -1.000
 6105.00    1.80549   1.80213  186.748
 6106.00    1.82511   1.83063  187.986
 6107.00    1.83316   1.85121  185.423
 6108.00    1.86233   1.86383  181.994
 6109.00    1.88139   1.87216  180.103
 6110.00    1.86379   1.87713  180.138
 6111.00    1.85531   1.87883   -1.000
 6112.00    1.85160   1.88016   -1.000
 6113.00    1.84757   1.88385   -1.000
 6114.00    1.86240   1.88846   -1.000
 6115.00    1.84892   1.89021   -1.000
 6116.00    1.85865   1.88766   -1.000
 6117.00    1.85837   1.88237   -1.000
 6118.00    1.83626   1.87411   -1.000
 6119.00    1.80100   1.85861   -1.000
 6120.00    1.78774   1.83270   -1.000
 6121.00    1.78010   1.80124   -1.000
 6122.00    1.77109   1.77743  182.372
 6123.00    1.76488   1.77309  185.093
 6124.00    1.78274   1.78751  187.221
 6125.00    1.81430   1.80914  188.384
 6126.00    1.81782   1.82678  187.261
 6127.00    1.83555   1.83714  184.156
 6128.00    1.83982   1.84403  182.684
 6129.00    1.82593   1.85298   -1.000
 6130.00    1.83163   1.86577   -1.000
 6131.00    1.82999   1.87908   -1.000
 6132.00    1.83670   1.88699   -1.000
 6133.00    1.85016   1.88271   -1.000
 6134.00    1.82402   1.85968   -1.000
 6135.00    1.78829   1.81733   -1.000
 6136.00    1.74609   1.76827   -1.000
 6137.00    1.71667   1.73554  183.275
 6138.00    1.72214   1.73533  188.090
 6139.00    1.78007   1.76113   -1.000
 6140.00    1.81892   1.79133   -1.000
 6141.00    1.81552   1.81252  195.102
 6142.00    1.80095   1.82782   -1.000
 6143.00    1.79533   1.84484   -1.000
 6144.00    1.82193   1.86307   -1.000
 6145.00    1.83052   1.87552   -1.000
 6146.00    1.84824   1.87785   -1.000
 6147.00    1.85136   1.87144   -1.000
 6148.00    1.82330   1.86042   -1.000
 6149.00    1.81302   1.84911   -1.000
 6150.00    1.80217   1.84135   -1.000
 6151.00    1.79266   1.83980   -1.000
 6152.00    1.81238   1.84326   -1.000
 6153.00    1.81943   1.84576   -1.000
 6154.00    1.83728   1.84219  184.799
 6155.00    1.84720   1.83422   -1.000
 6156.00    1.81244   1.82707  182.867
 6157.00    1.79978   1.82173   -1.000
 6158.00    1.80483   1.81219  184.867
 6159.00    1.78740   1.78885  185.461
 6160.00    1.75470   1.74634  185.729
 6161.00    1.69652   1.69215  186.966
 6162.00    1.63841   1.64678  189.579
 6163.00    1.61969   1.63002  194.032
 6164.00    1.63703   1.64520  200.061
 6165.00    1.68528   1.67818  204.576
 6166.00    1.72720   1.70976   -1.000
 6167.00    1.74209   1.72608   -1.000
 6168.00    1.71854   1.72304  195.252
 6169.00    1.69624   1.71002  193.230
 6170.00    1.70205   1.70541  193.003
 6171.00    1.72359   1.71942  194.257
 6172.00    1.74858   1.74512  196.821
 6173.00    1.76673   1.76955  197.628
 6174.00    1.76267   1.78599   -1.000
 6175.00    1.75754   1.79461   -1.000
 6176.00    1.74428   1.79895   -1.000
 6177.00    1.74193   1.80326   -1.000
 6178.00    1.76990   1.80930   -1.000
 6179.00    1.77755   1.81587   -1.000
 6180.00    1.77149   1.82230   -1.000
 6181.00    1.77096   1.82947   -1.000
 6182.00    1.79353   1.83657   -1.000
 6183.00    1.81079   1.84014   -1.000
 6184.00    1.79163   1.83725   -1.000
 6185.00    1.78484   1.82770   -1.000
 6186.00    1.78263   1.81371   -1.000
 6187.00    1.75585   1.79854   -1.000
 6188.00    1.73874   1.78393   -1.000
 6189.00    1.72329   1.76784   -1.000
 6190.00    1.72131   1.74850   -1.000
 6191.00    1.70388   1.73201   -1.000
 6192.00    1.68217   1.73019   -1.000
 6193.00    1.71385   1.74707   -1.000
 6194.00    1.74569   1.77355   -1.000
 6195.00    1.76687   1.79774   -1.000
 6196.00    1.77589   1.81331   -1.000
 6197.00    1.78033   1.81826   -1.000
 6198.00    1.75998   1.81327   -1.000
 6199.00    1.72638   1.80338   -1.000
 6200.00    1.74093   1.79727   -1.000
 6201.00    1.75389   1.80118   -1.000
 6202.00    1.76285   1.81342   -1.000
 6203.00    1.76379   1.82747   -1.000
 6204.00    1.76818   1.83849   -1.000
 6205.00    1.78198   1.84554   -1.000
 6206.00    1.79890   1.84981   -1.000
 6207.00    1.79544   1.85233   -1.000
 6208.00    1.76831   1.85269   -1.000
 6209.00    1.76680   1.84901   -1.000
 6210.00    1.76864   1.83922   -1.000
 6211.00    1.76335   1.82203   -1.000
 6212.00    1.75658   1.79790   -1.000
 6213.00    1.72068   1.77094   -1.000
 6214.00    1.70376   1.74865   -1.000
 6215.00    1.67341   1.73724   -1.000
 6216.00    1.75269   1.73675   -1.000
 6217.00    1.98410   1.74105   -1.000
 6218.00    2.04614   1.74295   -1.000
 6219.00    2.03153   1.74088   -1.000
 6220.00    2.04441   1.73989   -1.000
 6221.00    2.04983   1.74487   -1.000
 6222.00    2.07057   1.75449   -1.000
 6223.00    2.09683   1.76355   -1.000
 6224.00    2.09314   1.76938   -1.000
 6225.00    2.00147   1.77276   -1.000
 6226.00    1.54539   1.77384   -1.000
 6227.00    0.87231   1.76964   -1.000
 6228.00    1.49265   1.75573   -1.000
 6229.00    1.74732   1.73162   -1.000
 6230.00    1.64909   1.70515   -1.000
 6231.00    1.63865   1.68947   -1.000
 6232.00    1.64959   1.69351   -1.000
 6233.00    1.68126   1.71551   -1.000
 6234.00    1.72602   1.74505   -1.000
 6235.00    1.75641   1.76936  201.701
 6236.00    1.77968   1.77998  198.365
 6237.00    1.82417   1.77635   -1.000
 6238.00    1.82785   1.76418   -1.000
 6239.00    1.77532   1.75048   -1.000
 6240.00    1.71724   1.73941   -1.000
 6241.00    1.65347   1.73096   -1.000
 6242.00    1.59879   1.72253   -1.000
 6243.00    1.61591   1.71278   -1.000
 6244.00    1.64505   1.70383   -1.000
 6245.00    1.65674   1.69994   -1.000
 6246.00    1.66662   1.70524   -1.000
 6247.00    1.68068   1.72108   -1.000
 6248.00    1.72200   1.74297   -1.000
 6249.00    1.71736   1.76107   -1.000
 6250.00    1.68165   1.76583   -1.000
 6251.00    1.68149   1.75430   -1.000
 6252.00    1.68031   1.73231   -1.000
 6253.00    1.64988   1.71035   -1.000
 6254.00    1.62349   1.69586   -1.000
 6255.00    1.63968   1.68871   -1.000
 6256.00    1.66310   1.68413   -1.000
 6257.00    1.62180   1.67976   -1.000
 6258.00    1.60136   1.67882   -1.000
 6259.00    1.66643   1.68650   -1.000
 6260.00    1.71982   1.70485   -1.000
 6261.00    1.73696   1.73065  207.993
 6262.00    1.75244   1.75650  206.227
 6263.00    1.71256   1.77467   -1.000
 6264.00    1.65663   1.78208   -1.000
 6265.00    1.67937   1.78273   -1.000
 6266.00    1.72036   1.78349   -1.000
 6267.00    1.71819   1.78672   -1.000
 6268.00    1.71596   1.78934   -1.000
 6269.00    1.71970   1.78890   -1.000
 6270.00    1.71588   1.78769   -1.000
 6271.00    1.72218   1.78933   -1.000
 6272.00    1.70385   1.79352   -1.000
 6273.00    1.69017   1.79553   -1.000
 6274.00    1.70590   1.79033   -1.000
 6275.00    1.72214   1.77687   -1.000
 6276.00    1.73233   1.75848   -1.000
 6277.00    1.73414   1.73986  195.924
 6278.00    1.71505   1.72424  197.476
 6279.00    1.67581   1.71344   -1.000
 6280.00    1.63498   1.70996   -1.000
 6281.00    1.58786   1.71662   -1.000
 6282.00    1.58874   1.73336   -1.000
 6283.00    1.59498   1.75586   -1.000
 6284.00    1.59379   1.77788   -1.000
 6285.00    1.61569   1.79520   -1.000
 6286.00    1.63487   1.80743   -1.000
 6287.00    1.65906   1.81571   -1.000
 6288.00    1.70283   1.81958   -1.000
 6289.00    1.73783   1.81720   -1.000
 6290.00    1.74813   1.80884   -1.000
 6291.00    1.71535   1.79844   -1.000
 6292.00    1.66321   1.79048   -1.000
 6293.00    1.62205   1.78641   -1.000
 6294.00    1.62408   1.78388   -1.000
 6295.00    1.65614   1.77865   -1.000
 6296.00    1.67982   1.76872   -1.000
 6297.00    1.68098   1.75731   -1.000
 6298.00    1.67946   1.74961   -1.000
 6299.00    1.72002   1.74621   -1.000
 6300.00    1.79272   1.74301   -1.000
 6301.00    1.86957   1.73844   -1.000
 6302.00    1.94821   1.73749   -1.000
 6303.00    2.05249   1.74585   -1.000
 6304.00    1.97144   1.76281   -1.000
 6305.00    1.60957   1.78255   -1.000
 6306.00    1.21867   1.80019   -1.000
 6307.00    1.19803   1.81361   -1.000
 6308.00    1.46041   1.82140   -1.000
 6309.00    1.62606   1.82284   -1.000
 6310.00    1.69831   1.81936   -1.000
 6311.00    1.69406   1.81359   -1.000
 6312.00    1.66794   1.80679   -1.000
 6313.00    1.62054   1.79803   -1.000
 6314.00    1.59773   1.78646   -1.000
 6315.00    1.63382   1.77378   -1.000
 6316.00    1.66791   1.76259   -1.000
 6317.00    1.64887   1.75460   -1.000
 6318.00    1.65197   1.75243   -1.000
 6319.00    1.65517   1.75937   -1.000
 6320.00    1.65350   1.77447   -1.000
 6321.00    1.65686   1.79162   -1.000
 6322.00    1.66524   1.80603   -1.000
 6323.00    1.70343   1.81826   -1.000
 6324.00    1.72851   1.82984   -1.000
 6325.00    1.73571   1.83937   -1.000
 6326.00    1.73765   1.84484   -1.000
 6327.00    1.70374   1.84668   -1.000
 6328.00    1.70868   1.84693   -1.000
 6329.00    1.75601   1.84715   -1.000
 6330.00    1.77095   1.84835   -1.000
 6331.00    1.76491   1.85092   -1.000
 6332.00    1.78295   1.85234   -1.000
 6333.00    1.77235   1.84681   -1.000
 6334.00    1.72073   1.83088   -1.000
 6335.00    1.68358   1.80894   -1.000
 6336.00    1.64893   1.79144   -1.000
 6337.00    1.63058   1.78662   -1.000
 6338.00    1.65860   1.79483   -1.000
 6339.00    1.69607   1.81042   -1.000
 6340.00    1.76149   1.82638   -1.000
 6341.00    1.72948   1.83638   -1.000
 6342.00    1.73988   1.83687   -1.000
 6343.00    1.74407   1.83015   -1.000
 6344.00    1.72312   1.82352   -1.000
 6345.00    1.70261   1.82359   -1.000
 6346.00    1.73548   1.83168   -1.000
 6347.00    1.74757   1.84489   -1.000
 6348.00    1.76939   1.85926   -1.000
 6349.00    1.74857   1.87125   -1.000
 6350.00    1.75934   1.87849   -1.000
 6351.00    1.78115   1.87992   -1.000
 6352.00    1.75464   1.87500   -1.000
 6353.00    1.74632   1.86405   -1.000
 6354.00    1.70876   1.84984   -1.000
 6355.00    1.70605   1.83683   -1.000
 6356.00    1.68870   1.82684   -1.000
 6357.00    1.71026   1.81728   -1.000
 6358.00    1.70669   1.80561   -1.000
 6359.00    1.71025   1.79313   -1.000
 6360.00    1.71757   1.78230   -1.000
 6361.00    1.68321   1.77428   -1.000
 6362.00    1.66746   1.77046   -1.000
 6363.00    1.70704   1.77309   -1.000
 6364.00    1.75893   1.78285   -1.000
 6365.00    1.78267   1.79774  193.590
 6366.00    1.82726   1.81471   -1.000
 6367.00    1.88044   1.83079   -1.000
 6368.00    1.79687   1.84315   -1.000
 6369.00    1.68302   1.85032   -1.000
 6370.00    1.58525   1.85417   -1.000
 6371.00    1.61895   1.85864   -1.000
 6372.00    1.66788   1.86556   -1.000
 6373.00    1.73306   1.87286   -1.000
 6374.00    1.75927   1.87730   -1.000
 6375.00    1.75417   1.87760   -1.000
 6376.00    1.73942   1.87419   -1.000
 6377.00    1.75852   1.86776   -1.000
 6378.00    1.74048   1.85955   -1.000
 6379.00    1.74043   1.85143   -1.000
 6380.00    1.72009   1.84514   -1.000
 6381.00    1.70003   1.84165   -1.000
 6382.00    1.72458   1.84091   -1.000
 6383.00    1.75565   1.84203   -1.000
 6384.00    1.71896   1.84464   -1.000
 6385.00    1.68674   1.84920   -1.000
 6386.00    1.71691   1.85511   -1.000
 6387.00    1.70349   1.86010   -1.000
 6388.00    1.69549   1.86239   -1.000
 6389.00    1.71407   1.86139   -1.000
 6390.00    1.72109   1.85565   -1.000
 6391.00    1.67365   1.84306   -1.000
 6392.00    1.65150   1.82532   -1.000
 6393.00    1.62668   1.81060   -1.000
 6394.00    1.64957   1.80834   -1.000
 6395.00    1.62766   1.82006   -1.000
 6396.00    1.62993   1.83664   -1.000
 6397.00    1.65490   1.84472   -1.000
 6398.00    1.64349   1.83685   -1.000
 6399.00    1.61150   1.81828   -1.000
 6400.00    1.57525   1.80435   -1.000
 6401.00    1.57922   1.80764   -1.000
 6402.00    1.58981   1.82726   -1.000
 6403.00    1.62106   1.85162   -1.000
 6404.00    1.61920   1.86866   -1.000
 6405.00    1.62122   1.87227   -1.000
 6406.00    1.60689   1.86384   -1.000
 6407.00    1.59684   1.85097   -1.000
 6408.00    1.56970   1.84218   -1.000
 6409.00    1.53925   1.83982   -1.000
 6410.00    1.55058   1.83953   -1.000
 6411.00    1.54018   1.83775   -1.000
 6412.00    1.52976   1.83657   -1.000
 6413.00    1.50920   1.83931   -1.000
 6414.00    1.50550   1.84563   -1.000
 6415.00    1.51178   1.85254   -1.000
 6416.00    1.51562   1.85709   -1.000
 6417.00    1.50715   1.85651   -1.000
 6418.00    1.50116   1.84858   -1.000
 6419.00    1.46500   1.83436   -1.000
 6420.00    1.44279   1.82035   -1.000
 6421.00    1.40003   1.81576   -1.000
 6422.00    1.40563   1.82536   -1.000
 6423.00    1.42863   1.84484   -1.000
 6424.00    1.41854   1.86516   -1.000
 6425.00    1.41255   1.88075   -1.000
 6426.00    1.42765   1.89041   -1.000
 6427.00    1.39817   1.89250   -1.000
 6428.00    1.39246   1.88398   -1.000
