###################################################################
## OUTPUT of StarlightChains_v04.for    [Cid@UFSC - 01/Apr/2007] ##
###################################################################

## Some input info
NGC6121_a_1.cxt                          [arq_obs]
Base.BC03.N                              [arq_base]
NGC6121_a_1.msk                          [arq_masks]
StCv04.C99.config                        [arq_config]
   45                                    [N_base]
    0                                    [N_YAV_components = # of components with extra extinction!]
    0                                    [i_FitPowerLaw (1/0 = Yes/No)]
-9.99                                    [alpha_PowerLaw]
CCM                                      [red_law_option]
 1.458241                                [q_norm = A(l_norm)/A(V)]

## (Re)Sampling Parameters
 3359.00                                 [l_ini (A)]
 6428.00                                 [l_fin (A)]
    1.00                                 [dl    (A)]     (OBS: dl_cushion =    50.00 A)

## Normalization info
 4020.00                                 [l_norm (A) - for base]
 4010.00                                 [llow_norm (A) - window for f_obs]
 4060.00                                 [lupp_norm (A) - window for f_obs]
2.192402E-14                             [fobs_norm (in input units)]

## S/N
 4730.00                                 [llow_SN (A) - window for S/N]
 4780.00                                 [lupp_SN (A) - window for S/N]
  81.858                                 [S/N in S/N window]
  65.062                                 [S/N in norm. window]
 104.198                                 [S/N_err in S/N window]
  82.818                                 [S/N_err in norm. window]
  1.0000                                 [fscale_chi2]

## etc...
  2147483628                             [idum_orig]
  3070                                   [NOl_eff]
  2148                                   [Nl_eff]
   922    NSIGMA                         [Ntot_cliped & clip_method]
  1644300                                [Nglobal_steps]
   7                                     [N_chains]
  10                                     [NEX0s_base = N_base in EX0s-fits]
 0   0   1      112   2.0   2.032E+02    [Clip-Bug, RC-Crash & Burn-In warning-flags, n_censored_weights, wei_nsig_threshold & wei_limit]
    23     23.331     23.319      0.012  [idt_all, wdt_TotTime, wdt_UsrTime & wdt_SysTime (sec)]

## Synthesis Results - Best model ##

 1.95004E+00                             [chi2/Nl_eff]
     1.24590                             [adev (%)]

    99.90814                             [sum-of-x (%)]
 1.27692E-13                             [Flux_tot (units of input spectrum!)]
 1.06253E-09                             [Mini_tot (???)]
 5.69908E-10                             [Mcor_tot (???)]

 -22.16                                  [v0_min  (km/s)]
  67.11                                  [vd_min  (km/s)]
 1.3126                                  [AV_min  (mag)]
 0.0000                                  [YAV_min (mag)]

# j     x_j(%)      Mini_j(%)     Mcor_j(%)     age_j(yr)     Z_j      (L/M)_j    YAV?  Mstars   component_j        a/Fe...       SSP_chi2r SSP_adev(%)   SSP_AV   SSP_x(%)
  1      0.0000     0.0000E+00    0.0000E+00    1.000000E+06  0.00400  1.114E-02    0   1.0000   age020_m42            0.0000     1.3941E+02     9.2815   4.0000    85.2740
  2      8.4816     2.5049E-02    4.6696E-02    3.160000E+06  0.00400  4.073E-02    0   0.9999   age045_m42            0.0000     2.4728E+01     4.3250   3.3171    92.4513
  3      0.1056     5.0149E-04    8.8709E-04    5.010000E+06  0.00400  2.534E-02    0   0.9488   age055_m42            0.0000     5.8193E+01     6.5003   3.6861    87.1239
  4     13.1275     1.2424E-01    2.0527E-01    1.000000E+07  0.00400  1.271E-02    0   0.8862   age070_m42            0.0000     4.9715E+01     6.2719   2.9032    91.2264
  5      0.0009     2.2278E-05    3.3951E-05    2.512000E+07  0.00400  5.070E-03    0   0.8174   age090_m42            0.0000     4.2921E+01     5.8297   2.7863    92.3922
  6      0.0000     0.0000E+00    0.0000E+00    4.000000E+07  0.00400  3.505E-03    0   0.7851   age104_m42            0.0000     2.3654E+01     4.3033   2.4967    94.5817
  7      0.0054     2.8551E-04    3.8363E-04    1.015200E+08  0.00400  2.268E-03    0   0.7207   age116_m42            0.0000     4.9142E+01     4.4277   2.5963   100.6287
  8      0.0000     0.0000E+00    0.0000E+00    2.861200E+08  0.00400  1.079E-03    0   0.6613   age125_m42            0.0000     5.3536E+01     4.8015   2.1272   101.7061
  9      4.6027     1.0905E+00    1.2599E+00    6.405400E+08  0.00400  5.077E-04    0   0.6197   age132_m42            0.0000     5.7367E+01     5.1653   1.7731   105.3794
 10     35.2078     1.1980E+01    1.3455E+01    9.047900E+08  0.00400  3.535E-04    0   0.6024   age135_m42            0.0000     3.3915E+01     4.2428   1.5261   104.8572
 11      0.0000     0.0000E+00    0.0000E+00    1.434000E+09  0.00400  1.910E-04    0   0.5716   age139_m42            0.0000     1.8189E+01     3.6275   1.0030   103.4269
 12      8.3494     1.0230E+01    1.0419E+01    2.500000E+09  0.00400  9.818E-05    0   0.5463   age150_m42            0.0000     1.6297E+01     3.3022   0.7122    99.2971
 13     30.0244     7.6549E+01    7.4613E+01    5.000000E+09  0.00400  4.718E-05    0   0.5228   age161_m42            0.0000     2.4680E+01     3.7276   0.5324    96.4079
 14      0.0000     0.0000E+00    0.0000E+00    1.100000E+10  0.00400  2.205E-05    0   0.4980   age185_m42            0.0000     5.1195E+01     5.1551   0.2810    93.9630
 15      0.0000     0.0000E+00    0.0000E+00    1.300000E+10  0.00400  1.883E-05    0   0.4927   age193_m42            0.0000     5.5159E+01     5.3382   0.2646    93.7724
 16      0.0000     0.0000E+00    0.0000E+00    1.000000E+06  0.02000  1.989E-02    0   1.0000   age020_m62            0.0000     1.3561E+02     9.0172   4.0000    85.0777
 17      0.0000     0.0000E+00    0.0000E+00    3.160000E+06  0.02000  3.772E-02    0   0.9858   age045_m62            0.0000     1.0671E+02     8.3683   4.0000    83.9326
 18      0.0000     0.0000E+00    0.0000E+00    5.010000E+06  0.02000  3.227E-02    0   0.9342   age055_m62            0.0000     4.0401E+01     5.5271   3.5610    89.6763
 19      0.0027     3.2100E-05    5.2373E-05    1.000000E+07  0.02000  1.011E-02    0   0.8751   age070_m62            0.0000     1.3303E+02    10.1731   2.8987    88.2932
 20      0.0000     0.0000E+00    0.0000E+00    2.512000E+07  0.02000  4.206E-03    0   0.8099   age090_m62            0.0000     9.0974E+01     8.2923   2.8507    88.6430
 21      0.0000     0.0000E+00    0.0000E+00    4.000000E+07  0.02000  3.373E-03    0   0.7799   age104_m62            0.0000     2.3121E+01     4.0657   2.7237    95.6392
 22      0.0000     0.0000E+00    0.0000E+00    1.015200E+08  0.02000  1.878E-03    0   0.7221   age116_m62            0.0000     3.9599E+01     4.0272   2.6119   101.3795
 23      0.0000     0.0000E+00    0.0000E+00    2.861200E+08  0.02000  8.869E-04    0   0.6700   age125_m62            0.0000     9.4716E+01     6.2399   2.1633   105.7790
 24      0.0000     0.0000E+00    0.0000E+00    6.405400E+08  0.02000  3.657E-04    0   0.6322   age132_m62            0.0000     6.8774E+01     6.1447   1.5078   107.9987
 25      0.0000     0.0000E+00    0.0000E+00    9.047900E+08  0.02000  2.312E-04    0   0.6152   age135_m62            0.0000     4.3383E+01     5.3293   1.1236   107.3769
 26      0.0000     0.0000E+00    0.0000E+00    1.434000E+09  0.02000  1.168E-04    0   0.5865   age139_m62            0.0000     2.7049E+01     4.3319   0.6809   102.4780
 27      0.0000     0.0000E+00    0.0000E+00    2.500000E+09  0.02000  5.505E-05    0   0.5610   age150_m62            0.0000     4.7566E+01     5.2913   0.3094    99.5886
 28      0.0000     0.0000E+00    0.0000E+00    5.000000E+09  0.02000  2.596E-05    0   0.5353   age161_m62            0.0000     9.2698E+01     7.0607  -0.0026    98.8673
 29      0.0000     0.0000E+00    0.0000E+00    1.100000E+10  0.02000  1.169E-05    0   0.5103   age185_m62            0.0000     1.4744E+02     8.7707  -0.3430    99.3503
 30      0.0000     0.0000E+00    0.0000E+00    1.300000E+10  0.02000  9.691E-06    0   0.5047   age193_m62            0.0000     1.5797E+02     9.0462  -0.3846    99.4015
 31      0.0000     0.0000E+00    0.0000E+00    1.000000E+06  0.05000  2.651E-02    0   0.9998   age020_m72            0.0000     1.3031E+02     8.8525   4.0000    86.0188
 32      0.0000     0.0000E+00    0.0000E+00    3.160000E+06  0.05000  4.817E-02    0   0.9577   age045_m72            0.0000     7.7387E+01     7.3462   3.9164    85.6982
 33      0.0000     0.0000E+00    0.0000E+00    5.010000E+06  0.05000  3.101E-02    0   0.9147   age055_m72            0.0000     6.8667E+01     6.9427   3.5587    88.3774
 34      0.0000     0.0000E+00    0.0000E+00    1.000000E+07  0.05000  8.954E-03    0   0.8524   age070_m72            0.0000     7.5676E+01     7.1605   3.8086    86.4549
 35      0.0000     0.0000E+00    0.0000E+00    2.512000E+07  0.05000  4.207E-03    0   0.7902   age090_m72            0.0000     3.4946E+01     5.0174   3.4080    91.2430
 36      0.0000     0.0000E+00    0.0000E+00    4.000000E+07  0.05000  3.198E-03    0   0.7618   age104_m72            0.0000     2.3647E+01     3.3454   2.9622    97.6774
 37      0.0000     0.0000E+00    0.0000E+00    1.015200E+08  0.05000  1.716E-03    0   0.7092   age116_m72            0.0000     4.9969E+01     4.4950   2.7082   101.1639
 38      0.0000     0.0000E+00    0.0000E+00    2.861200E+08  0.05000  7.047E-04    0   0.6618   age125_m72            0.0000     9.3487E+01     6.4671   1.9705   105.7514
 39      0.0000     0.0000E+00    0.0000E+00    6.405400E+08  0.05000  2.633E-04    0   0.6253   age132_m72            0.0000     5.7586E+01     5.9144   1.1346   107.2614
 40      0.0000     0.0000E+00    0.0000E+00    9.047900E+08  0.05000  1.484E-04    0   0.6088   age135_m72            0.0000     4.2289E+01     5.4610   0.6380   102.6819
 41      0.0000     0.0000E+00    0.0000E+00    1.434000E+09  0.05000  7.827E-05    0   0.5847   age139_m72            0.0000     6.6308E+01     6.3223   0.2462    99.2586
 42      0.0000     0.0000E+00    0.0000E+00    2.500000E+09  0.05000  3.759E-05    0   0.5583   age150_m72            0.0000     1.0182E+02     7.4313  -0.0735    98.3204
 43      0.0000     0.0000E+00    0.0000E+00    5.000000E+09  0.05000  1.548E-05    0   0.5320   age161_m72            0.0000     1.5501E+02     8.9220  -0.4721    97.4184
 44      0.0000     0.0000E+00    0.0000E+00    1.100000E+10  0.05000  6.532E-06    0   0.5070   age185_m72            0.0000     2.2342E+02    10.8066  -0.8127    96.0455
 45      0.0000     0.0000E+00    0.0000E+00    1.300000E+10  0.05000  5.316E-06    0   0.5018   age193_m72            0.0000     2.5174E+02    11.5251  -0.9146    95.6252


## Synthesis Results - Average & Chains ##

# j      x_j: min, <> & last-chain-values for 1 ...  7 chains
  1      0.0000      0.0564      0.0531      0.0658      0.1154      0.0000      0.0000      0.0000      0.1935
  2      8.4816      4.7546      5.5745      5.3022      4.8459      4.8106      4.9803      5.2874      5.7465
  3      0.1056      0.5840      0.5708      0.7282      0.5885      0.5861      0.7434      0.6400      0.5760
  4     13.1275     12.0662     12.1358     12.3583     12.2180     12.1359     12.3742     12.0882     11.8522
  5      0.0009      0.6263      0.6131      0.5566      0.8006      0.9224      0.6790      0.6019      0.6476
  6      0.0000      0.0644      0.0000      0.0000      0.0000      0.0000      0.0000      0.0000      0.0000
  7      0.0054      2.0923      1.5963      1.9603      1.8949      2.0186      1.4680      1.8676      2.1411
  8      0.0000      0.0819      0.1903      0.0000      0.1177      0.0097      0.0000      0.2003      0.3377
  9      4.6027      3.7408      3.9476      4.0569      3.7642      3.7609      3.7498      3.7952      4.0424
 10     35.2078     34.0870     34.1749     34.1853     34.8311     34.5278     35.1290     34.2697     33.8295
 11      0.0000      0.1184      0.0000      0.0528      0.0000      0.0000      0.0411      0.1117      0.0000
 12      8.3494      9.8655     10.0063      9.5095      9.5630      9.6161      9.0533      9.7700      9.7990
 13     30.0244     29.1545     29.0501     29.3776     29.0368     28.9721     29.4007     29.0258     28.7820
 14      0.0000      0.0193      0.0000      0.0176      0.0000      0.0000      0.0000      0.0000      0.2007
 15      0.0000      0.0218      0.0000      0.0000      0.0387      0.0000      0.0000      0.0000      0.0000
 16      0.0000      0.0445      0.0000      0.0642      0.0000      0.0000      0.0000      0.0000      0.0128
 17      0.0000      0.0715      0.0044      0.0000      0.0267      0.0000      0.0503      0.0403      0.0000
 18      0.0000      0.4763      0.7389      0.2666      0.4930      0.6150      0.6028      0.6691      0.3284
 19      0.0027      0.6629      0.4093      0.4927      0.5841      0.5542      0.7116      0.6024      0.6497
 20      0.0000      0.0391      0.0094      0.0159      0.0000      0.0000      0.0000      0.0282      0.0000
 21      0.0000      0.0414      0.0000      0.0000      0.0393      0.2399      0.0000      0.1246      0.0000
 22      0.0000      0.0535      0.0000      0.0000      0.0000      0.0939      0.0000      0.0426      0.0000
 23      0.0000      0.0347      0.0000      0.0000      0.0000      0.0000      0.0000      0.0000      0.0118
 24      0.0000      0.0149      0.0000      0.0000      0.0000      0.0000      0.0000      0.0000      0.0000
 25      0.0000      0.0126      0.0000      0.0000      0.0000      0.0000      0.0000      0.0000      0.0259
 26      0.0000      0.0175      0.0000      0.0000      0.0000      0.0000      0.0000      0.0000      0.0102
 27      0.0000      0.0173      0.0000      0.0000      0.0000      0.0000      0.0745      0.0000      0.0000
 28      0.0000      0.0139      0.0000      0.0160      0.0000      0.0000      0.0000      0.0000      0.0387
 29      0.0000      0.0235      0.0000      0.0000      0.0000      0.0216      0.0000      0.0000      0.0000
 30      0.0000      0.1224      0.0944      0.0000      0.0000      0.1692      0.0004      0.1585      0.0151
 31      0.0000      0.0233      0.0000      0.0000      0.0316      0.0000      0.0000      0.0000      0.0000
 32      0.0000      0.0428      0.0000      0.0000      0.2112      0.0000      0.0000      0.0000      0.0256
 33      0.0000      0.0436      0.0000      0.1107      0.0000      0.1711      0.0000      0.0500      0.0158
 34      0.0000      0.0210      0.0003      0.0000      0.0000      0.0134      0.0000      0.0000      0.0000
 35      0.0000      0.0161      0.0000      0.0005      0.0000      0.0000      0.0000      0.0000      0.0000
 36      0.0000      0.0239      0.0000      0.0000      0.0000      0.0000      0.0000      0.0000      0.0000
 37      0.0000      0.0367      0.0295      0.0000      0.0414      0.0000      0.1160      0.0000      0.0005
 38      0.0000      0.0185      0.0000      0.0000      0.0000      0.0000      0.0000      0.0000      0.0000
 39      0.0000      0.0116      0.0000      0.0000      0.0315      0.0000      0.0000      0.0000      0.0000
 40      0.0000      0.0172      0.0000      0.0000      0.0000      0.0000      0.0000      0.0000      0.0000
 41      0.0000      0.0125      0.0000      0.0290      0.0000      0.0000      0.0000      0.0000      0.0000
 42      0.0000      0.0113      0.0000      0.0000      0.0036      0.0000      0.0000      0.0000      0.0000
 43      0.0000      0.2292      0.2466      0.3339      0.2315      0.2662      0.2715      0.1436      0.2813
 44      0.0000      0.2020      0.2585      0.1592      0.1437      0.1354      0.2180      0.1862      0.1422
 45      0.0000      0.3189      0.2852      0.3199      0.2993      0.4032      0.3027      0.2984      0.2756

# j      m_j: min, <> & last-chain-values for 1 ...  7 chains
  1  0.0000E+00  1.0002E-03  9.4788E-04  1.1842E-03  2.1168E-03  0.0000E+00  0.0000E+00  0.0000E+00  3.5376E-03
  2  4.6696E-02  2.3068E-02  2.7217E-02  2.6107E-02  2.4312E-02  2.3276E-02  2.4549E-02  2.6111E-02  2.8728E-02
  3  8.8709E-04  4.3211E-03  4.2503E-03  5.4688E-03  4.5028E-03  4.3249E-03  5.5890E-03  4.8209E-03  4.3920E-03
  4  2.0527E-01  1.6627E-01  1.6828E-01  1.7283E-01  1.7410E-01  1.6677E-01  1.7323E-01  1.6955E-01  1.6828E-01
  5  3.3951E-05  1.9955E-02  1.9659E-02  1.8000E-02  2.6378E-02  2.9309E-02  2.1979E-02  1.9521E-02  2.1263E-02
  6  0.0000E+00  2.8495E-03  0.0000E+00  0.0000E+00  0.0000E+00  0.0000E+00  0.0000E+00  0.0000E+00  0.0000E+00
  7  3.8363E-04  1.3140E-01  1.0088E-01  1.2494E-01  1.2306E-01  1.2642E-01  9.3665E-02  1.1938E-01  1.3855E-01
  8  0.0000E+00  9.9223E-03  2.3196E-02  0.0000E+00  1.4743E-02  1.1665E-03  0.0000E+00  2.4700E-02  4.2152E-02
  9  1.2599E+00  9.0239E-01  9.5829E-01  9.9320E-01  9.3897E-01  9.0474E-01  9.1900E-01  9.3187E-01  1.0048E+00
 10  1.3455E+01  1.1480E+01  1.1582E+01  1.1684E+01  1.2130E+01  1.1596E+01  1.2020E+01  1.1748E+01  1.1739E+01
 11  0.0000E+00  7.0022E-02  0.0000E+00  3.1694E-02  0.0000E+00  0.0000E+00  2.4715E-02  6.7221E-02  0.0000E+00
 12  1.0419E+01  1.0849E+01  1.1073E+01  1.0613E+01  1.0874E+01  1.0545E+01  1.0115E+01  1.0936E+01  1.1103E+01
 13  7.4613E+01  6.3846E+01  6.4019E+01  6.5292E+01  6.5755E+01  6.3273E+01  6.5413E+01  6.4700E+01  6.4947E+01
 14  0.0000E+00  8.6150E-02  0.0000E+00  7.9517E-02  0.0000E+00  0.0000E+00  0.0000E+00  0.0000E+00  9.2311E-01
 15  0.0000E+00  1.1295E-01  0.0000E+00  0.0000E+00  2.0681E-01  0.0000E+00  0.0000E+00  0.0000E+00  0.0000E+00
 16  0.0000E+00  4.4251E-04  0.0000E+00  6.4708E-04  0.0000E+00  0.0000E+00  0.0000E+00  0.0000E+00  1.3150E-04
 17  0.0000E+00  3.6921E-04  2.2876E-05  0.0000E+00  1.4269E-04  0.0000E+00  2.6393E-04  2.1192E-04  0.0000E+00
 18  0.0000E+00  2.7248E-03  4.2540E-03  1.5481E-03  2.9165E-03  3.5091E-03  3.5037E-03  3.8963E-03  1.9359E-03
 19  5.2373E-05  1.1340E-02  7.0466E-03  8.5537E-03  1.0332E-02  9.4542E-03  1.2367E-02  1.0489E-02  1.1453E-02
 20  0.0000E+00  1.4885E-03  3.5995E-04  6.1293E-04  0.0000E+00  0.0000E+00  0.0000E+00  1.0910E-03  0.0000E+00
 21  0.0000E+00  1.8928E-03  0.0000E+00  0.0000E+00  1.8565E-03  1.0933E-02  0.0000E+00  5.7957E-03  0.0000E+00
 22  0.0000E+00  4.0645E-03  0.0000E+00  0.0000E+00  0.0000E+00  7.1190E-03  0.0000E+00  3.2946E-03  0.0000E+00
 23  0.0000E+00  5.1752E-03  0.0000E+00  0.0000E+00  0.0000E+00  0.0000E+00  0.0000E+00  0.0000E+00  1.8189E-03
 24  0.0000E+00  5.0740E-03  0.0000E+00  0.0000E+00  0.0000E+00  0.0000E+00  0.0000E+00  0.0000E+00  0.0000E+00
 25  0.0000E+00  6.6418E-03  0.0000E+00  0.0000E+00  0.0000E+00  0.0000E+00  0.0000E+00  0.0000E+00  1.4046E-02
 26  0.0000E+00  1.7401E-02  0.0000E+00  0.0000E+00  0.0000E+00  0.0000E+00  0.0000E+00  0.0000E+00  1.0446E-02
 27  0.0000E+00  3.4770E-02  0.0000E+00  0.0000E+00  0.0000E+00  0.0000E+00  1.5236E-01  0.0000E+00  0.0000E+00
 28  0.0000E+00  5.6563E-02  0.0000E+00  6.6177E-02  0.0000E+00  0.0000E+00  0.0000E+00  0.0000E+00  1.6254E-01
 29  0.0000E+00  2.0250E-01  0.0000E+00  0.0000E+00  0.0000E+00  1.8591E-01  0.0000E+00  0.0000E+00  0.0000E+00
 30  0.0000E+00  1.2599E+00  9.7814E-01  0.0000E+00  0.0000E+00  1.7371E+00  4.1066E-03  1.6602E+00  1.5990E-01
 31  0.0000E+00  1.7344E-04  0.0000E+00  0.0000E+00  2.4392E-04  0.0000E+00  0.0000E+00  0.0000E+00  0.0000E+00
 32  0.0000E+00  1.6815E-04  0.0000E+00  0.0000E+00  8.5795E-04  0.0000E+00  0.0000E+00  0.0000E+00  1.0359E-04
 33  0.0000E+00  2.5439E-04  0.0000E+00  6.5513E-04  0.0000E+00  9.9467E-04  0.0000E+00  2.9655E-04  9.4731E-05
 34  0.0000E+00  3.9500E-04  4.9127E-06  0.0000E+00  0.0000E+00  2.5126E-04  0.0000E+00  0.0000E+00  0.0000E+00
 35  0.0000E+00  5.9819E-04  0.0000E+00  1.9475E-05  0.0000E+00  0.0000E+00  0.0000E+00  0.0000E+00  0.0000E+00
 36  0.0000E+00  1.1275E-03  0.0000E+00  0.0000E+00  0.0000E+00  0.0000E+00  0.0000E+00  0.0000E+00  0.0000E+00
 37  0.0000E+00  2.9989E-03  2.4221E-03  0.0000E+00  3.4991E-03  0.0000E+00  9.6282E-03  0.0000E+00  4.4084E-05
 38  0.0000E+00  3.4308E-03  0.0000E+00  0.0000E+00  0.0000E+00  0.0000E+00  0.0000E+00  0.0000E+00  0.0000E+00
 39  0.0000E+00  5.4282E-03  0.0000E+00  0.0000E+00  1.5277E-02  0.0000E+00  0.0000E+00  0.0000E+00  0.0000E+00
 40  0.0000E+00  1.3919E-02  0.0000E+00  0.0000E+00  0.0000E+00  0.0000E+00  0.0000E+00  0.0000E+00  0.0000E+00
 41  0.0000E+00  1.8499E-02  0.0000E+00  4.3420E-02  0.0000E+00  0.0000E+00  0.0000E+00  0.0000E+00  0.0000E+00
 42  0.0000E+00  3.3130E-02  0.0000E+00  0.0000E+00  1.1005E-02  0.0000E+00  0.0000E+00  0.0000E+00  0.0000E+00
 43  0.0000E+00  1.5565E+00  1.6854E+00  2.3015E+00  1.6261E+00  1.8027E+00  1.8737E+00  9.9309E-01  1.9683E+00
 44  0.0000E+00  3.0991E+00  3.9907E+00  2.4781E+00  2.2790E+00  2.0707E+00  3.3968E+00  2.9079E+00  2.2481E+00
 45  0.0000E+00  5.9489E+00  5.3544E+00  6.0567E+00  5.7744E+00  7.5009E+00  5.7374E+00  5.6670E+00  5.2970E+00

# AV, chi2 & Mass for <> & i_chain = 1 ...  7 solutions
AV       1.3126      1.2652      1.2703      1.2721      1.2811      1.2704      1.2743      1.2770      1.2814
chi2 1.9500E+00  2.0232E+00  2.0034E+00  2.0038E+00  1.9976E+00  2.0114E+00  2.0003E+00  2.0001E+00  1.9941E+00
Mass 5.6991E-10  6.0682E-10  6.0713E-10  6.0347E-10  5.9951E-10  6.1272E-10  6.0461E-10  6.0570E-10  6.0184E-10
 -21.84                                  [v0_min (km/s) before EX0s...]
  69.99                                  [vd_min (km/s) before EX0s...]


## Synthetic spectrum (Best Model) ##l_obs f_obs f_syn wei
 3070    [Nl_obs]
 3359.00    0.17615   0.44752   -1.000
 3360.00    0.24987   0.42979   -1.000
 3361.00    0.25832   0.42960   -1.000
 3362.00    0.27183   0.44670   -1.000
 3363.00    0.28380   0.47007   -1.000
 3364.00    0.29390   0.48636   -1.000
 3365.00    0.29340   0.48757   -1.000
 3366.00    0.29742   0.47424   -1.000
 3367.00    0.30033   0.45552   -1.000
 3368.00    0.30561   0.44189   -1.000
 3369.00    0.29110   0.43705   -1.000
 3370.00    0.28464   0.43637   -1.000
 3371.00    0.29591   0.43409   -1.000
 3372.00    0.30134   0.43301   -1.000
 3373.00    0.30224   0.44148   -1.000
 3374.00    0.31023   0.46308   -1.000
 3375.00    0.31351   0.48830   -1.000
 3376.00    0.32383   0.49902   -1.000
 3377.00    0.34044   0.49015   -1.000
 3378.00    0.35220   0.47110   -1.000
 3379.00    0.34108   0.45588   -1.000
 3380.00    0.32997   0.45398   -1.000
 3381.00    0.34432   0.46432   -1.000
 3382.00    0.35437   0.47938   -1.000
 3383.00    0.35301   0.49061   -1.000
 3384.00    0.35360   0.49793   -1.000
 3385.00    0.36512   0.50369   -1.000
 3386.00    0.36827   0.50621   -1.000
 3387.00    0.36955   0.50496   -1.000
 3388.00    0.37430   0.50324   -1.000
 3389.00    0.39050   0.50295   -1.000
 3390.00    0.39431   0.50170   -1.000
 3391.00    0.38319   0.49585   -1.000
 3392.00    0.37486   0.48739   -1.000
 3393.00    0.38452   0.48430   -1.000
 3394.00    0.38318   0.49115   -1.000
 3395.00    0.38966   0.50500   -1.000
 3396.00    0.40686   0.51922   -1.000
 3397.00    0.41656   0.52885   -1.000
 3398.00    0.42817   0.53123   -1.000
 3399.00    0.44488   0.52668   -1.000
 3400.00    0.45123   0.51901   -1.000
 3401.00    0.44491   0.51018   -1.000
 3402.00    0.44237   0.50100   -1.000
 3403.00    0.43760   0.49441   -1.000
 3404.00    0.43163   0.49113   -1.000
 3405.00    0.43387   0.48778   -1.000
 3406.00    0.43146   0.48256   -1.000
 3407.00    0.43327   0.47818   -1.000
 3408.00    0.42313   0.47844   -1.000
 3409.00    0.41874   0.48444   -1.000
 3410.00    0.42277   0.49166   -1.000
 3411.00    0.42905   0.49466   -1.000
 3412.00    0.43455   0.49255   -1.000
 3413.00    0.43578   0.48862   -1.000
 3414.00    0.43113   0.48709   36.765
 3415.00    0.43060   0.49000   26.251
 3416.00    0.44047   0.49759   25.251
 3417.00    0.44466   0.50867   24.082
 3418.00    0.45624   0.52150   22.885
 3419.00    0.46617   0.53222   22.486
 3420.00    0.48161   0.53584   22.354
 3421.00    0.48593   0.53175   22.407
 3422.00    0.46984   0.52433   22.915
 3423.00    0.46597   0.51819   23.483
 3424.00    0.47050   0.51587   23.148
 3425.00    0.47165   0.51664   22.516
 3426.00    0.48161   0.52067   22.260
 3427.00    0.48373   0.52988   59.772
 3428.00    0.48793   0.54199   -1.000
 3429.00    0.50641   0.54879   -1.000
 3430.00    0.50909   0.54618   -1.000
 3431.00    0.51090   0.53641  203.161
 3432.00    0.50703   0.52638   30.517
 3433.00    0.49241   0.52196   22.210
 3434.00    0.48351   0.52409   59.808
 3435.00    0.49309   0.52876   -1.000
 3436.00    0.49568   0.52928   30.274
 3437.00    0.49607   0.52226   22.886
 3438.00    0.49031   0.50730   24.177
 3439.00    0.47744   0.48577   25.966
 3440.00    0.45428   0.46257   27.319
 3441.00    0.43011   0.44785   27.666
 3442.00    0.43687   0.44754   27.592
 3443.00    0.44347   0.45713   26.768
 3444.00    0.44970   0.46775   25.409
 3445.00    0.46325   0.47809   24.005
 3446.00    0.48120   0.49177   23.031
 3447.00    0.49260   0.50981   61.438
 3448.00    0.50623   0.52655  203.161
 3449.00    0.50500   0.53265   -1.000
 3450.00    0.51357   0.52567  203.161
 3451.00    0.52771   0.51123   -1.000
 3452.00    0.52320   0.49737   -1.000
 3453.00    0.50722   0.49243   -1.000
 3454.00    0.51214   0.49718   -1.000
 3455.00    0.51628   0.50484   -1.000
 3456.00    0.51591   0.50655   -1.000
 3457.00    0.51091   0.50020   -1.000
 3458.00    0.51142   0.49099   30.166
 3459.00    0.49460   0.48247   22.438
 3460.00    0.48164   0.47666   22.418
 3461.00    0.48992   0.47809   61.017
 3462.00    0.49726   0.48854   -1.000
 3463.00    0.50240   0.50087   -1.000
 3464.00    0.50637   0.50787  201.161
 3465.00    0.51293   0.51009   -1.000
 3466.00    0.51698   0.51167   -1.000
 3467.00    0.52240   0.51563   -1.000
 3468.00    0.53309   0.52072   -1.000
 3469.00    0.54234   0.52508   -1.000
 3470.00    0.53667   0.52682   -1.000
 3471.00    0.53559   0.52370   -1.000
 3472.00    0.54016   0.51492   -1.000
 3473.00    0.52245   0.50056   -1.000
 3474.00    0.49699   0.48387   30.298
 3475.00    0.47891   0.47316   23.007
 3476.00    0.47963   0.47413   22.885
 3477.00    0.48177   0.48437   62.007
 3478.00    0.49528   0.49706  200.547
 3479.00    0.51510   0.50734   -1.000
 3480.00    0.52693   0.51248   -1.000
 3481.00    0.53120   0.51199   -1.000
 3482.00    0.53195   0.50680   -1.000
 3483.00    0.53244   0.50116   -1.000
 3484.00    0.53676   0.50204   -1.000
 3485.00    0.53979   0.51285   -1.000
 3486.00    0.55024   0.52701   -1.000
 3487.00    0.55771   0.53269   -1.000
 3488.00    0.54290   0.52464   -1.000
 3489.00    0.52181   0.50854   -1.000
 3490.00    0.50180   0.49649   -1.000
 3491.00    0.49228   0.49434  203.161
 3492.00    0.49250   0.49752  203.161
 3493.00    0.50524   0.49804   -1.000
 3494.00    0.50767   0.49319   -1.000
 3495.00    0.49925   0.48709   -1.000
 3496.00    0.49086   0.48696   -1.000
 3497.00    0.49613   0.49769  203.161
 3498.00    0.50959   0.51285  190.628
 3499.00    0.51967   0.52111  180.097
 3500.00    0.54206   0.52232   -1.000
 3501.00    0.54311   0.52315   -1.000
 3502.00    0.54926   0.52671   -1.000
 3503.00    0.55347   0.52933   -1.000
 3504.00    0.54557   0.52560   -1.000
 3505.00    0.54204   0.51738   -1.000
 3506.00    0.53714   0.51123   -1.000
 3507.00    0.53580   0.51016   -1.000
 3508.00    0.53774   0.51152   -1.000
 3509.00    0.53273   0.51074   -1.000
 3510.00    0.52440   0.50595   -1.000
 3511.00    0.52032   0.49895   -1.000
 3512.00    0.52427   0.49120   -1.000
 3513.00    0.50939   0.48630   -1.000
 3514.00    0.50636   0.49098   -1.000
 3515.00    0.52430   0.50496   -1.000
 3516.00    0.53853   0.52227   -1.000
 3517.00    0.54826   0.53522   -1.000
 3518.00    0.55412   0.53759   -1.000
 3519.00    0.54176   0.52924   -1.000
 3520.00    0.53450   0.51531   -1.000
 3521.00    0.52905   0.50260   -1.000
 3522.00    0.51583   0.49234   -1.000
 3523.00    0.50179   0.48274   29.688
 3524.00    0.48715   0.47503   22.790
 3525.00    0.47998   0.47255   22.906
 3526.00    0.47301   0.47932   64.015
 3527.00    0.48470   0.49541  202.258
 3528.00    0.50674   0.51363  190.201
 3529.00    0.52450   0.52524  185.264
 3530.00    0.53360   0.52769   -1.000
 3531.00    0.53617   0.52511   -1.000
 3532.00    0.53874   0.52461   -1.000
 3533.00    0.54484   0.52937   -1.000
 3534.00    0.53932   0.53629  181.504
 3535.00    0.54264   0.54105  178.416
 3536.00    0.54555   0.54279  178.432
 3537.00    0.55429   0.54526   -1.000
 3538.00    0.56236   0.55048   -1.000
 3539.00    0.55916   0.55485  175.592
 3540.00    0.55796   0.55495  178.471
 3541.00    0.55704   0.55407  180.517
 3542.00    0.55712   0.55658  180.072
 3543.00    0.56235   0.56104  177.741
 3544.00    0.56348   0.56437  176.621
 3545.00    0.56375   0.56409  178.891
 3546.00    0.56413   0.56111  182.817
 3547.00    0.56405   0.55834  184.468
 3548.00    0.56090   0.55750  184.355
 3549.00    0.56120   0.55894  183.280
 3550.00    0.56088   0.56090  184.783
 3551.00    0.55351   0.55994  189.715
 3552.00    0.54147   0.55444  195.351
 3553.00    0.53912   0.54705  199.194
 3554.00    0.53872   0.54254  198.681
 3555.00    0.54378   0.54294  194.787
 3556.00    0.54234   0.54455  194.250
 3557.00    0.54089   0.54352  196.585
 3558.00    0.54605   0.54056  199.201
 3559.00    0.54146   0.54011  198.404
 3560.00    0.54362   0.54617  195.059
 3561.00    0.55372   0.55656  193.494
 3562.00    0.55076   0.56193  193.623
 3563.00    0.53698   0.55139  202.517
 3564.00    0.52138   0.52623   29.637
 3565.00    0.50499   0.50304   23.107
 3566.00    0.49474   0.49324   23.159
 3567.00    0.49488   0.49343   22.990
 3568.00    0.49812   0.49123   23.532
 3569.00    0.49222   0.48108   24.068
 3570.00    0.47581   0.47133   23.619
 3571.00    0.48068   0.47139   22.637
 3572.00    0.49623   0.47999   64.501
 3573.00    0.50751   0.48865   -1.000
 3574.00    0.51459   0.49275   -1.000
 3575.00    0.50970   0.49440   -1.000
 3576.00    0.50646   0.49618   -1.000
 3577.00    0.51714   0.49612   -1.000
 3578.00    0.51846   0.48959   30.558
 3579.00    0.50983   0.47567   24.526
 3580.00    0.48764   0.46010   26.041
 3581.00    0.47383   0.45070   26.537
 3582.00    0.47227   0.45090   26.659
 3583.00    0.46336   0.45454   27.185
 3584.00    0.46281   0.45274   28.031
 3585.00    0.45992   0.44602   28.567
 3586.00    0.44354   0.44197   27.580
 3587.00    0.44915   0.44612   26.121
 3588.00    0.45624   0.45864   24.826
 3589.00    0.47540   0.47620   22.848
 3590.00    0.49848   0.49395   64.357
 3591.00    0.51434   0.50659   -1.000
 3592.00    0.52397   0.51237   -1.000
 3593.00    0.52546   0.51493   -1.000
 3594.00    0.53312   0.52058   -1.000
 3595.00    0.54786   0.53136   -1.000
 3596.00    0.55863   0.54333   -1.000
 3597.00    0.55354   0.55303  170.550
 3598.00    0.55922   0.55905  167.333
 3599.00    0.56717   0.55988  168.135
 3600.00    0.56070   0.55403  174.678
 3601.00    0.54736   0.54159  184.215
 3602.00    0.54556   0.52604   -1.000
 3603.00    0.53157   0.51330   -1.000
 3604.00    0.51784   0.50785   -1.000
 3605.00    0.52116   0.50839   -1.000
 3606.00    0.52248   0.50904   -1.000
 3607.00    0.51872   0.50574   -1.000
 3608.00    0.51064   0.50004   -1.000
 3609.00    0.50537   0.49858   -1.000
 3610.00    0.50650   0.50422  203.161
 3611.00    0.51017   0.51171  197.813
 3612.00    0.51643   0.51717  192.528
 3613.00    0.51314   0.52199  188.779
 3614.00    0.51753   0.52858  182.723
 3615.00    0.53494   0.53352  181.339
 3616.00    0.54439   0.52680   -1.000
 3617.00    0.52652   0.50808   -1.000
 3618.00    0.50882   0.49269   28.887
 3619.00    0.49222   0.49270   65.037
 3620.00    0.49898   0.50694  193.710
 3621.00    0.51791   0.52598  181.172
 3622.00    0.54082   0.54095  175.381
 3623.00    0.55051   0.54988  172.737
 3624.00    0.55756   0.55916  167.362
 3625.00    0.57025   0.57325  160.501
 3626.00    0.58522   0.58864  157.057
 3627.00    0.59555   0.59659  158.663
 3628.00    0.58488   0.58738  166.710
 3629.00    0.56771   0.56119  184.147
 3630.00    0.54085   0.53123   -1.000
 3631.00    0.50911   0.51290  203.161
 3632.00    0.50296   0.51226  203.005
 3633.00    0.51514   0.52253  195.981
 3634.00    0.52249   0.53229  190.872
 3635.00    0.52880   0.53582  184.370
 3636.00    0.54553   0.53884  176.070
 3637.00    0.56252   0.54804   -1.000
 3638.00    0.56923   0.56184  161.935
 3639.00    0.57709   0.57300  160.470
 3640.00    0.57585   0.57405  163.494
 3641.00    0.56497   0.56499  168.700
 3642.00    0.55929   0.55090  177.034
 3643.00    0.54964   0.53787   -1.000
 3644.00    0.53742   0.52996  187.012
 3645.00    0.52534   0.52580  189.944
 3646.00    0.52415   0.52180  193.298
 3647.00    0.52583   0.51841   -1.000
 3648.00    0.52412   0.51874  190.266
 3649.00    0.52590   0.52471  183.128
 3650.00    0.53199   0.53633  174.566
 3651.00    0.54905   0.55069  166.960
 3652.00    0.56932   0.56346  162.168
 3653.00    0.57390   0.57278  159.512
 3654.00    0.57897   0.57849  158.579
 3655.00    0.58310   0.58339  157.056
 3656.00    0.58759   0.59000  155.379
 3657.00    0.59546   0.59657  152.963
 3658.00    0.59221   0.60038  152.461
 3659.00    0.60113   0.60030  152.502
 3660.00    0.59289   0.59628  153.790
 3661.00    0.58839   0.58920  155.464
 3662.00    0.58888   0.58088  157.900
 3663.00    0.58147   0.57428  159.472
 3664.00    0.57701   0.57207  158.259
 3665.00    0.58226   0.57322  157.865
 3666.00    0.57983   0.57394  160.450
 3667.00    0.57421   0.57052  162.619
 3668.00    0.57509   0.56481  166.117
 3669.00    0.57294   0.56370  166.281
 3670.00    0.56694   0.56968  161.169
 3671.00    0.57660   0.57904  157.246
 3672.00    0.58548   0.58571  156.096
 3673.00    0.58734   0.58671  155.951
 3674.00    0.59076   0.58271  156.220
 3675.00    0.58572   0.57423  160.010
 3676.00    0.58100   0.56314   -1.000
 3677.00    0.57619   0.55244   -1.000
 3678.00    0.56211   0.54490   -1.000
 3679.00    0.54845   0.54235  175.259
 3680.00    0.54856   0.54392  171.575
 3681.00    0.55984   0.54822   -1.000
 3682.00    0.56942   0.55341   -1.000
 3683.00    0.56672   0.55547   -1.000
 3684.00    0.56063   0.54942   -1.000
 3685.00    0.55678   0.53619   -1.000
 3686.00    0.54719   0.52512   -1.000
 3687.00    0.53751   0.52576   -1.000
 3688.00    0.54967   0.53952   -1.000
 3689.00    0.56740   0.55886  159.524
 3690.00    0.58118   0.57425  153.391
 3691.00    0.59246   0.58113  153.239
 3692.00    0.59760   0.58357   -1.000
 3693.00    0.59683   0.58524  159.501
 3694.00    0.59557   0.58415   -1.000
 3695.00    0.59845   0.57891   -1.000
 3696.00    0.60056   0.57469   -1.000
 3697.00    0.59899   0.58077   -1.000
 3698.00    0.61008   0.59932  147.788
 3699.00    0.62384   0.62004  145.417
 3700.00    0.63814   0.62755  147.123
 3701.00    0.63611   0.61166   -1.000
 3702.00    0.60219   0.57530   -1.000
 3703.00    0.57502   0.53398   -1.000
 3704.00    0.55655   0.50616   -1.000
 3705.00    0.54013   0.50093   -1.000
 3706.00    0.54965   0.51119   -1.000
 3707.00    0.55450   0.52620   -1.000
 3708.00    0.56068   0.53829   -1.000
 3709.00    0.56309   0.54172   -1.000
 3710.00    0.56694   0.53951   -1.000
 3711.00    0.57345   0.54350   -1.000
 3712.00    0.59029   0.56180   -1.000
 3713.00    0.61268   0.59122   -1.000
 3714.00    0.62849   0.62039  143.796
 3715.00    0.65509   0.63851   -1.000
 3716.00    0.66370   0.64118   -1.000
 3717.00    0.65815   0.62602   -1.000
 3718.00    0.62718   0.58954   -1.000
 3719.00    0.56983   0.53718   -1.000
 3720.00    0.52076   0.48961   28.760
 3721.00    0.49823   0.46787   70.097
 3722.00    0.51330   0.48075   -1.000
 3723.00    0.55190   0.52111   -1.000
 3724.00    0.60181   0.56898   -1.000
 3725.00    0.64561   0.60274   -1.000
 3726.00    0.66258   0.61785   -1.000
 3727.00    0.65583   0.62510   -1.000
 3728.00    0.65538   0.63159   -1.000
 3729.00    0.65401   0.63177   -1.000
 3730.00    0.64621   0.61402   -1.000
 3731.00    0.61515   0.57334   -1.000
 3732.00    0.56719   0.51794   28.065
 3733.00    0.51730   0.46510   24.135
 3734.00    0.47174   0.43312   25.523
 3735.00    0.46434   0.43259   24.735
 3736.00    0.49102   0.46256   22.629
 3737.00    0.53285   0.51368   68.349
 3738.00    0.58056   0.57175   -1.000
 3739.00    0.62962   0.62099   -1.000
 3740.00    0.65687   0.65098   -1.000
 3741.00    0.67066   0.65894   -1.000
 3742.00    0.66594   0.64813   -1.000
 3743.00    0.64338   0.62570   -1.000
 3744.00    0.60820   0.59904   -1.000
 3745.00    0.59229   0.57095   -1.000
 3746.00    0.57024   0.53867   28.449
 3747.00    0.53463   0.49849   23.558
 3748.00    0.50311   0.45808   24.107
 3749.00    0.47921   0.43735   -1.000
 3750.00    0.48086   0.45076   -1.000
 3751.00    0.52344   0.49538   -1.000
 3752.00    0.58690   0.55533   -1.000
 3753.00    0.64359   0.61298   -1.000
 3754.00    0.67916   0.65491   -1.000
 3755.00    0.70631   0.67270   -1.000
 3756.00    0.70279   0.66460   -1.000
 3757.00    0.67429   0.64121   -1.000
 3758.00    0.64323   0.62004   -1.000
 3759.00    0.62872   0.61398   -1.000
 3760.00    0.63796   0.62186   -1.000
 3761.00    0.65517   0.63442   -1.000
 3762.00    0.67776   0.64422   -1.000
 3763.00    0.67921   0.64699   -1.000
 3764.00    0.67352   0.64072   -1.000
 3765.00    0.66385   0.62549   -1.000
 3766.00    0.63863   0.60264   -1.000
 3767.00    0.61351   0.57358   -1.000
 3768.00    0.59809   0.54070   -1.000
 3769.00    0.58079   0.51062   -1.000
 3770.00    0.55719   0.49752   -1.000
 3771.00    0.55827   0.51304   -1.000
 3772.00    0.59171   0.55077   -1.000
 3773.00    0.63229   0.59217   -1.000
 3774.00    0.65835   0.62555   -1.000
 3775.00    0.67961   0.65155   -1.000
 3776.00    0.70490   0.67587   -1.000
 3777.00    0.71779   0.70062   -1.000
 3778.00    0.73037   0.72445  146.362
 3779.00    0.76564   0.74531   -1.000
 3780.00    0.78593   0.76124   -1.000
 3781.00    0.79534   0.77221   -1.000
 3782.00    0.79329   0.77828  140.184
 3783.00    0.78801   0.77752  142.764
 3784.00    0.78727   0.76663   -1.000
 3785.00    0.77463   0.74571   -1.000
 3786.00    0.74092   0.72141   -1.000
 3787.00    0.71561   0.70138   -1.000
 3788.00    0.70475   0.68874   -1.000
 3789.00    0.69738   0.68208   -1.000
 3790.00    0.69953   0.67706   -1.000
 3791.00    0.70089   0.66717   -1.000
 3792.00    0.69528   0.64745   -1.000
 3793.00    0.66494   0.61693   -1.000
 3794.00    0.62525   0.57858   -1.000
 3795.00    0.59646   0.53587   -1.000
 3796.00    0.55639   0.49262   -1.000
 3797.00    0.52031   0.46077   -1.000
 3798.00    0.51336   0.45883   -1.000
 3799.00    0.53636   0.49315   -1.000
 3800.00    0.58884   0.55089   -1.000
 3801.00    0.64323   0.61219   -1.000
 3802.00    0.68833   0.66200   -1.000
 3803.00    0.72018   0.69540   -1.000
 3804.00    0.74093   0.71287   -1.000
 3805.00    0.74113   0.71794   -1.000
 3806.00    0.73928   0.71967   -1.000
 3807.00    0.73796   0.72908  164.122
 3808.00    0.74782   0.74854  158.087
 3809.00    0.76513   0.77254  155.420
 3810.00    0.78538   0.79104  157.511
 3811.00    0.79403   0.79130  164.948
 3812.00    0.77316   0.76992  174.994
 3813.00    0.74689   0.73705  185.593
 3814.00    0.72421   0.70987   -1.000
 3815.00    0.71669   0.70217   -1.000
 3816.00    0.72284   0.71096   -1.000
 3817.00    0.73834   0.71974   -1.000
 3818.00    0.74743   0.71443   -1.000
 3819.00    0.72134   0.69623   -1.000
 3820.00    0.70203   0.68150   -1.000
 3821.00    0.70471   0.68035   -1.000
 3822.00    0.72024   0.68300   -1.000
 3823.00    0.71353   0.67405   -1.000
 3824.00    0.68209   0.65138   28.871
 3825.00    0.64864   0.62644   23.598
 3826.00    0.63378   0.60917   23.535
 3827.00    0.62455   0.59945   23.185
 3828.00    0.61527   0.59130   22.804
 3829.00    0.60842   0.57835   22.956
 3830.00    0.59357   0.55667   23.854
 3831.00    0.55304   0.52472   25.609
 3832.00    0.51505   0.48437   26.659
 3833.00    0.49334   0.44361   26.388
 3834.00    0.47764   0.41490   25.415
 3835.00    0.47200   0.40731   24.763
 3836.00    0.47831   0.42028   25.081
 3837.00    0.48494   0.44595   25.682
 3838.00    0.50509   0.47816   25.435
 3839.00    0.53709   0.51660   24.159
 3840.00    0.57435   0.56113   78.790
 3841.00    0.62230   0.60849   -1.000
 3842.00    0.66849   0.65332   -1.000
 3843.00    0.70619   0.68898   -1.000
 3844.00    0.73517   0.71381   -1.000
 3845.00    0.75038   0.73273   -1.000
 3846.00    0.75640   0.74978  180.170
 3847.00    0.75473   0.76177  183.773
 3848.00    0.75869   0.76492  190.516
 3849.00    0.76183   0.76382  194.403
 3850.00    0.76575   0.76678  191.285
 3851.00    0.76374   0.77708  186.260
 3852.00    0.77016   0.78781  186.326
 3853.00    0.77783   0.78961  190.474
 3854.00    0.77682   0.78151  196.002
 3855.00    0.76823   0.76947  199.462
 3856.00    0.75722   0.75769  203.161
 3857.00    0.74549   0.74622   27.146
 3858.00    0.73048   0.73621   23.076
 3859.00    0.71734   0.73380   22.941
 3860.00    0.71252   0.74381   76.099
 3861.00    0.74737   0.76304  187.559
 3862.00    0.78649   0.78132  177.079
 3863.00    0.80206   0.78987  176.544
 3864.00    0.80612   0.79038   -1.000
 3865.00    0.81069   0.78880   -1.000
 3866.00    0.80599   0.78899   -1.000
 3867.00    0.79957   0.79073  192.712
 3868.00    0.79716   0.78890   -1.000
 3869.00    0.77775   0.77806  203.161
 3870.00    0.75618   0.75759   27.439
 3871.00    0.72544   0.73482   76.389
 3872.00    0.72258   0.72249  199.243
 3873.00    0.73022   0.72861  181.058
 3874.00    0.75116   0.74581  172.468
 3875.00    0.77148   0.75462   -1.000
 3876.00    0.76986   0.74397   -1.000
 3877.00    0.73159   0.72166   -1.000
 3878.00    0.69767   0.70385  203.161
 3879.00    0.68836   0.69710  203.161
 3880.00    0.69666   0.69429  203.161
 3881.00    0.69387   0.68643   -1.000
 3882.00    0.67436   0.67148  190.796
 3883.00    0.66648   0.65076   -1.000
 3884.00    0.65883   0.62160   -1.000
 3885.00    0.64317   0.57910   -1.000
 3886.00    0.60183   0.52849   -1.000
 3887.00    0.56724   0.48477   -1.000
 3888.00    0.55242   0.46343   -1.000
 3889.00    0.55423   0.47467   -1.000
 3890.00    0.58849   0.51558   -1.000
 3891.00    0.63767   0.56858   -1.000
 3892.00    0.67048   0.61330   -1.000
 3893.00    0.69595   0.64265   -1.000
 3894.00    0.69817   0.66340   -1.000
 3895.00    0.71408   0.68494   -1.000
 3896.00    0.74807   0.70748   -1.000
 3897.00    0.75716   0.72476   -1.000
 3898.00    0.76056   0.73448   -1.000
 3899.00    0.76559   0.74220   -1.000
 3900.00    0.77944   0.75331   -1.000
 3901.00    0.79501   0.76542   -1.000
 3902.00    0.80152   0.77198   -1.000
 3903.00    0.80272   0.76962   -1.000
 3904.00    0.78514   0.76348   -1.000
 3905.00    0.76359   0.76298  160.651
 3906.00    0.77220   0.77488  152.564
 3907.00    0.80863   0.79945  142.439
 3908.00    0.84736   0.82674   -1.000
 3909.00    0.86134   0.84586  136.354
 3910.00    0.88100   0.85549   -1.000
 3911.00    0.88835   0.85857   -1.000
 3912.00    0.87568   0.85707  135.348
 3913.00    0.86631   0.85285  137.964
 3914.00    0.85860   0.84832  141.159
 3915.00    0.84909   0.84477  143.231
 3916.00    0.84827   0.84146  145.121
 3917.00    0.85052   0.83577  148.963
 3918.00    0.84265   0.82626   -1.000
 3919.00    0.82252   0.81469  162.553
 3920.00    0.80568   0.80572  166.708
 3921.00    0.80861   0.80362  166.045
 3922.00    0.81472   0.80753  163.212
 3923.00    0.81502   0.81140  163.728
 3924.00    0.81790   0.80767  170.703
 3925.00    0.80895   0.79207   -1.000
 3926.00    0.77479   0.76441   -1.000
 3927.00    0.72792   0.72769   29.802
 3928.00    0.68066   0.68628   27.868
 3929.00    0.60416   0.64007   32.619
 3930.00    0.52621   0.58555   38.516
 3931.00    0.45333   0.52336   45.169
 3932.00    0.37782   0.46641   -1.000
 3933.00    0.33382   0.43802   -1.000
 3934.00    0.32731   0.45320   -1.000
 3935.00    0.37620   0.50454   -1.000
 3936.00    0.45782   0.57190   29.676
 3937.00    0.54197   0.63691   24.850
 3938.00    0.62481   0.69023   -1.000
 3939.00    0.68982   0.73168   -1.000
 3940.00    0.72216   0.76009   -1.000
 3941.00    0.74542   0.77447   -1.000
 3942.00    0.76093   0.77760  188.446
 3943.00    0.75772   0.77629  180.543
 3944.00    0.76885   0.78003  165.141
 3945.00    0.80500   0.79127  154.598
 3946.00    0.82632   0.80327   -1.000
 3947.00    0.83385   0.81072   -1.000
 3948.00    0.83459   0.81526   -1.000
 3949.00    0.83643   0.81892  140.809
 3950.00    0.84026   0.81958   -1.000
 3951.00    0.83838   0.81715   -1.000
 3952.00    0.83577   0.81612   -1.000
 3953.00    0.84418   0.81802   -1.000
 3954.00    0.84885   0.81655   -1.000
 3955.00    0.84475   0.80672   -1.000
 3956.00    0.83112   0.79431   -1.000
 3957.00    0.81039   0.78660   -1.000
 3958.00    0.80359   0.77976   -1.000
 3959.00    0.79965   0.76229   -1.000
 3960.00    0.76133   0.72856   -1.000
 3961.00    0.70470   0.68704   -1.000
 3962.00    0.66339   0.64871   -1.000
 3963.00    0.63105   0.61292   27.864
 3964.00    0.59739   0.57056   26.284
 3965.00    0.53112   0.51176   32.113
 3966.00    0.44758   0.43876   39.368
 3967.00    0.37157   0.36923   44.393
 3968.00    0.32322   0.32422   42.515
 3969.00    0.31756   0.31778   35.694
 3970.00    0.36523   0.35076   29.327
 3971.00    0.42869   0.41076   24.466
 3972.00    0.49716   0.48119   83.733
 3973.00    0.57080   0.55008   -1.000
 3974.00    0.63392   0.61076   -1.000
 3975.00    0.68590   0.66219   -1.000
 3976.00    0.73564   0.70581   -1.000
 3977.00    0.77026   0.74465   -1.000
 3978.00    0.80175   0.77964   -1.000
 3979.00    0.83176   0.80640   -1.000
 3980.00    0.85391   0.82103   -1.000
 3981.00    0.85774   0.82606   -1.000
 3982.00    0.85783   0.82992   -1.000
 3983.00    0.86273   0.83844  125.565
 3984.00    0.88261   0.85036   -1.000
 3985.00    0.89596   0.86198   -1.000
 3986.00    0.90785   0.87299   -1.000
 3987.00    0.91227   0.88511  117.399
 3988.00    0.91350   0.89735  117.587
 3989.00    0.92883   0.90767  117.038
 3990.00    0.94284   0.91699  114.620
 3991.00    0.95231   0.92676  111.837
 3992.00    0.95529   0.93469  112.525
 3993.00    0.96339   0.93617  115.056
 3994.00    0.95186   0.92965  117.740
 3995.00    0.93850   0.91842  120.074
 3996.00    0.92402   0.90919  121.291
 3997.00    0.91665   0.90852  119.134
 3998.00    0.91953   0.91709  114.042
 3999.00    0.94020   0.93077  109.943
 4000.00    0.96343   0.94445  107.885
 4001.00    0.97468   0.95233  106.322
 4002.00    0.98731   0.94989   -1.000
 4003.00    0.98341   0.93638   -1.000
 4004.00    0.95344   0.91659   -1.000
 4005.00    0.93009   0.90374  120.855
 4006.00    0.92869   0.90958  114.696
 4007.00    0.95852   0.93000  109.803
 4008.00    0.97630   0.95201  107.918
 4009.00    0.98657   0.96659  106.725
 4010.00    0.99589   0.97259  106.246
 4011.00    0.99213   0.97360  106.843
 4012.00    0.97326   0.97367  107.461
 4013.00    0.99461   0.97508  106.869
 4014.00    0.99114   0.97741  105.443
 4015.00    1.00000   0.97943  105.978
 4016.00    1.00309   0.98125  107.250
 4017.00    0.99787   0.98437  107.020
 4018.00    1.00835   0.98939  105.514
 4019.00    1.01329   0.99443  105.470
 4020.00    1.01560   0.99682  106.839
 4021.00    1.00756   0.99526  107.619
 4022.00    1.00397   0.98982  108.308
 4023.00    0.99614   0.98211  109.139
 4024.00    0.99597   0.97758  106.958
 4025.00    1.00039   0.98188  103.277
 4026.00    1.01858   0.99363  100.938
 4027.00    1.02692   1.00217  101.409
 4028.00    1.02164   0.99687  105.121
 4029.00    0.99711   0.97898  111.937
 4030.00    0.96808   0.95838  117.155
 4031.00    0.95898   0.94483  119.088
 4032.00    0.94870   0.94269  117.994
 4033.00    0.94762   0.95068  114.455
 4034.00    0.96550   0.96542  109.039
 4035.00    0.98894   0.98489  103.637
 4036.00    1.01722   1.00729   99.774
 4037.00    1.02953   1.02527   98.934
 4038.00    1.05148   1.03051  100.689
 4039.00    1.05109   1.02470  103.080
 4040.00    1.03378   1.01676  104.408
 4041.00    1.02185   1.00972  104.999
 4042.00    1.02004   0.99677  109.385
 4043.00    0.99808   0.96956   -1.000
 4044.00    0.95612   0.93642  129.027
 4045.00    0.92289   0.91976  125.917
 4046.00    0.93007   0.93096  114.517
 4047.00    0.96367   0.96201  106.930
 4048.00    1.00039   0.99454  103.393
 4049.00    1.02813   1.01458  101.955
 4050.00    1.03472   1.01970  102.391
 4051.00    1.02467   1.01429  104.918
 4052.00    1.01816   1.00322  107.682
 4053.00    1.00707   0.99222  109.522
 4054.00    0.99804   0.98580  110.510
 4055.00    0.99462   0.98214  111.273
 4056.00    0.99546   0.97893  112.384
 4057.00    0.98084   0.97880  111.418
 4058.00    0.98408   0.98517  107.723
 4059.00    1.00634   0.99448  105.315
 4060.00    1.02125   0.99470  106.569
 4061.00    1.00463   0.97852  113.546
 4062.00    0.97245   0.95200  121.567
 4063.00    0.94610   0.92928  121.149
 4064.00    0.95017   0.92088  115.652
 4065.00    0.96526   0.92625   -1.000
 4066.00    0.97726   0.93869   -1.000
 4067.00    0.99793   0.95236   -1.000
 4068.00    1.00608   0.96197   -1.000
 4069.00    1.01467   0.96009   -1.000
 4070.00    1.00936   0.94630   -1.000
 4071.00    0.98291   0.93241   -1.000
 4072.00    0.96850   0.93038   -1.000
 4073.00    0.97787   0.93670   -1.000
 4074.00    0.98503   0.93597   -1.000
 4075.00    0.96158   0.92068   -1.000
 4076.00    0.92690   0.89922   -1.000
 4077.00    0.89969   0.88738  122.823
 4078.00    0.90157   0.89492  114.890
 4079.00    0.93780   0.91861  106.938
 4080.00    0.98104   0.94391   -1.000
 4081.00    1.00280   0.95542   -1.000
 4082.00    0.99357   0.94969   -1.000
 4083.00    0.98194   0.93552   -1.000
 4084.00    0.97077   0.92625   -1.000
 4085.00    0.96823   0.92941   -1.000
 4086.00    0.98160   0.94250   -1.000
 4087.00    0.99826   0.95579   -1.000
 4088.00    1.00397   0.95980   -1.000
 4089.00    1.00246   0.95243   -1.000
 4090.00    0.99022   0.93898   -1.000
 4091.00    0.97605   0.92577   -1.000
 4092.00    0.97636   0.91311   -1.000
 4093.00    0.95361   0.89665   -1.000
 4094.00    0.93876   0.87304   -1.000
 4095.00    0.91301   0.84354   -1.000
 4096.00    0.88703   0.81168   -1.000
 4097.00    0.87130   0.77659   -1.000
 4098.00    0.85172   0.73194   -1.000
 4099.00    0.82260   0.67449   -1.000
 4100.00    0.75202   0.61629   -1.000
 4101.00    0.68949   0.58271   -1.000
 4102.00    0.68153   0.59305   -1.000
 4103.00    0.73415   0.64435   -1.000
 4104.00    0.79799   0.71195   -1.000
 4105.00    0.85928   0.77022   -1.000
 4106.00    0.89317   0.81035   -1.000
 4107.00    0.90142   0.83549   -1.000
 4108.00    0.90518   0.85145   -1.000
 4109.00    0.90158   0.86422   -1.000
 4110.00    0.91277   0.87836   -1.000
 4111.00    0.93088   0.89469   -1.000
 4112.00    0.94829   0.91214   -1.000
 4113.00    0.96314   0.93047   -1.000
 4114.00    0.98263   0.94802   -1.000
 4115.00    0.99238   0.96025  104.721
 4116.00    0.99214   0.96349  106.746
 4117.00    0.98649   0.95891  110.215
 4118.00    0.98009   0.95235  111.838
 4119.00    0.97346   0.94979  110.766
 4120.00    0.96993   0.95318  109.571
 4121.00    0.97848   0.95944  109.527
 4122.00    0.98467   0.96628  108.518
 4123.00    0.99103   0.97413  106.670
 4124.00    0.99376   0.98171  106.109
 4125.00    1.00650   0.98452  107.324
 4126.00    1.00526   0.98029  109.554
 4127.00    0.99518   0.97339  110.655
 4128.00    0.99393   0.96975  111.250
 4129.00    0.98712   0.96846  112.547
 4130.00    0.97964   0.96315  115.846
 4131.00    0.96977   0.95287  119.534
 4132.00    0.95661   0.94543  120.292
 4133.00    0.95215   0.94962  116.826
 4134.00    0.96581   0.96675  111.122
 4135.00    0.98998   0.99068  107.244
 4136.00    1.01697   1.01372  105.305
 4137.00    1.03398   1.03130  103.658
 4138.00    1.04492   1.04190  103.098
 4139.00    1.04896   1.04256  104.908
 4140.00    1.04039   1.02980  110.041
 4141.00    1.01250   1.00535  118.966
 4142.00    0.96637   0.97854  125.798
 4143.00    0.93671   0.96302   -1.000
 4144.00    0.94256   0.96827   -1.000
 4145.00    0.97661   0.98818  110.755
 4146.00    1.01387   1.00678  109.252
 4147.00    1.01919   1.01419  110.957
 4148.00    1.00450   1.01333  113.979
 4149.00    0.99525   1.01247  115.626
 4150.00    0.99261   1.01421   -1.000
 4151.00    1.00137   1.01433  114.351
 4152.00    1.00164   1.00873  115.216
 4153.00    0.99255   0.99945  117.037
 4154.00    0.99051   0.99316  114.673
 4155.00    0.96393   0.99439   -1.000
 4156.00    1.06902   1.00267   -1.000
 4157.00    1.27655   1.01484   -1.000
 4158.00    1.05902   1.02715  110.722
 4159.00    0.77141   1.03621   -1.000
 4160.00    0.94646   1.04147   -1.000
 4161.00    1.07266   1.04548  105.729
 4162.00    1.04010   1.05043  106.159
 4163.00    1.02908   1.05520   -1.000
 4164.00    1.02920   1.05618   -1.000
 4165.00    1.03048   1.05066  111.815
 4166.00    1.02386   1.04074  113.635
 4167.00    1.01854   1.03264  113.069
 4168.00    1.02171   1.02857  111.203
 4169.00    1.02547   1.02137  111.998
 4170.00    1.00494   1.00347  118.069
 4171.00    0.97418   0.97790  125.322
 4172.00    0.95400   0.95868  126.540
 4173.00    0.94366   0.95793  122.481
 4174.00    0.94706   0.97230   -1.000
 4175.00    0.96223   0.98787   -1.000
 4176.00    0.96430   0.99559   -1.000
 4177.00    0.96216   0.99915   -1.000
 4178.00    0.97091   1.00560   -1.000
 4179.00    0.98486   1.01414   -1.000
 4180.00    0.99882   1.01858  114.745
 4181.00    1.00268   1.01749  113.663
 4182.00    1.00377   1.01655  111.478
 4183.00    0.99480   1.02021   -1.000
 4184.00    0.99593   1.02398   -1.000
 4185.00    1.00297   1.02100  112.731
 4186.00    0.99650   1.01195  116.060
 4187.00    0.98007   1.00437   -1.000
 4188.00    0.98382   1.00446   -1.000
 4189.00    0.99995   1.01109  112.122
 4190.00    1.00642   1.01996  110.722
 4191.00    1.00649   1.02941   -1.000
 4192.00    1.01812   1.03758  106.861
 4193.00    1.02784   1.03939  109.498
 4194.00    1.02660   1.03095  115.046
 4195.00    1.00751   1.01334  119.127
 4196.00    0.98025   0.99238  121.415
 4197.00    0.96618   0.97464  121.868
 4198.00    0.95176   0.96354  120.686
 4199.00    0.95201   0.95984  118.793
 4200.00    0.96137   0.96242  118.304
 4201.00    0.96715   0.96884  117.594
 4202.00    0.97454   0.97806  115.842
 4203.00    0.98380   0.99074  114.905
 4204.00    0.98930   1.00606  112.808
 4205.00    0.99161   1.02193   -1.000
 4206.00    1.00089   1.03594   -1.000
 4207.00    1.01972   1.04472   -1.000
 4208.00    1.03046   1.04693  107.491
 4209.00    1.02761   1.04590  107.336
 4210.00    1.02498   1.04733   -1.000
 4211.00    1.02697   1.05224   -1.000
 4212.00    1.03206   1.05379   -1.000
 4213.00    1.01975   1.04440   -1.000
 4214.00    0.99305   1.02636   -1.000
 4215.00    0.96921   1.01107   -1.000
 4216.00    0.96468   1.00911   -1.000
 4217.00    0.98999   1.02214   -1.000
 4218.00    1.02508   1.04078  100.244
 4219.00    1.04517   1.05414   99.004
 4220.00    1.04564   1.05779   99.714
 4221.00    1.04949   1.04979  103.527
 4222.00    1.03715   1.02755  110.539
 4223.00    1.01177   0.99135  121.214
 4224.00    0.96485   0.94760  137.148
 4225.00    0.90839   0.90947  149.162
 4226.00    0.86223   0.89496   -1.000
 4227.00    0.87133   0.91552   -1.000
 4228.00    0.93453   0.96121   -1.000
 4229.00    1.00684   1.00573  104.120
 4230.00    1.03237   1.02971  102.886
 4231.00    1.03312   1.03053  104.937
 4232.00    1.01758   1.01846  107.689
 4233.00    0.99945   1.00569  108.923
 4234.00    1.00100   0.99793  111.345
 4235.00    0.99439   0.99452  113.436
 4236.00    0.98712   0.99462  112.858
 4237.00    0.98795   0.99948  110.349
 4238.00    0.99733   1.00909  108.683
 4239.00    1.00773   1.02041  106.635
 4240.00    1.01022   1.03012  105.139
 4241.00    1.02205   1.03714  104.599
 4242.00    1.02582   1.04327  102.917
 4243.00    1.03817   1.04866  100.765
 4244.00    1.03808   1.04930  101.531
 4245.00    1.03351   1.04043  105.935
 4246.00    1.01686   1.02322  110.084
 4247.00    0.98729   1.00630  113.018
 4248.00    0.97770   0.99757  114.208
 4249.00    0.97538   0.99882   -1.000
 4250.00    0.97768   1.00724   -1.000
 4251.00    0.99401   1.01725  107.968
 4252.00    1.01602   1.02199  108.264
 4253.00    1.01225   1.01821  111.061
 4254.00    0.99942   1.01345  110.024
 4255.00    1.00024   1.01646  105.905
 4256.00    1.01847   1.02340  104.742
 4257.00    1.03239   1.02210  108.372
 4258.00    1.01981   1.00764  114.274
 4259.00    0.99228   0.99048  117.593
 4260.00    0.97270   0.98677  113.782
 4261.00    0.97549   1.00296   -1.000
 4262.00    1.01028   1.03031  101.623
 4263.00    1.03647   1.05452   99.052
 4264.00    1.05147   1.06805   98.647
 4265.00    1.05837   1.07026  100.121
 4266.00    1.05504   1.06390  103.334
 4267.00    1.04280   1.05044  106.512
 4268.00    1.02401   1.02925  110.547
 4269.00    1.00212   1.00163  117.620
 4270.00    0.95960   0.97303  124.977
 4271.00    0.93035   0.95149   -1.000
 4272.00    0.92944   0.94421  124.284
 4273.00    0.94338   0.95130  121.163
 4274.00    0.95353   0.96821  115.905
 4275.00    0.96750   0.99264   -1.000
 4276.00    0.99931   1.02055  103.291
 4277.00    1.03093   1.04098  102.850
 4278.00    1.03501   1.04522  107.116
 4279.00    1.01641   1.03657  110.976
 4280.00    1.00044   1.02624   -1.000
 4281.00    0.98496   1.02178   -1.000
 4282.00    0.98709   1.02197   -1.000
 4283.00    0.99710   1.02016  110.260
 4284.00    0.99210   1.01379  113.403
 4285.00    0.98405   1.00383  116.316
 4286.00    0.97043   0.99026  118.067
 4287.00    0.96011   0.97207  122.392
 4288.00    0.94471   0.95013  128.458
 4289.00    0.92281   0.93342  129.223
 4290.00    0.90989   0.93338   -1.000
 4291.00    0.92254   0.94925   -1.000
 4292.00    0.95322   0.96794  112.783
 4293.00    0.97118   0.97703  113.611
 4294.00    0.97170   0.97390  115.449
 4295.00    0.96064   0.96251  118.044
 4296.00    0.94157   0.94434  123.790
 4297.00    0.92617   0.91812  134.256
 4298.00    0.88379   0.88680  144.465
 4299.00    0.84518   0.86034  146.967
 4300.00    0.82171   0.84688   -1.000
 4301.00    0.82681   0.84756  140.629
 4302.00    0.84633   0.85806  138.503
 4303.00    0.85187   0.87257  136.794
 4304.00    0.85702   0.88370  137.219
 4305.00    0.86829   0.88363  141.707
 4306.00    0.86191   0.87101  149.225
 4307.00    0.84331   0.85471  153.298
 4308.00    0.82045   0.84817   -1.000
 4309.00    0.82448   0.85822   -1.000
 4310.00    0.84270   0.87841   -1.000
 4311.00    0.86755   0.89843   -1.000
 4312.00    0.88691   0.91714   -1.000
 4313.00    0.90413   0.94132   -1.000
 4314.00    0.93556   0.97644   -1.000
 4315.00    0.97424   1.01935   -1.000
 4316.00    1.02729   1.05741   -1.000
 4317.00    1.06699   1.07964   92.911
 4318.00    1.08216   1.08313   94.289
 4319.00    1.07489   1.07257   96.398
 4320.00    1.05157   1.05289   99.608
 4321.00    1.03303   1.02470  104.435
 4322.00    1.00304   0.98837  112.016
 4323.00    0.95704   0.94915  122.039
 4324.00    0.91758   0.91905  127.418
 4325.00    0.89455   0.91191  120.016
 4326.00    0.90703   0.93228   -1.000
 4327.00    0.95334   0.96716   99.505
 4328.00    0.99707   0.99485   97.279
 4329.00    1.01192   1.00555   97.581
 4330.00    1.00455   1.00397   97.107
 4331.00    1.00471   0.99929   95.460
 4332.00    1.00313   0.99438   94.437
 4333.00    0.99256   0.98419   94.190
 4334.00    0.98895   0.96172   95.706
 4335.00    0.98080   0.92072   -1.000
 4336.00    0.94688   0.85872   -1.000
 4337.00    0.89303   0.78297   -1.000
 4338.00    0.83051   0.71096   -1.000
 4339.00    0.76265   0.66348   -1.000
 4340.00    0.72787   0.65785   -1.000
 4341.00    0.75690   0.69616   -1.000
 4342.00    0.81113   0.76046   -1.000
 4343.00    0.87481   0.82580   -1.000
 4344.00    0.91662   0.87930   -1.000
 4345.00    0.94570   0.92104   98.578
 4346.00    0.96805   0.95506   97.511
 4347.00    0.98208   0.98176   95.934
 4348.00    0.99917   0.99631   96.098
 4349.00    1.00625   0.99286  101.173
 4350.00    0.98799   0.97491  108.734
 4351.00    0.95409   0.95867  110.652
 4352.00    0.94203   0.96031  106.400
 4353.00    0.96439   0.98164  101.560
 4354.00    0.99886   1.01068   98.354
 4355.00    1.02212   1.03443   96.261
 4356.00    1.04460   1.04869   96.201
 4357.00    1.05452   1.05512   98.217
 4358.00    1.04558   1.05806   99.486
 4359.00    1.03884   1.06329   -1.000
 4360.00    1.04721   1.07423   -1.000
 4361.00    1.06905   1.08803   93.615
 4362.00    1.08231   1.10031   93.211
 4363.00    1.08601   1.11009   92.190
 4364.00    1.08482   1.11521   -1.000
 4365.00    1.08515   1.11092   94.783
 4366.00    1.07264   1.09687   -1.000
 4367.00    1.05304   1.07981   -1.000
 4368.00    1.05090   1.06666   98.581
 4369.00    1.05150   1.05940   97.946
 4370.00    1.05188   1.05539   97.837
 4371.00    1.05606   1.04918   98.770
 4372.00    1.05162   1.03662  102.689
 4373.00    1.03020   1.02003  106.809
 4374.00    1.00724   1.00915  107.075
 4375.00    1.00486   1.01383  102.821
 4376.00    1.02697   1.03374   97.660
 4377.00    1.06494   1.05768   95.785
 4378.00    1.08230   1.07366   96.268
 4379.00    1.08557   1.07416   97.953
 4380.00    1.07740   1.05497  102.473
 4381.00    1.05134   1.01603   -1.000
 4382.00    1.00855   0.96782   -1.000
 4383.00    0.94534   0.93261  128.496
 4384.00    0.91945   0.93085  117.124
 4385.00    0.95500   0.95908  106.003
 4386.00    1.00248   0.99448  102.266
 4387.00    1.03231   1.01832  102.209
 4388.00    1.04174   1.02810  103.300
 4389.00    1.04250   1.03156  103.667
 4390.00    1.04063   1.03605  101.744
 4391.00    1.05146   1.04319   99.447
 4392.00    1.06547   1.04801  100.003
 4393.00    1.05872   1.04608  102.192
 4394.00    1.04085   1.04307  101.926
 4395.00    1.03922   1.04911   97.389
 4396.00    1.06228   1.06328   94.476
 4397.00    1.08288   1.07274   95.650
 4398.00    1.07975   1.06904   99.143
 4399.00    1.05960   1.05777  102.135
 4400.00    1.03798   1.05011  101.095
 4401.00    1.04378   1.04903   99.267
 4402.00    1.06812   1.04630  102.562
 4403.00    1.05480   1.03597  108.542
 4404.00    1.02719   1.02449  109.656
 4405.00    1.02562   1.02191  106.099
 4406.00    1.04117   1.02939  104.467
 4407.00    1.04946   1.04109  103.524
 4408.00    1.04829   1.05522   99.653
 4409.00    1.05799   1.07508   95.377
 4410.00    1.08919   1.09767   92.107
 4411.00    1.10505   1.11205   90.953
 4412.00    1.12237   1.10948   93.303
 4413.00    1.09607   1.08943   98.636
 4414.00    1.07127   1.06104  102.294
 4415.00    1.03879   1.04067  101.850
 4416.00    1.03161   1.04117   98.357
 4417.00    1.05025   1.06203   94.271
 4418.00    1.05879   1.09185   -1.000
 4419.00    1.09587   1.11610   92.003
 4420.00    1.10269   1.12432   94.403
 4421.00    1.08713   1.11870   -1.000
 4422.00    1.07597   1.10981   -1.000
 4423.00    1.07976   1.10488   -1.000
 4424.00    1.07845   1.10328   -1.000
 4425.00    1.07751   1.10184   -1.000
 4426.00    1.06604   1.10116   -1.000
 4427.00    1.06433   1.10376   -1.000
 4428.00    1.07158   1.10865   -1.000
 4429.00    1.07903   1.11309   -1.000
 4430.00    1.08140   1.11519   -1.000
 4431.00    1.08181   1.11325   -1.000
 4432.00    1.09534   1.10509   97.388
 4433.00    1.08511   1.09072  102.158
 4434.00    1.05269   1.07759   -1.000
 4435.00    1.04104   1.07805   -1.000
 4436.00    1.06465   1.09661   -1.000
 4437.00    1.10295   1.12380   89.328
 4438.00    1.13567   1.14395   88.980
 4439.00    1.13899   1.14616   91.741
 4440.00    1.12238   1.12936   96.144
 4441.00    1.09515   1.10340  100.238
 4442.00    1.06409   1.08483   -1.000
 4443.00    1.04853   1.08546   -1.000
 4444.00    1.06578   1.10437   -1.000
 4445.00    1.10052   1.12879   -1.000
 4446.00    1.11615   1.14570   -1.000
 4447.00    1.12044   1.15156   -1.000
 4448.00    1.12644   1.15080   -1.000
 4449.00    1.11774   1.14801   -1.000
 4450.00    1.11318   1.14474   -1.000
 4451.00    1.12268   1.13929   93.050
 4452.00    1.12103   1.12690   96.435
 4453.00    1.10368   1.10579  100.901
 4454.00    1.07569   1.08387  103.063
 4455.00    1.05501   1.07220  101.406
 4456.00    1.06689   1.07432   99.586
 4457.00    1.08091   1.08429   99.605
 4458.00    1.08501   1.09449  100.118
 4459.00    1.08810   1.10178  101.161
 4460.00    1.08046   1.10629   -1.000
 4461.00    1.08184   1.10958   -1.000
 4462.00    1.09035   1.11429   96.191
 4463.00    1.10420   1.12207   93.885
 4464.00    1.11037   1.12972   93.705
 4465.00    1.11592   1.13180   93.771
 4466.00    1.12128   1.12631   94.822
 4467.00    1.10956   1.11648   96.652
 4468.00    1.08923   1.10924   97.266
 4469.00    1.09111   1.11121   95.944
 4470.00    1.09680   1.12377   -1.000
 4471.00    1.11661   1.14319   -1.000
 4472.00    1.14211   1.16383   87.271
 4473.00    1.16841   1.18002   86.498
 4474.00    1.17370   1.18868   86.646
 4475.00    1.16550   1.19136   -1.000
 4476.00    1.17211   1.19097   85.395
 4477.00    1.17961   1.18649   86.142
 4478.00    1.17536   1.17252   89.303
 4479.00    1.15536   1.14742   93.372
 4480.00    1.12457   1.12065   96.053
 4481.00    1.09623   1.10809   95.053
 4482.00    1.09992   1.11774   91.065
 4483.00    1.12368   1.14394   87.606
 4484.00    1.15529   1.17325   85.705
 4485.00    1.18239   1.19238   85.797
 4486.00    1.18763   1.19468   87.733
 4487.00    1.17508   1.18260   91.102
 4488.00    1.14653   1.16556   93.236
 4489.00    1.13196   1.15417   -1.000
 4490.00    1.12979   1.15445   -1.000
 4491.00    1.15925   1.16351   88.361
 4492.00    1.16515   1.17243   89.642
 4493.00    1.16164   1.17421   92.392
 4494.00    1.14473   1.17052   -1.000
 4495.00    1.12846   1.16913   -1.000
 4496.00    1.13802   1.17348   -1.000
 4497.00    1.15125   1.18038   -1.000
 4498.00    1.16738   1.18476   86.751
 4499.00    1.17517   1.18404   87.754
 4500.00    1.16495   1.18096   88.247
 4501.00    1.15989   1.18307   -1.000
 4502.00    1.16504   1.19517   -1.000
 4503.00    1.18641   1.21298   -1.000
 4504.00    1.21133   1.22781   82.072
 4505.00    1.21560   1.23328   83.752
 4506.00    1.21550   1.22968   84.592
 4507.00    1.20356   1.22250   84.669
 4508.00    1.19403   1.21843   -1.000
 4509.00    1.19260   1.21960   -1.000
 4510.00    1.20183   1.22198   84.129
 4511.00    1.20234   1.22027   85.794
 4512.00    1.19080   1.21300   87.334
 4513.00    1.18592   1.20294   87.892
 4514.00    1.18449   1.19381   87.467
 4515.00    1.18023   1.18843   87.396
 4516.00    1.17728   1.18686   88.454
 4517.00    1.16911   1.18611   88.982
 4518.00    1.16571   1.18490   87.495
 4519.00    1.17635   1.18482   85.759
 4520.00    1.18072   1.18571   85.994
 4521.00    1.17052   1.18496   88.024
 4522.00    1.16445   1.18050   89.821
 4523.00    1.15425   1.17314   90.604
 4524.00    1.15255   1.16458   92.116
 4525.00    1.15227   1.15406   94.937
 4526.00    1.13522   1.13998   97.628
 4527.00    1.11922   1.12411   98.820
 4528.00    1.10703   1.11247   98.121
 4529.00    1.10644   1.11044   96.398
 4530.00    1.11772   1.11606   94.634
 4531.00    1.13085   1.12110   94.154
 4532.00    1.12737   1.11828   96.768
 4533.00    1.10724   1.10942  100.073
 4534.00    1.08705   1.10529   98.825
 4535.00    1.08664   1.11613   -1.000
 4536.00    1.11959   1.14236   87.701
 4537.00    1.16665   1.17359   85.306
 4538.00    1.19741   1.19651   86.100
 4539.00    1.19297   1.20379   88.185
 4540.00    1.18087   1.19957   88.123
 4541.00    1.17786   1.19359   87.478
 4542.00    1.17990   1.19134   87.147
 4543.00    1.17084   1.19061   -1.000
 4544.00    1.21884   1.18712   41.351
 4545.00    0.88040   1.18053   -1.000
 4546.00    0.15006   1.17198   -1.000
 4547.00    0.00535   1.16032   -1.000
 4548.00    0.38275   1.14631   -1.000
 4549.00    0.79988   1.13682   -1.000
 4550.00    0.35800   1.13894   -1.000
 4551.00    1.09301   1.14961   -1.000
 4552.00    1.14504   1.15732   92.778
 4553.00    1.12905   1.15590   -1.000
 4554.00    1.11780   1.15088   -1.000
 4555.00    1.12163   1.15222   -1.000
 4556.00    1.14571   1.16480   85.306
 4557.00    1.17834   1.18455   83.786
 4558.00    1.18941   1.20364   84.236
 4559.00    1.20291   1.21770   84.193
 4560.00    1.20567   1.22512   84.225
 4561.00    1.20713   1.22448   86.172
 4562.00    1.19579   1.21539   88.332
 4563.00    1.18150   1.20161   89.853
 4564.00    1.16326   1.19095   -1.000
 4565.00    1.17699   1.19018   86.632
 4566.00    1.20051   1.19957   84.333
 4567.00    1.21345   1.21262   83.474
 4568.00    1.21691   1.21994   84.382
 4569.00    1.20716   1.21634   86.526
 4570.00    1.18858   1.20401   88.810
 4571.00    1.16476   1.19184   -1.000
 4572.00    1.16565   1.18937   -1.000
 4573.00    1.17969   1.19854   84.294
 4574.00    1.20168   1.21171   84.335
 4575.00    1.20920   1.22042   84.724
 4576.00    1.21152   1.22227   85.216
 4577.00    1.20425   1.21764   86.673
 4578.00    1.19638   1.20683   89.276
 4579.00    1.17397   1.19116   91.131
 4580.00    1.17012   1.17484   90.894
 4581.00    1.16591   1.16266   89.610
 4582.00    1.15974   1.15720   88.941
 4583.00    1.16353   1.15778   89.202
 4584.00    1.16360   1.16264   89.766
 4585.00    1.16913   1.17045   88.536
 4586.00    1.17287   1.18058   86.208
 4587.00    1.18955   1.19153   84.370
 4588.00    1.20434   1.20064   84.234
 4589.00    1.20911   1.20496   85.466
 4590.00    1.19949   1.20288   87.067
 4591.00    1.18087   1.19654   88.597
 4592.00    1.16955   1.19119   88.691
 4593.00    1.17350   1.19113   87.935
 4594.00    1.17986   1.19623   87.242
 4595.00    1.18915   1.20310   87.007
 4596.00    1.19963   1.20912   86.824
 4597.00    1.20791   1.21285   86.629
 4598.00    1.21017   1.21322   87.390
 4599.00    1.20524   1.20998   88.179
 4600.00    1.19559   1.20468   88.429
 4601.00    1.18371   1.19990   87.493
 4602.00    1.18107   1.19829   86.506
 4603.00    1.19491   1.20027   86.646
 4604.00    1.20718   1.20442   86.504
 4605.00    1.20240   1.20998   85.563
 4606.00    1.20178   1.21730   83.868
 4607.00    1.21858   1.22626   82.067
 4608.00    1.23322   1.23542   81.098
 4609.00    1.22936   1.24172   81.459
 4610.00    1.22974   1.24217   82.587
 4611.00    1.23646   1.23741   83.507
 4612.00    1.22761   1.23196   84.049
 4613.00    1.21551   1.22900   83.633
 4614.00    1.21810   1.22845   82.884
 4615.00    1.21928   1.22776   82.552
 4616.00    1.22063   1.22480   83.107
 4617.00    1.21953   1.22016   83.727
 4618.00    1.22181   1.21666   83.648
 4619.00    1.21496   1.21758   82.845
 4620.00    1.22108   1.22423   81.521
 4621.00    1.23150   1.23441   81.498
 4622.00    1.24357   1.24307   81.706
 4623.00    1.24242   1.24661   81.867
 4624.00    1.23282   1.24570   82.625
 4625.00    1.23226   1.24267   82.826
 4626.00    1.23355   1.23889   82.781
 4627.00    1.23782   1.23534   83.320
 4628.00    1.23152   1.23258   83.498
 4629.00    1.22449   1.23172   83.076
 4630.00    1.21930   1.23418   82.109
 4631.00    1.21564   1.23864   82.482
 4632.00    1.23408   1.24041   83.699
 4633.00    1.23165   1.23670   84.624
 4634.00    1.22592   1.23064   84.542
 4635.00    1.22737   1.22636   85.232
 4636.00    1.22265   1.22440   86.371
 4637.00    1.22021   1.22380   86.721
 4638.00    1.21795   1.22524   86.595
 4639.00    1.21306   1.22989   85.114
 4640.00    1.22435   1.23781   83.016
 4641.00    1.23848   1.24670   81.882
 4642.00    1.24948   1.25238   82.226
 4643.00    1.24382   1.25070   83.776
 4644.00    1.23911   1.24084   86.155
 4645.00    1.22679   1.22562   88.545
 4646.00    1.21840   1.21033   88.908
 4647.00    1.19918   1.20201   87.313
 4648.00    1.20521   1.20523   85.259
 4649.00    1.22068   1.21707   84.096
 4650.00    1.22487   1.22962   83.959
 4651.00    1.22041   1.23672   83.785
 4652.00    1.22806   1.23721   84.797
 4653.00    1.22423   1.23274   86.785
 4654.00    1.21737   1.22581   87.775
 4655.00    1.20537   1.22129   87.005
 4656.00    1.20241   1.22459   84.206
 4657.00    1.22384   1.23800   80.960
 4658.00    1.24431   1.25759   79.156
 4659.00    1.26520   1.27450   79.094
 4660.00    1.27613   1.28089   80.095
 4661.00    1.26413   1.27642   82.083
 4662.00    1.25234   1.26556   83.700
 4663.00    1.24653   1.25228   83.877
 4664.00    1.23849   1.23736   85.273
 4665.00    1.22638   1.21929   88.988
 4666.00    1.20859   1.19868   92.702
 4667.00    1.18717   1.18234   92.754
 4668.00    1.17091   1.17870   89.860
 4669.00    1.17894   1.18960   86.069
 4670.00    1.20873   1.20869   83.758
 4671.00    1.23404   1.22737   83.286
 4672.00    1.24513   1.24022   83.360
 4673.00    1.24116   1.24766   83.271
 4674.00    1.24287   1.25293   82.169
 4675.00    1.25583   1.25735   80.925
 4676.00    1.25514   1.25771   81.359
 4677.00    1.25883   1.25033   83.158
 4678.00    1.24626   1.23724   84.804
 4679.00    1.23049   1.22457   86.201
 4680.00    1.22499   1.21720   87.026
 4681.00    1.21867   1.21588   85.909
 4682.00    1.22289   1.21900   83.712
 4683.00    1.23881   1.22482   82.631
 4684.00    1.23933   1.23106   82.938
 4685.00    1.24810   1.23567   82.967
 4686.00    1.25530   1.23823   83.451
 4687.00    1.25469   1.23949   83.447
 4688.00    1.24309   1.24007   83.455
 4689.00    1.24891   1.24017   84.071
 4690.00    1.24591   1.23982   84.237
 4691.00    1.23567   1.23977   83.213
 4692.00    1.25194   1.24184   81.966
 4693.00    1.26659   1.24617   80.122
 4694.00    1.27473   1.25044   79.114
 4695.00    1.28450   1.25247   79.534
 4696.00    1.28205   1.25078   81.879
 4697.00    1.26502   1.24425   84.365
 4698.00    1.23910   1.23383   85.316
 4699.00    1.23348   1.22239   84.593
 4700.00    1.23878   1.21138   85.256
 4701.00    1.23312   1.20112   86.792
 4702.00    1.21503   1.19354   87.221
 4703.00    1.20811   1.19299   85.517
 4704.00    1.22286   1.20023   84.261
 4705.00    1.23544   1.20853   85.494
 4706.00    1.22994   1.21035   87.231
 4707.00    1.21805   1.20614   88.054
 4708.00    1.20975   1.20327   87.562
 4709.00    1.21357   1.20746   84.929
 4710.00    1.22504   1.21777   82.600
 4711.00    1.24992   1.22915   81.815
 4712.00    1.26405   1.23650   82.640
 4713.00    1.25862   1.23741   84.232
 4714.00    1.24449   1.23526   84.196
 4715.00    1.23908   1.23650   82.480
 4716.00    1.24594   1.24390   80.893
 4717.00    1.26152   1.25430   80.419
 4718.00    1.27556   1.26264   80.140
 4719.00    1.27892   1.26681   79.865
 4720.00    1.27768   1.26771   80.574
 4721.00    1.26826   1.26773   81.144
 4722.00    1.26295   1.26863   80.641
 4723.00    1.27103   1.27053   79.753
 4724.00    1.27537   1.27166   79.903
 4725.00    1.26917   1.26862   81.900
 4726.00    1.25266   1.25882   85.063
 4727.00    1.23768   1.24390   86.935
 4728.00    1.22981   1.22993   86.554
 4729.00    1.23220   1.22209   85.651
 4730.00    1.23736   1.22092   84.983
 4731.00    1.23533   1.22440   83.946
 4732.00    1.24914   1.23076   83.226
 4733.00    1.25444   1.23719   82.760
 4734.00    1.25679   1.24056   82.299
 4735.00    1.25898   1.24015   83.227
 4736.00    1.24732   1.23815   83.310
 4737.00    1.25306   1.23777   82.193
 4738.00    1.25735   1.24101   82.263
 4739.00    1.25141   1.24655   82.757
 4740.00    1.25379   1.25132   82.855
 4741.00    1.26362   1.25457   82.166
 4742.00    1.26535   1.25798   81.259
 4743.00    1.27075   1.26234   81.456
 4744.00    1.27774   1.26658   81.525
 4745.00    1.27300   1.26977   80.893
 4746.00    1.27490   1.27287   80.066
 4747.00    1.27726   1.27741   79.918
 4748.00    1.27686   1.28280   80.049
 4749.00    1.27488   1.28726   80.100
 4750.00    1.28134   1.29004   80.702
 4751.00    1.27363   1.28953   81.632
 4752.00    1.26728   1.28412   82.309
 4753.00    1.25440   1.27513   82.870
 4754.00    1.25029   1.26682   82.700
 4755.00    1.26209   1.26334   83.039
 4756.00    1.25679   1.26560   83.667
 4757.00    1.24992   1.27177   83.741
 4758.00    1.24901   1.27894   83.018
 4759.00    1.25919   1.28347   82.886
 4760.00    1.25883   1.28128   84.234
 4761.00    1.25113   1.27053   86.378
 4762.00    1.22951   1.25445   87.456
 4763.00    1.21568   1.23993   87.554
 4764.00    1.21964   1.23224   87.362
 4765.00    1.22934   1.23169   86.732
 4766.00    1.23610   1.23702   85.509
 4767.00    1.24121   1.24759   83.536
 4768.00    1.25355   1.26170   82.402
 4769.00    1.26822   1.27461   82.585
 4770.00    1.27160   1.28127   83.307
 4771.00    1.26190   1.28155   84.047
 4772.00    1.26273   1.28087   83.014
 4773.00    1.26370   1.28465   81.203
 4774.00    1.26513   1.29343   80.691
 4775.00    1.27296   1.30235   80.776
 4776.00    1.27593   1.30646   81.020
 4777.00    1.27718   1.30459   81.561
 4778.00    1.27193   1.29900   82.497
 4779.00    1.26533   1.29351   82.967
 4780.00    1.26117   1.29018   -1.000
 4781.00    1.26000   1.28794   83.580
 4782.00    1.25531   1.28457   84.267
 4783.00    1.25700   1.27982   84.205
 4784.00    1.26277   1.27490   84.502
 4785.00    1.25705   1.27047   85.368
 4786.00    1.24814   1.26718   85.847
 4787.00    1.24704   1.26637   85.739
 4788.00    1.24054   1.26891   85.304
 4789.00    1.23731   1.27414   -1.000
 4790.00    1.25225   1.28136   83.874
 4791.00    1.26831   1.29087   82.477
 4792.00    1.27353   1.30269   80.616
 4793.00    1.27508   1.31531   -1.000
 4794.00    1.28843   1.32592   -1.000
 4795.00    1.29355   1.33124   -1.000
 4796.00    1.29195   1.32929   -1.000
 4797.00    1.28442   1.32154   -1.000
 4798.00    1.26246   1.31227   -1.000
 4799.00    1.25977   1.30652   -1.000
 4800.00    1.26397   1.30747   -1.000
 4801.00    1.27664   1.31328   -1.000
 4802.00    1.28413   1.31819   -1.000
 4803.00    1.27808   1.31784   -1.000
 4804.00    1.27300   1.31264   -1.000
 4805.00    1.27026   1.30637   -1.000
 4806.00    1.26934   1.30272   -1.000
 4807.00    1.26696   1.30241   -1.000
 4808.00    1.27032   1.30432   -1.000
 4809.00    1.27706   1.30731   -1.000
 4810.00    1.27709   1.30991   -1.000
 4811.00    1.28443   1.31138   80.960
 4812.00    1.28188   1.31321   -1.000
 4813.00    1.28019   1.31722   -1.000
 4814.00    1.28495   1.32341   -1.000
 4815.00    1.28724   1.33037   -1.000
 4816.00    1.28767   1.33619   -1.000
 4817.00    1.29248   1.33945   -1.000
 4818.00    1.29498   1.34027   -1.000
 4819.00    1.29142   1.33959   -1.000
 4820.00    1.30030   1.33643   -1.000
 4821.00    1.29243   1.32762   -1.000
 4822.00    1.27770   1.31223   -1.000
 4823.00    1.25969   1.29539   -1.000
 4824.00    1.24363   1.28612   -1.000
 4825.00    1.26003   1.28912   -1.000
 4826.00    1.27711   1.29907   80.888
 4827.00    1.28339   1.30688   81.875
 4828.00    1.28139   1.30863   82.364
 4829.00    1.27123   1.30601   -1.000
 4830.00    1.27388   1.30144   83.120
 4831.00    1.27426   1.29571   83.233
 4832.00    1.26906   1.29089   81.834
 4833.00    1.27379   1.28977   80.758
 4834.00    1.28643   1.29230   80.492
 4835.00    1.28367   1.29587   80.643
 4836.00    1.27495   1.29736   81.040
 4837.00    1.27867   1.29475   82.185
 4838.00    1.26933   1.28797   83.677
 4839.00    1.25249   1.27869   83.663
 4840.00    1.24689   1.27010   83.477
 4841.00    1.24381   1.26512   83.046
 4842.00    1.25378   1.26415   82.416
 4843.00    1.25802   1.26555   81.583
 4844.00    1.25722   1.26849   80.277
 4845.00    1.26294   1.27219   79.902
 4846.00    1.26195   1.27272   81.622
 4847.00    1.25476   1.26652   82.821
 4848.00    1.24887   1.25674   82.760
 4849.00    1.23837   1.24993   81.545
 4850.00    1.23604   1.24737   81.398
 4851.00    1.23572   1.24402   81.892
 4852.00    1.24199   1.23356   82.601
 4853.00    1.22177   1.21293   85.161
 4854.00    1.18801   1.18399   87.574
 4855.00    1.16329   1.15299   87.262
 4856.00    1.15884   1.12485   86.344
 4857.00    1.14761   1.09498   -1.000
 4858.00    1.13475   1.04963   -1.000
 4859.00    1.07578   0.98138   -1.000
 4860.00    0.98514   0.90658   -1.000
 4861.00    0.92517   0.85888   -1.000
 4862.00    0.92095   0.86273   -1.000
 4863.00    1.00270   0.91391   -1.000
 4864.00    1.07915   0.98555   -1.000
 4865.00    1.11534   1.05306   -1.000
 4866.00    1.15150   1.10594   -1.000
 4867.00    1.17749   1.14340   84.762
 4868.00    1.19328   1.16611   85.547
 4869.00    1.19701   1.17393   88.048
 4870.00    1.17606   1.16934   90.194
 4871.00    1.15721   1.16113   89.299
 4872.00    1.15261   1.16226   86.670
 4873.00    1.17004   1.17867   85.208
 4874.00    1.20442   1.20253   84.580
 4875.00    1.22143   1.22163   84.126
 4876.00    1.22885   1.23183   83.853
 4877.00    1.22572   1.23925   82.585
 4878.00    1.22390   1.25084   81.720
 4879.00    1.24271   1.26588   82.517
 4880.00    1.25214   1.27776   83.916
 4881.00    1.24794   1.28159   -1.000
 4882.00    1.23689   1.27872   -1.000
 4883.00    1.23618   1.27359   -1.000
 4884.00    1.23109   1.26831   -1.000
 4885.00    1.23525   1.26314   86.318
 4886.00    1.23210   1.25878   85.816
 4887.00    1.22876   1.25544   85.713
 4888.00    1.23667   1.25089   87.047
 4889.00    1.22668   1.24250   89.019
 4890.00    1.20862   1.23352   88.321
 4891.00    1.20938   1.23417   84.651
 4892.00    1.23560   1.25305   80.675
 4893.00    1.27559   1.28743   78.350
 4894.00    1.29451   1.32306   76.912
 4895.00    1.31496   1.34709   76.586
 4896.00    1.31329   1.35758   -1.000
 4897.00    1.31789   1.35817   -1.000
 4898.00    1.30858   1.35249   -1.000
 4899.00    1.29235   1.34420   -1.000
 4900.00    1.27118   1.33700   -1.000
 4901.00    1.28304   1.33196   -1.000
 4902.00    1.28768   1.32751   -1.000
 4903.00    1.27881   1.32384   -1.000
 4904.00    1.28375   1.32539   -1.000
 4905.00    1.29788   1.33440   -1.000
 4906.00    1.31652   1.34438   79.425
 4907.00    1.31321   1.34570   81.402
 4908.00    1.29754   1.33486   -1.000
 4909.00    1.27799   1.31658   -1.000
 4910.00    1.26762   1.30043   -1.000
 4911.00    1.26218   1.29490   -1.000
 4912.00    1.27614   1.30223   80.941
 4913.00    1.29473   1.31755   79.889
 4914.00    1.29664   1.33325   -1.000
 4915.00    1.31328   1.34181   79.625
 4916.00    1.31908   1.33579   82.527
 4917.00    1.28982   1.31145   87.141
 4918.00    1.25425   1.27390   91.273
 4919.00    1.21088   1.23666   92.186
 4920.00    1.19252   1.21448   89.035
 4921.00    1.20794   1.21360   85.789
 4922.00    1.22592   1.22786   84.590
 4923.00    1.24808   1.24584   84.548
 4924.00    1.25810   1.26231   83.425
 4925.00    1.26503   1.28049   81.196
 4926.00    1.28586   1.30261   79.773
 4927.00    1.30796   1.32547   79.049
 4928.00    1.31872   1.34397   78.515
 4929.00    1.32011   1.35473   78.050
 4930.00    1.32886   1.35622   78.878
 4931.00    1.31707   1.34713   81.094
 4932.00    1.29671   1.32865   84.071
 4933.00    1.27030   1.30830   -1.000
 4934.00    1.25098   1.29587   -1.000
 4935.00    1.26325   1.29366   82.613
 4936.00    1.28486   1.29360   85.154
 4937.00    1.27297   1.28718   87.481
 4938.00    1.25360   1.27777   86.593
 4939.00    1.25300   1.27729   83.554
 4940.00    1.26579   1.29191   80.885
 4941.00    1.28995   1.31641   79.435
 4942.00    1.30850   1.33935   78.740
 4943.00    1.32583   1.35272   78.830
 4944.00    1.33205   1.35628   79.410
 4945.00    1.32737   1.35455   79.559
 4946.00    1.31687   1.35324   -1.000
 4947.00    1.32063   1.35633   -1.000
 4948.00    1.33041   1.36342   77.657
 4949.00    1.33259   1.37006   -1.000
 4950.00    1.33264   1.37205   -1.000
 4951.00    1.33542   1.36909   78.309
 4952.00    1.33439   1.36396   79.233
 4953.00    1.32546   1.35804   80.237
 4954.00    1.32786   1.34755   82.453
 4955.00    1.31626   1.32561   86.798
 4956.00    1.27108   1.29274   90.213
 4957.00    1.22906   1.26457   -1.000
 4958.00    1.23551   1.26049   83.024
 4959.00    1.27347   1.28385   80.251
 4960.00    1.31643   1.31873   79.714
 4961.00    1.32796   1.34556   80.124
 4962.00    1.32365   1.35688   80.778
 4963.00    1.32341   1.35600   81.758
 4964.00    1.31977   1.34780   83.520
 4965.00    1.31077   1.33646   84.568
 4966.00    1.29618   1.32631   84.549
 4967.00    1.29770   1.32025   84.288
 4968.00    1.30615   1.31861   83.647
 4969.00    1.30256   1.32087   82.741
 4970.00    1.30197   1.32671   81.852
 4971.00    1.30940   1.33534   80.871
 4972.00    1.32064   1.34526   80.121
 4973.00    1.33268   1.35450   79.822
 4974.00    1.33524   1.36063   80.413
 4975.00    1.33022   1.36183   81.275
 4976.00    1.32345   1.35804   82.394
 4977.00    1.31624   1.35029   83.744
 4978.00    1.30946   1.33956   84.769
 4979.00    1.30036   1.32560   86.002
 4980.00    1.28879   1.30634   88.900
 4981.00    1.26195   1.28055   91.743
 4982.00    1.23669   1.25306   91.622
 4983.00    1.22255   1.23506   89.827
 4984.00    1.23021   1.23617   87.269
 4985.00    1.25683   1.25604   84.495
 4986.00    1.27977   1.28458   82.455
 4987.00    1.29798   1.30981   82.613
 4988.00    1.31262   1.32367   83.867
 4989.00    1.30197   1.32429   84.704
 4990.00    1.29016   1.31685   84.701
 4991.00    1.28626   1.30985   83.925
 4992.00    1.29860   1.30883   83.589
 4993.00    1.29469   1.31352   83.553
 4994.00    1.29681   1.32056   83.108
 4995.00    1.30775   1.32692   82.713
 4996.00    1.32067   1.33032   83.257
 4997.00    1.31985   1.32838   84.407
 4998.00    1.30492   1.31904   86.125
 4999.00    1.28481   1.30337   87.164
 5000.00    1.26750   1.28714   87.175
 5001.00    1.26352   1.27755   86.324
 5002.00    1.27871   1.27707   85.800
 5003.00    1.28265   1.27989   87.111
 5004.00    1.27231   1.27689   89.338
 5005.00    1.26103   1.26624   89.725
 5006.00    1.25363   1.25720   87.429
 5007.00    1.25357   1.26069   84.779
 5008.00    1.28370   1.27685   83.971
 5009.00    1.30439   1.29425   85.167
 5010.00    1.29782   1.29967   87.797
 5011.00    1.28262   1.28816   91.096
 5012.00    1.25577   1.26617   93.122
 5013.00    1.23154   1.24614   92.555
 5014.00    1.22299   1.23719   90.455
 5015.00    1.23724   1.23865   88.599
 5016.00    1.25562   1.24298   88.280
 5017.00    1.25301   1.24483   88.286
 5018.00    1.24853   1.24654   87.254
 5019.00    1.26068   1.25334   86.576
 5020.00    1.27911   1.26461   86.992
 5021.00    1.28353   1.27490   87.160
 5022.00    1.27976   1.28185   86.627
 5023.00    1.28505   1.28871   85.704
 5024.00    1.29505   1.29806   85.164
 5025.00    1.29978   1.30590   85.604
 5026.00    1.29882   1.30742   85.983
 5027.00    1.29032   1.30523   85.134
 5028.00    1.28609   1.30545   83.510
 5029.00    1.30639   1.31070   82.326
 5030.00    1.31411   1.32003   80.992
 5031.00    1.31815   1.33101   80.100
 5032.00    1.33357   1.34015   80.332
 5033.00    1.33045   1.34259   83.017
 5034.00    1.31791   1.33455   86.298
 5035.00    1.29201   1.31843   87.632
 5036.00    1.27892   1.30167   87.927
 5037.00    1.27411   1.28834   89.110
 5038.00    1.27154   1.27397   92.714
 5039.00    1.24500   1.25271   96.398
 5040.00    1.22261   1.23004   96.167
 5041.00    1.20891   1.22181   91.320
 5042.00    1.22407   1.23836   85.681
 5043.00    1.27015   1.27456   82.298
 5044.00    1.30766   1.31444   80.573
 5045.00    1.32941   1.34365   77.596
 5046.00    1.34400   1.35610   74.409
 5047.00    1.39578   1.35180   23.260
 5048.00    0.75427   1.33495   -1.000
 5049.00    0.07835   1.31369   -1.000
 5050.00    0.85352   1.29725   -1.000
 5051.00    1.35363   1.29226   -1.000
 5052.00    1.29090   1.30072   82.304
 5053.00    1.31563   1.31843   80.847
 5054.00    1.33374   1.33664   80.119
 5055.00    1.34571   1.34944   79.891
 5056.00    1.34835   1.35774   80.053
 5057.00    1.34854   1.36449   80.195
 5058.00    1.34401   1.37040   80.139
 5059.00    1.34829   1.37475   79.593
 5060.00    1.35271   1.37697   79.695
 5061.00    1.35301   1.37608   80.852
 5062.00    1.34981   1.36912   83.283
 5063.00    1.33277   1.35382   86.215
 5064.00    1.30531   1.33429   87.059
 5065.00    1.28285   1.31918   -1.000
 5066.00    1.29600   1.31349   84.639
 5067.00    1.31055   1.31500   84.405
 5068.00    1.31131   1.31837   83.992
 5069.00    1.32205   1.32084   83.475
 5070.00    1.32709   1.32196   84.200
 5071.00    1.32511   1.32052   84.804
 5072.00    1.32722   1.31678   83.705
 5073.00    1.32156   1.31457   83.085
 5074.00    1.32332   1.31700   82.997
 5075.00    1.32379   1.32202   82.965
 5076.00    1.32535   1.32375   83.886
 5077.00    1.31369   1.31684   86.949
 5078.00    1.29724   1.30030   91.038
 5079.00    1.27352   1.28047   91.844
 5080.00    1.25379   1.26778   89.790
 5081.00    1.26445   1.26767   87.899
 5082.00    1.28089   1.27717   86.726
 5083.00    1.29335   1.29076   85.071
 5084.00    1.30755   1.30566   83.651
 5085.00    1.32268   1.32094   83.107
 5086.00    1.33895   1.33448   82.999
 5087.00    1.33548   1.34423   82.560
 5088.00    1.33566   1.35084   81.960
 5089.00    1.34299   1.35597   81.515
 5090.00    1.34906   1.36025   81.072
 5091.00    1.34745   1.36423   80.121
 5092.00    1.35833   1.36866   79.469
 5093.00    1.36010   1.37220   80.296
 5094.00    1.35531   1.37028   82.021
 5095.00    1.34959   1.35876   83.806
 5096.00    1.33688   1.33852   85.840
 5097.00    1.32211   1.31609   87.565
 5098.00    1.30564   1.30001   87.672
 5099.00    1.30228   1.29623   85.399
 5100.00    1.31533   1.30548   82.979
 5101.00    1.32906   1.32230   82.375
 5102.00    1.34335   1.33750   82.937
 5103.00    1.34402   1.34443   84.059
 5104.00    1.33759   1.34212   85.119
 5105.00    1.32740   1.33287   86.161
 5106.00    1.30955   1.32010   87.192
 5107.00    1.29526   1.30816   86.986
 5108.00    1.28954   1.30125   86.407
 5109.00    1.29905   1.30179   85.755
 5110.00    1.30574   1.30983   84.501
 5111.00    1.32226   1.32316   83.474
 5112.00    1.33439   1.33788   82.468
 5113.00    1.34095   1.35061   81.749
 5114.00    1.35045   1.36053   81.305
 5115.00    1.35187   1.36849   80.433
 5116.00    1.35714   1.37490   79.811
 5117.00    1.36387   1.37905   80.126
 5118.00    1.37321   1.37956   81.221
 5119.00    1.37046   1.37517   82.459
 5120.00    1.35488   1.36553   83.864
 5121.00    1.33530   1.35193   86.082
 5122.00    1.32321   1.33626   88.609
 5123.00    1.30434   1.32051   89.062
 5124.00    1.29547   1.30769   88.224
 5125.00    1.28781   1.30060   87.806
 5126.00    1.29747   1.29909   87.308
 5127.00    1.30443   1.30022   87.455
 5128.00    1.30232   1.30190   87.313
 5129.00    1.30407   1.30464   86.106
 5130.00    1.31001   1.30965   84.656
 5131.00    1.32872   1.31660   83.998
 5132.00    1.33622   1.32382   83.193
 5133.00    1.33527   1.33005   82.489
 5134.00    1.34278   1.33480   82.385
 5135.00    1.34839   1.33676   83.982
 5136.00    1.34099   1.33336   86.022
 5137.00    1.33146   1.32386   87.296
 5138.00    1.30468   1.31146   87.309
 5139.00    1.29058   1.30151   86.554
 5140.00    1.29640   1.29707   87.310
 5141.00    1.29963   1.29698   88.674
 5142.00    1.29203   1.29891   88.009
 5143.00    1.29557   1.30261   86.539
 5144.00    1.31292   1.30780   86.356
 5145.00    1.31826   1.31164   87.189
 5146.00    1.31889   1.31138   87.304
 5147.00    1.32424   1.30912   86.198
 5148.00    1.32372   1.30937   85.825
 5149.00    1.32325   1.31165   86.996
 5150.00    1.32323   1.31131   88.561
 5151.00    1.31028   1.30671   89.035
 5152.00    1.29569   1.30096   88.463
 5153.00    1.30426   1.29874   86.678
 5154.00    1.32366   1.30380   84.446
 5155.00    1.32609   1.31709   82.330
 5156.00    1.34264   1.33551   80.868
 5157.00    1.36267   1.35359   80.349
 5158.00    1.36891   1.36670   80.380
 5159.00    1.37302   1.37273   80.674
 5160.00    1.37640   1.37181   81.173
 5161.00    1.36177   1.36513   82.133
 5162.00    1.35642   1.35328   83.529
 5163.00    1.34346   1.33427   87.025
 5164.00    1.32797   1.30200   -1.000
 5165.00    1.27812   1.25209   -1.000
 5166.00    1.21020   1.19270  110.681
 5167.00    1.15353   1.14526  107.720
 5168.00    1.14682   1.12865  101.588
 5169.00    1.17749   1.13861   -1.000
 5170.00    1.21392   1.14944   -1.000
 5171.00    1.19352   1.14381   -1.000
 5172.00    1.14105   1.13365  108.711
 5173.00    1.14834   1.14615   96.733
 5174.00    1.21383   1.19238   89.142
 5175.00    1.29342   1.25454   -1.000
 5176.00    1.34429   1.30627   -1.000
 5177.00    1.36130   1.33572   -1.000
 5178.00    1.35959   1.34470   86.261
 5179.00    1.35497   1.33605   89.591
 5180.00    1.34688   1.30730   -1.000
 5181.00    1.30763   1.25666   -1.000
 5182.00    1.22321   1.19508   -1.000
 5183.00    1.14323   1.14877  108.595
 5184.00    1.13173   1.14290   96.250
 5185.00    1.20066   1.17982   88.416
 5186.00    1.27953   1.23609   -1.000
 5187.00    1.31906   1.28273   -1.000
 5188.00    1.32948   1.30753   85.116
 5189.00    1.32706   1.31569   86.216
 5190.00    1.32269   1.31371   89.047
 5191.00    1.30551   1.30440   91.288
 5192.00    1.27991   1.29361   90.360
 5193.00    1.27725   1.28861   88.773
 5194.00    1.29726   1.29163   87.475
 5195.00    1.31320   1.29941   86.166
 5196.00    1.32403   1.30902   84.420
 5197.00    1.34311   1.32141   83.049
 5198.00    1.35529   1.33744   82.448
 5199.00    1.36576   1.35335   82.448
 5200.00    1.36432   1.36292   83.211
 5201.00    1.36067   1.36148   84.798
 5202.00    1.35621   1.34755   86.812
 5203.00    1.33630   1.32361   89.594
 5204.00    1.31680   1.29577   92.187
 5205.00    1.29659   1.27131   92.387
 5206.00    1.28979   1.25550   -1.000
 5207.00    1.29105   1.24961   -1.000
 5208.00    1.29560   1.25279   -1.000
 5209.00    1.30994   1.26562   -1.000
 5210.00    1.32522   1.28918   -1.000
 5211.00    1.34616   1.32045   81.793
 5212.00    1.36697   1.35048   80.361
 5213.00    1.37932   1.36856   81.474
 5214.00    1.37972   1.36933   83.402
 5215.00    1.36314   1.35774   84.241
 5216.00    1.34452   1.34675   83.361
 5217.00    1.35152   1.34765   81.530
 5218.00    1.37166   1.36181   80.371
 5219.00    1.39239   1.38181   79.808
 5220.00    1.40094   1.39863   79.597
 5221.00    1.40580   1.40653   80.809
 5222.00    1.40713   1.40269   83.432
 5223.00    1.38984   1.38492   86.971
 5224.00    1.35264   1.35239   90.970
 5225.00    1.30772   1.31130   93.061
 5226.00    1.27631   1.27782   90.575
 5227.00    1.27383   1.26875   85.443
 5228.00    1.31117   1.28748   82.175
 5229.00    1.35337   1.31992   -1.000
 5230.00    1.37550   1.34580   -1.000
 5231.00    1.38389   1.35380   -1.000
 5232.00    1.37338   1.34647   84.076
 5233.00    1.34616   1.33546   83.657
 5234.00    1.34118   1.33351   81.627
 5235.00    1.36622   1.34598   79.750
 5236.00    1.39081   1.36780   78.977
 5237.00    1.40271   1.38922   78.978
 5238.00    1.39936   1.40359   79.220
 5239.00    1.40634   1.41010   79.028
 5240.00    1.41277   1.41137   78.584
 5241.00    1.40713   1.41045   78.722
 5242.00    1.40757   1.41006   78.542
 5243.00    1.41006   1.41178   78.547
 5244.00    1.40791   1.41323   80.306
 5245.00    1.40672   1.40907   82.840
 5246.00    1.38796   1.39723   84.593
 5247.00    1.36928   1.38184   84.693
 5248.00    1.36261   1.36907   84.881
 5249.00    1.35721   1.36188   85.381
 5250.00    1.35911   1.35994   84.851
 5251.00    1.35438   1.36212   83.650
 5252.00    1.36761   1.36653   82.911
 5253.00    1.37423   1.37041   82.931
 5254.00    1.37068   1.37365   82.184
 5255.00    1.37230   1.38025   80.151
 5256.00    1.39317   1.39289   78.082
 5257.00    1.41039   1.40794   77.597
 5258.00    1.42047   1.41728   78.522
 5259.00    1.42050   1.41367   80.865
 5260.00    1.39956   1.39459   84.414
 5261.00    1.36077   1.36287   88.383
 5262.00    1.32531   1.32502   91.270
 5263.00    1.30895   1.28897   92.942
 5264.00    1.29214   1.26249   -1.000
 5265.00    1.28069   1.25085   -1.000
 5266.00    1.29050   1.25181   -1.000
 5267.00    1.29981   1.25497   -1.000
 5268.00    1.29101   1.25095   -1.000
 5269.00    1.26932   1.24221   -1.000
 5270.00    1.26408   1.24262   87.598
 5271.00    1.29094   1.26137   84.185
 5272.00    1.33500   1.29061   -1.000
 5273.00    1.36334   1.31533   -1.000
 5274.00    1.36522   1.32984   -1.000
 5275.00    1.36144   1.34044   81.514
 5276.00    1.37023   1.35610   78.752
 5277.00    1.39704   1.37818   77.530
 5278.00    1.42167   1.39810   78.240
 5279.00    1.42653   1.40490   80.235
 5280.00    1.41270   1.39545   82.284
 5281.00    1.39027   1.37686   83.653
 5282.00    1.37067   1.35989   83.813
 5283.00    1.36279   1.35339   81.903
 5284.00    1.36643   1.36231   79.336
 5285.00    1.37480   1.38478   76.996
 5286.00    1.37557   1.41167   76.623
 5287.00    1.43566   1.43286   77.055
 5288.00    1.43581   1.44469   76.974
 5289.00    1.42972   1.45008   76.518
 5290.00    1.43751   1.45232   76.430
 5291.00    1.43611   1.45214   76.944
 5292.00    1.43545   1.44962   77.716
 5293.00    1.43142   1.44411   78.861
 5294.00    1.42489   1.43321   81.160
 5295.00    1.41378   1.41471   84.269
 5296.00    1.39294   1.39045   86.215
 5297.00    1.35965   1.36863   85.339
 5298.00    1.35485   1.35882   83.121
 5299.00    1.37523   1.36311   81.707
 5300.00    1.38898   1.37526   81.209
 5301.00    1.38462   1.38830   80.064
 5302.00    1.39737   1.40090   77.884
 5303.00    1.41206   1.41490   76.612
 5304.00    1.43134   1.42838   76.579
 5305.00    1.43904   1.43638   77.383
 5306.00    1.43658   1.43744   77.940
 5307.00    1.42529   1.43562   77.321
 5308.00    1.42911   1.43685   76.519
 5309.00    1.44983   1.44327   76.105
 5310.00    1.45182   1.45146   76.250
 5311.00    1.44621   1.45610   76.695
 5312.00    1.44608   1.45411   77.038
 5313.00    1.44651   1.44551   77.634
 5314.00    1.44217   1.43201   78.411
 5315.00    1.42445   1.41676   79.039
 5316.00    1.40205   1.40559   78.960
 5317.00    1.40300   1.40466   78.356
 5318.00    1.41941   1.41430   78.100
 5319.00    1.42910   1.42671   78.455
 5320.00    1.43038   1.43212   79.059
 5321.00    1.42083   1.42637   80.060
 5322.00    1.41458   1.41166   81.437
 5323.00    1.39993   1.39315   82.068
 5324.00    1.38612   1.37518   82.191
 5325.00    1.38715   1.35744   -1.000
 5326.00    1.36381   1.33543   -1.000
 5327.00    1.32742   1.30965   92.416
 5328.00    1.30193   1.29269   88.212
 5329.00    1.32200   1.29883   83.057
 5330.00    1.36694   1.32775   -1.000
 5331.00    1.39903   1.36379   -1.000
 5332.00    1.41138   1.39095   79.209
 5333.00    1.41933   1.40606   78.331
 5334.00    1.43226   1.41433   78.116
 5335.00    1.44181   1.41854   78.678
 5336.00    1.42777   1.41786   79.218
 5337.00    1.42184   1.41141   80.223
 5338.00    1.41847   1.39925   82.283
 5339.00    1.40463   1.38389   83.468
 5340.00    1.38049   1.37215   82.470
 5341.00    1.38179   1.37178   80.208
 5342.00    1.41173   1.38397   78.969
 5343.00    1.43041   1.40020   -1.000
 5344.00    1.43921   1.40944   -1.000
 5345.00    1.42612   1.40821   80.163
 5346.00    1.42221   1.40107   80.579
 5347.00    1.41149   1.39423   81.282
 5348.00    1.40697   1.39147   81.288
 5349.00    1.41098   1.39424   79.862
 5350.00    1.41326   1.40283   78.049
 5351.00    1.43145   1.41539   77.215
 5352.00    1.43660   1.42773   76.980
 5353.00    1.44077   1.43721   76.304
 5354.00    1.45508   1.44536   75.341
 5355.00    1.46711   1.45424   74.871
 5356.00    1.46937   1.46273   74.988
 5357.00    1.47514   1.46811   75.120
 5358.00    1.47536   1.46890   75.468
 5359.00    1.47184   1.46510   76.440
 5360.00    1.46431   1.45644   77.737
 5361.00    1.44379   1.44292   78.802
 5362.00    1.42813   1.42677   79.302
 5363.00    1.41839   1.41196   79.760
 5364.00    1.41358   1.40169   80.167
 5365.00    1.41126   1.39687   79.889
 5366.00    1.41763   1.39555   79.993
 5367.00    1.41531   1.39322   80.991
 5368.00    1.41184   1.38493   83.151
 5369.00    1.39871   1.36906   -1.000
 5370.00    1.37724   1.35097   85.196
 5371.00    1.36446   1.34201   81.744
 5372.00    1.37744   1.35141   78.113
 5373.00    1.41745   1.37795   -1.000
 5374.00    1.45117   1.41012   -1.000
 5375.00    1.46809   1.43530   -1.000
 5376.00    1.47241   1.44822   76.367
 5377.00    1.46226   1.45061   76.560
 5378.00    1.46201   1.44661   77.061
 5379.00    1.45295   1.43951   77.849
 5380.00    1.44253   1.43123   78.574
 5381.00    1.43679   1.42307   78.880
 5382.00    1.42211   1.41675   78.761
 5383.00    1.42728   1.41518   78.312
 5384.00    1.43968   1.42067   77.507
 5385.00    1.44883   1.43158   77.467
 5386.00    1.45857   1.44205   77.897
 5387.00    1.45549   1.44637   78.732
 5388.00    1.44963   1.44292   79.940
 5389.00    1.44086   1.43383   80.748
 5390.00    1.42816   1.42254   81.032
 5391.00    1.42511   1.41166   81.071
 5392.00    1.41854   1.40268   81.378
 5393.00    1.41105   1.39607   82.063
 5394.00    1.40440   1.38993   83.251
 5395.00    1.40104   1.38095   84.810
 5396.00    1.39804   1.36978   -1.000
 5397.00    1.38900   1.36282   81.735
 5398.00    1.39966   1.36691   -1.000
 5399.00    1.41346   1.38154   -1.000
 5400.00    1.42448   1.39792   79.595
 5401.00    1.43304   1.40637   80.463
 5402.00    1.42407   1.40152   83.091
 5403.00    1.40344   1.38361   85.644
 5404.00    1.37588   1.36018   86.555
 5405.00    1.36347   1.34345   85.342
 5406.00    1.37606   1.34107   -1.000
 5407.00    1.39869   1.34998   -1.000
 5408.00    1.40987   1.36004   -1.000
 5409.00    1.39855   1.36500   -1.000
 5410.00    1.39085   1.36875   80.806
 5411.00    1.39724   1.37774   79.080
 5412.00    1.41772   1.39145   78.438
 5413.00    1.43552   1.40356   78.551
 5414.00    1.44202   1.41078   78.508
 5415.00    1.43437   1.41664   77.875
 5416.00    1.43856   1.42496   77.487
 5417.00    1.44714   1.43412   77.928
 5418.00    1.44814   1.44007   78.704
 5419.00    1.44742   1.44101   79.052
 5420.00    1.43716   1.43820   78.667
 5421.00    1.44310   1.43293   78.522
 5422.00    1.44160   1.42531   79.706
 5423.00    1.43559   1.41703   80.203
 5424.00    1.42841   1.41289   79.155
 5425.00    1.42840   1.41697   77.965
 5426.00    1.43987   1.42578   78.576
 5427.00    1.44483   1.42826   80.960
 5428.00    1.42460   1.41805   83.291
 5429.00    1.39825   1.40150   83.019
 5430.00    1.38998   1.39047   81.575
 5431.00    1.40795   1.38928   81.818
 5432.00    1.42393   1.39126   -1.000
 5433.00    1.41035   1.38959   83.839
 5434.00    1.39299   1.38665   83.255
 5435.00    1.39374   1.39047   81.409
 5436.00    1.41313   1.40574   79.179
 5437.00    1.43505   1.42887   77.639
 5438.00    1.45275   1.45119   76.650
 5439.00    1.46925   1.46634   76.110
 5440.00    1.47801   1.47396   76.038
 5441.00    1.47920   1.47631   76.139
 5442.00    1.47677   1.47296   77.167
 5443.00    1.46416   1.46076   79.475
 5444.00    1.44243   1.43825   82.789
 5445.00    1.41070   1.41036   85.042
 5446.00    1.38270   1.38824   83.859
 5447.00    1.38463   1.38252   81.035
 5448.00    1.41046   1.39539   79.001
 5449.00    1.44239   1.41850   78.468
 5450.00    1.46418   1.43984   78.618
 5451.00    1.46972   1.45106   79.490
 5452.00    1.46601   1.44867   81.508
 5453.00    1.45516   1.43373   83.821
 5454.00    1.42127   1.41258   85.200
 5455.00    1.39213   1.39663   83.477
 5456.00    1.40073   1.39683   80.526
 5457.00    1.43629   1.41392   78.612
 5458.00    1.46449   1.43666   78.488
 5459.00    1.46873   1.45154   79.596
 5460.00    1.47131   1.45215   81.090
 5461.00    1.45878   1.44108   82.061
 5462.00    1.43606   1.42674   82.266
 5463.00    1.43153   1.41827   81.121
 5464.00    1.44105   1.41998   80.264
 5465.00    1.44702   1.42920   79.868
 5466.00    1.45962   1.43998   78.996
 5467.00    1.46769   1.44850   78.859
 5468.00    1.47094   1.45398   79.709
 5469.00    1.46634   1.45596   80.471
 5470.00    1.46576   1.45404   80.721
 5471.00    1.45760   1.44893   81.206
 5472.00    1.45959   1.44137   82.118
 5473.00    1.45071   1.43082   83.391
 5474.00    1.43368   1.41622   85.174
 5475.00    1.41685   1.39919   86.177
 5476.00    1.39608   1.38613   84.951
 5477.00    1.39938   1.38438   82.326
 5478.00    1.42177   1.39527   81.147
 5479.00    1.44134   1.41134   -1.000
 5480.00    1.43966   1.42278   82.900
 5481.00    1.43741   1.42741   82.455
 5482.00    1.43553   1.43087   80.868
 5483.00    1.43916   1.43812   79.323
 5484.00    1.45159   1.44775   78.914
 5485.00    1.45928   1.45399   79.861
 5486.00    1.45594   1.45331   80.947
 5487.00    1.44417   1.44817   81.289
 5488.00    1.44161   1.44420   81.189
 5489.00    1.44927   1.44472   80.560
 5490.00    1.45679   1.44860   80.014
 5491.00    1.46061   1.45290   79.809
 5492.00    1.45711   1.45573   80.010
 5493.00    1.45752   1.45693   80.016
 5494.00    1.46338   1.45660   80.082
 5495.00    1.46739   1.45383   80.726
 5496.00    1.45887   1.44847   81.150
 5497.00    1.43999   1.44286   80.551
 5498.00    1.44406   1.43977   79.809
 5499.00    1.45550   1.43868   80.690
 5500.00    1.45742   1.43590   81.888
 5501.00    1.44909   1.43035   81.797
 5502.00    1.44701   1.42581   81.123
 5503.00    1.44993   1.42466   81.181
 5504.00    1.45631   1.42404   -1.000
 5505.00    1.45227   1.42060   -1.000
 5506.00    1.44117   1.41582   81.936
 5507.00    1.43845   1.41500   80.705
 5508.00    1.44514   1.42039   80.576
 5509.00    1.45475   1.42771   -1.000
 5510.00    1.45459   1.43042   82.996
 5511.00    1.44637   1.42573   84.246
 5512.00    1.42443   1.41712   84.691
 5513.00    1.42385   1.41153   83.455
 5514.00    1.43686   1.41385   81.986
 5515.00    1.45220   1.42369   -1.000
 5516.00    1.46687   1.43734   -1.000
 5517.00    1.47084   1.45126   78.061
 5518.00    1.48538   1.46304   78.016
 5519.00    1.49272   1.47089   78.161
 5520.00    1.48521   1.47417   78.335
 5521.00    1.49381   1.47390   78.600
 5522.00    1.48987   1.47164   78.767
 5523.00    1.47862   1.46725   79.361
 5524.00    1.47784   1.45833   80.604
 5525.00    1.47252   1.44278   -1.000
 5526.00    1.45235   1.42226   -1.000
 5527.00    1.41498   1.40365   84.471
 5528.00    1.40318   1.39607   82.380
 5529.00    1.42696   1.40440   80.333
 5530.00    1.45602   1.42386   -1.000
 5531.00    1.46823   1.44249   79.921
 5532.00    1.46708   1.45104   80.671
 5533.00    1.46344   1.44932   80.929
 5534.00    1.45261   1.44373   80.535
 5535.00    1.44860   1.44116   79.906
 5536.00    1.45542   1.44441   79.736
 5537.00    1.46834   1.45123   79.304
 5538.00    1.47890   1.45808   78.510
 5539.00    1.48393   1.46393   78.000
 5540.00    1.49151   1.46867   78.211
 5541.00    1.48740   1.47030   79.090
 5542.00    1.47827   1.46731   79.796
 5543.00    1.46861   1.46186   79.882
 5544.00    1.46350   1.45823   79.628
 5545.00    1.47393   1.45870   79.409
 5546.00    1.47971   1.46245   78.832
 5547.00    1.48479   1.46804   78.041
 5548.00    1.49245   1.47467   77.472
 5549.00    1.50252   1.48086   77.425
 5550.00    1.49864   1.48454   77.932
 5551.00    1.49287   1.48458   78.668
 5552.00    1.49586   1.48127   79.516
 5553.00    1.48902   1.47628   79.770
 5554.00    1.48012   1.47242   79.588
 5555.00    1.48462   1.47175   79.343
 5556.00    1.48482   1.47377   79.226
 5557.00    1.48668   1.47644   79.131
 5558.00    1.49018   1.47836   79.085
 5559.00    1.50086   1.47874   79.316
 5560.00    1.49826   1.47662   79.806
 5561.00    1.49227   1.47165   80.623
 5562.00    1.48793   1.46513   81.107
 5563.00    1.46913   1.45925   81.297
 5564.00    1.45979   1.45521   81.447
 5565.00    1.46961   1.45267   81.485
 5566.00    1.46914   1.45068   81.289
 5567.00    1.47008   1.44855   81.181
 5568.00    1.46913   1.44609   81.414
 5569.00    1.45298   1.44341   81.331
 5570.00    1.44943   1.44057   81.385
 5571.00    1.44366   1.43761   81.557
 5572.00    1.41214   1.43552   81.065
 5573.00    1.29053   1.43623   -1.000
 5574.00    1.01555   1.44036   -1.000
 5575.00    1.02249   1.44596   -1.000
 5576.00    1.19492   1.45153   -1.000
 5577.00    1.48084   1.45759   79.094
 5578.00    1.95636   1.46394   -1.000
 5579.00    1.95222   1.46853   -1.000
 5580.00    1.61544   1.46988   -1.000
 5581.00    1.49717   1.46879   -1.000
 5582.00    1.48756   1.46704   80.206
 5583.00    1.47792   1.46453   80.932
 5584.00    1.48657   1.45784   -1.000
 5585.00    1.46860   1.44261   -1.000
 5586.00    1.43225   1.41942   86.683
 5587.00    1.41257   1.39640   86.951
 5588.00    1.40869   1.38329   85.682
 5589.00    1.41405   1.38428   -1.000
 5590.00    1.42646   1.39635   -1.000
 5591.00    1.44116   1.41178   -1.000
 5592.00    1.44525   1.42319   83.331
 5593.00    1.44833   1.42869   82.629
 5594.00    1.44771   1.43192   81.451
 5595.00    1.45114   1.43627   81.060
 5596.00    1.46410   1.44028   82.075
 5597.00    1.46609   1.43983   -1.000
 5598.00    1.45419   1.43436   84.157
 5599.00    1.44662   1.42733   84.098
 5600.00    1.44591   1.42072   -1.000
 5601.00    1.44253   1.41536   -1.000
 5602.00    1.42718   1.41547   83.009
 5603.00    1.43696   1.42600   80.713
 5604.00    1.46564   1.44647   79.053
 5605.00    1.49177   1.47037   78.318
 5606.00    1.50504   1.49013   78.266
 5607.00    1.51194   1.50222   78.414
 5608.00    1.51428   1.50773   78.539
 5609.00    1.51437   1.50962   78.407
 5610.00    1.51215   1.51000   78.246
 5611.00    1.50911   1.50781   78.885
 5612.00    1.50525   1.49882   80.827
 5613.00    1.49360   1.47984   83.615
 5614.00    1.46638   1.45424   85.013
 5615.00    1.44163   1.43273   83.834
 5616.00    1.44289   1.42640   81.845
 5617.00    1.46480   1.43640   -1.000
 5618.00    1.48364   1.45355   -1.000
 5619.00    1.48953   1.46854   80.434
 5620.00    1.49192   1.47774   80.154
 5621.00    1.49682   1.48086   80.782
 5622.00    1.49522   1.47781   82.500
 5623.00    1.48185   1.46956   83.693
 5624.00    1.46708   1.46071   82.960
 5625.00    1.46496   1.45764   81.497
 5626.00    1.47476   1.46312   80.388
 5627.00    1.48973   1.47457   79.534
 5628.00    1.50778   1.48703   79.041
 5629.00    1.51981   1.49679   78.837
 5630.00    1.52316   1.50217   78.572
 5631.00    1.51978   1.50252   78.789
 5632.00    1.51708   1.49857   79.455
 5633.00    1.50815   1.49259   80.003
 5634.00    1.50935   1.48657   80.515
 5635.00    1.49639   1.48119   81.112
 5636.00    1.48245   1.47664   81.564
 5637.00    1.48962   1.47342   81.498
 5638.00    1.49461   1.47187   81.468
 5639.00    1.49093   1.47115   81.747
 5640.00    1.48668   1.47018   81.698
 5641.00    1.48709   1.46959   81.324
 5642.00    1.49090   1.47076   80.986
 5643.00    1.48563   1.47357   80.809
 5644.00    1.48928   1.47700   80.250
 5645.00    1.49116   1.48049   80.070
 5646.00    1.49897   1.48355   79.874
 5647.00    1.50282   1.48535   79.820
 5648.00    1.51163   1.48539   -1.000
 5649.00    1.50453   1.48432   79.874
 5650.00    1.49876   1.48358   79.244
 5651.00    1.50536   1.48374   79.175
 5652.00    1.51037   1.48355   -1.000
 5653.00    1.50307   1.48108   80.286
 5654.00    1.50195   1.47500   -1.000
 5655.00    1.49565   1.46466   -1.000
 5656.00    1.47710   1.45024   -1.000
 5657.00    1.45118   1.43466   86.259
 5658.00    1.43781   1.42429   84.632
 5659.00    1.44100   1.42389   83.000
 5660.00    1.45712   1.43147   -1.000
 5661.00    1.46603   1.44103   -1.000
 5662.00    1.46864   1.44917   81.817
 5663.00    1.47330   1.45691   80.786
 5664.00    1.48498   1.46561   80.689
 5665.00    1.49607   1.47301   81.204
 5666.00    1.48818   1.47598   81.621
 5667.00    1.48370   1.47512   81.623
 5668.00    1.49465   1.47401   81.327
 5669.00    1.50043   1.47558   80.733
 5670.00    1.49790   1.48025   79.994
 5671.00    1.49926   1.48652   79.185
 5672.00    1.50766   1.49241   78.567
 5673.00    1.51459   1.49648   78.717
 5674.00    1.52110   1.49824   78.907
 5675.00    1.51934   1.49840   78.620
 5676.00    1.51063   1.49831   78.611
 5677.00    1.51504   1.49829   79.057
 5678.00    1.51747   1.49711   79.389
 5679.00    1.51233   1.49295   79.961
 5680.00    1.50526   1.48474   80.954
 5681.00    1.49772   1.47343   81.772
 5682.00    1.48561   1.46230   81.745
 5683.00    1.47458   1.45538   81.225
 5684.00    1.47730   1.45444   81.018
 5685.00    1.48463   1.45699   -1.000
 5686.00    1.48306   1.45842   -1.000
 5687.00    1.46887   1.45720   82.452
 5688.00    1.46998   1.45644   81.290
 5689.00    1.48123   1.46007   79.866
 5690.00    1.49207   1.46874   79.245
 5691.00    1.50812   1.47940   -1.000
 5692.00    1.51696   1.48853   -1.000
 5693.00    1.51974   1.49465   78.879
 5694.00    1.52048   1.49798   78.963
 5695.00    1.51648   1.49897   79.313
 5696.00    1.50880   1.49779   80.189
 5697.00    1.50479   1.49428   81.089
 5698.00    1.49403   1.48824   81.805
 5699.00    1.49143   1.48045   82.616
 5700.00    1.48237   1.47308   82.743
 5701.00    1.47146   1.46866   81.971
 5702.00    1.46636   1.46826   81.218
 5703.00    1.47910   1.47030   81.238
 5704.00    1.48045   1.47122   81.978
 5705.00    1.47523   1.46780   83.277
 5706.00    1.46686   1.45925   84.825
 5707.00    1.45752   1.44689   85.956
 5708.00    1.44492   1.43353   86.227
 5709.00    1.42769   1.42355   85.821
 5710.00    1.42795   1.42130   84.695
 5711.00    1.43874   1.42860   82.784
 5712.00    1.45527   1.44376   80.852
 5713.00    1.47996   1.46211   79.889
 5714.00    1.50005   1.47810   79.723
 5715.00    1.51088   1.48861   79.536
 5716.00    1.51214   1.49451   79.249
 5717.00    1.51275   1.49852   78.819
 5718.00    1.51653   1.50265   78.323
 5719.00    1.51825   1.50758   78.010
 5720.00    1.52137   1.51285   77.855
 5721.00    1.52663   1.51740   77.745
 5722.00    1.53132   1.52041   77.708
 5723.00    1.53224   1.52156   78.018
 5724.00    1.52870   1.52044   78.764
 5725.00    1.52477   1.51669   79.574
 5726.00    1.51813   1.51127   79.973
 5727.00    1.51090   1.50668   79.409
 5728.00    1.51460   1.50489   79.076
 5729.00    1.52377   1.50540   79.413
 5730.00    1.52018   1.50606   79.694
 5731.00    1.51212   1.50594   79.214
 5732.00    1.51972   1.50656   78.446
 5733.00    1.52293   1.50963   78.099
 5734.00    1.52751   1.51468   78.236
 5735.00    1.53414   1.51937   78.352
 5736.00    1.52872   1.52192   78.574
 5737.00    1.52293   1.52227   78.629
 5738.00    1.51839   1.52146   78.808
 5739.00    1.52149   1.52046   78.928
 5740.00    1.52262   1.51941   79.044
 5741.00    1.52151   1.51812   78.832
 5742.00    1.51504   1.51723   78.677
 5743.00    1.51546   1.51773   78.061
 5744.00    1.51860   1.51935   77.836
 5745.00    1.52261   1.52028   78.432
 5746.00    1.52917   1.51921   79.151
 5747.00    1.52100   1.51724   79.235
 5748.00    1.51619   1.51646   78.728
 5749.00    1.52047   1.51666   78.696
 5750.00    1.52705   1.51463   79.485
 5751.00    1.52435   1.50779   80.451
 5752.00    1.50515   1.49798   81.067
 5753.00    1.49328   1.49075   80.748
 5754.00    1.49122   1.49107   79.511
 5755.00    1.50414   1.49939   78.099
 5756.00    1.51981   1.51142   77.478
 5757.00    1.52813   1.52139   77.972
 5758.00    1.53152   1.52551   78.940
 5759.00    1.52827   1.52306   79.997
 5760.00    1.52048   1.51557   80.957
 5761.00    1.51081   1.50620   81.015
 5762.00    1.50756   1.49979   79.884
 5763.00    1.50535   1.50064   78.496
 5764.00    1.51107   1.50904   77.741
 5765.00    1.52645   1.52063   77.608
 5766.00    1.54094   1.52984   77.527
 5767.00    1.54105   1.53421   77.446
 5768.00    1.53249   1.53482   77.661
 5769.00    1.52538   1.53341   77.961
 5770.00    1.52319   1.53045   78.427
 5771.00    1.52622   1.52589   78.858
 5772.00    1.51787   1.52051   78.999
 5773.00    1.51191   1.51601   79.036
 5774.00    1.51062   1.51379   78.792
 5775.00    1.49749   1.51399   78.438
 5776.00    1.48999   1.51513   78.471
 5777.00    1.48228   1.51408   78.934
 5778.00    1.46051   1.50809   80.319
 5779.00    1.45148   1.49760   82.047
 5780.00    1.45312   1.48631   82.765
 5781.00    1.46599   1.47834   82.457
 5782.00    1.48021   1.47560   82.137
 5783.00    1.48470   1.47707   81.845
 5784.00    1.48602   1.48055   81.416
 5785.00    1.49310   1.48524   80.400
 5786.00    1.50371   1.49195   79.414
 5787.00    1.51300   1.50008   79.001
 5788.00    1.52006   1.50641   79.215
 5789.00    1.52409   1.50842   79.497
 5790.00    1.52188   1.50729   79.208
 5791.00    1.51860   1.50679   78.524
 5792.00    1.51916   1.50964   78.019
 5793.00    1.51764   1.51549   77.639
 5794.00    1.52940   1.52191   77.739
 5795.00    1.53167   1.52619   78.265
 5796.00    1.52100   1.52688   78.580
 5797.00    1.52226   1.52523   77.977
 5798.00    1.52219   1.52449   76.908
 5799.00    1.53635   1.52669   76.032
 5800.00    1.54866   1.53089   76.120
 5801.00    1.54991   1.53454   76.829
 5802.00    1.55058   1.53550   77.419
 5803.00    1.53962   1.53318   77.998
 5804.00    1.53507   1.52908   78.202
 5805.00    1.53303   1.52588   77.945
 5806.00    1.53167   1.52533   77.658
 5807.00    1.53373   1.52711   77.482
 5808.00    1.53789   1.52983   77.487
 5809.00    1.54431   1.53262   77.354
 5810.00    1.54526   1.53502   77.053
 5811.00    1.55140   1.53634   76.917
 5812.00    1.55696   1.53590   77.214
 5813.00    1.55615   1.53356   77.848
 5814.00    1.55089   1.52982   78.006
 5815.00    1.55313   1.52618   -1.000
 5816.00    1.55317   1.52521   -1.000
 5817.00    1.55008   1.52847   76.585
 5818.00    1.55625   1.53455   76.236
 5819.00    1.56270   1.54026   76.076
 5820.00    1.56425   1.54370   76.270
 5821.00    1.56509   1.54522   76.465
 5822.00    1.57044   1.54606   76.286
 5823.00    1.57053   1.54678   76.177
 5824.00    1.56683   1.54725   76.044
 5825.00    1.57028   1.54754   76.000
 5826.00    1.57204   1.54806   76.059
 5827.00    1.57325   1.54889   76.161
 5828.00    1.57244   1.54960   76.010
 5829.00    1.57063   1.54973   76.028
 5830.00    1.57125   1.54935   75.960
 5831.00    1.56757   1.54865   76.223
 5832.00    1.56567   1.54759   76.688
 5833.00    1.57629   1.54619   -1.000
 5834.00    1.57070   1.54506   -1.000
 5835.00    1.57059   1.54519   76.366
 5836.00    1.57193   1.54682   76.640
 5837.00    1.56514   1.54882   76.709
 5838.00    1.56533   1.55007   76.348
 5839.00    1.56674   1.55072   75.790
 5840.00    1.56903   1.55136   75.508
 5841.00    1.56892   1.55170   75.619
 5842.00    1.56903   1.55097   75.902
 5843.00    1.56945   1.54880   76.246
 5844.00    1.56673   1.54531   76.754
 5845.00    1.56393   1.54098   77.117
 5846.00    1.55377   1.53711   77.398
 5847.00    1.55340   1.53513   77.304
 5848.00    1.55391   1.53490   77.532
 5849.00    1.55893   1.53424   -1.000
 5850.00    1.56327   1.53083   -1.000
 5851.00    1.55087   1.52421   -1.000
 5852.00    1.54114   1.51607   -1.000
 5853.00    1.53642   1.50853   -1.000
 5854.00    1.52805   1.50189   -1.000
 5855.00    1.52636   1.49406   -1.000
 5856.00    1.52371   1.48394   -1.000
 5857.00    1.52316   1.47531   -1.000
 5858.00    1.52775   1.47419   -1.000
 5859.00    1.53403   1.48193   -1.000
 5860.00    1.54463   1.49404   -1.000
 5861.00    1.54641   1.50520   -1.000
 5862.00    1.54919   1.51339   -1.000
 5863.00    1.55169   1.51885   -1.000
 5864.00    1.55256   1.52112   -1.000
 5865.00    1.54980   1.51970   -1.000
 5866.00    1.54554   1.51644   -1.000
 5867.00    1.55051   1.51520   -1.000
 5868.00    1.56062   1.51867   -1.000
 5869.00    1.56311   1.52591   -1.000
 5870.00    1.56586   1.53314   -1.000
 5871.00    1.56764   1.53691   -1.000
 5872.00    1.56655   1.53633   -1.000
 5873.00    1.56385   1.53278   -1.000
 5874.00    1.56293   1.52832   -1.000
 5875.00    1.56461   1.52458   -1.000
 5876.00    1.56587   1.52209   -1.000
 5877.00    1.56329   1.52024   -1.000
 5878.00    1.55437   1.51810   -1.000
 5879.00    1.54964   1.51521   -1.000
 5880.00    1.54528   1.51146   -1.000
 5881.00    1.54174   1.50652   -1.000
 5882.00    1.54102   1.50019   -1.000
 5883.00    1.53394   1.49297   -1.000
 5884.00    1.52424   1.48535   -1.000
 5885.00    1.49070   1.47465   81.499
 5886.00    1.42084   1.45286   85.188
 5887.00    1.31605   1.41205   -1.000
 5888.00    1.22358   1.35580   -1.000
 5889.00    1.22311   1.30470   -1.000
 5890.00    1.29343   1.28276   92.839
 5891.00    1.37045   1.29394   -1.000
 5892.00    1.38377   1.31812   -1.000
 5893.00    1.34131   1.33114   90.231
 5894.00    1.29310   1.32513   92.297
 5895.00    1.29985   1.31205   91.063
 5896.00    1.35463   1.31151   -1.000
 5897.00    1.42271   1.33338   -1.000
 5898.00    1.47681   1.37022   -1.000
 5899.00    1.49980   1.40810   -1.000
 5900.00    1.51715   1.43955   -1.000
 5901.00    1.52946   1.46384   -1.000
 5902.00    1.53505   1.48119   -1.000
 5903.00    1.54281   1.49187   -1.000
 5904.00    1.54381   1.49757   -1.000
 5905.00    1.54517   1.50095   -1.000
 5906.00    1.54796   1.50390   -1.000
 5907.00    1.54924   1.50681   -1.000
 5908.00    1.54685   1.50934   -1.000
 5909.00    1.54341   1.51127   -1.000
 5910.00    1.54536   1.51211   -1.000
 5911.00    1.54299   1.51046   -1.000
 5912.00    1.53894   1.50502   -1.000
 5913.00    1.52654   1.49707   -1.000
 5914.00    1.51491   1.49019   -1.000
 5915.00    1.51412   1.48742   -1.000
 5916.00    1.51408   1.48944   -1.000
 5917.00    1.51678   1.49500   80.568
 5918.00    1.53001   1.50182   -1.000
 5919.00    1.52787   1.50736   80.133
 5920.00    1.53581   1.51036   -1.000
 5921.00    1.53551   1.51125   -1.000
 5922.00    1.53638   1.51158   -1.000
 5923.00    1.53859   1.51278   -1.000
 5924.00    1.54550   1.51522   -1.000
 5925.00    1.55568   1.51782   -1.000
 5926.00    1.55885   1.51830   -1.000
 5927.00    1.55959   1.51485   -1.000
 5928.00    1.55035   1.50830   -1.000
 5929.00    1.53918   1.50239   -1.000
 5930.00    1.53584   1.50100   -1.000
 5931.00    1.53795   1.50441   -1.000
 5932.00    1.54379   1.50894   -1.000
 5933.00    1.54729   1.51153   -1.000
 5934.00    1.54226   1.51295   -1.000
 5935.00    1.53823   1.51550   -1.000
 5936.00    1.54201   1.51968   -1.000
 5937.00    1.54245   1.52353   79.430
 5938.00    1.54155   1.52455   79.919
 5939.00    1.53673   1.52203   80.713
 5940.00    1.52525   1.51764   80.971
 5941.00    1.52533   1.51418   80.757
 5942.00    1.52842   1.51337   80.237
 5943.00    1.52694   1.51481   79.813
 5944.00    1.53270   1.51678   79.652
 5945.00    1.53419   1.51750   80.068
 5946.00    1.53943   1.51585   -1.000
 5947.00    1.53293   1.51232   81.571
 5948.00    1.51997   1.50925   81.511
 5949.00    1.52152   1.50874   81.063
 5950.00    1.52977   1.51025   80.915
 5951.00    1.53210   1.51122   -1.000
 5952.00    1.52721   1.51067   80.981
 5953.00    1.53254   1.51001   -1.000
 5954.00    1.53900   1.50967   -1.000
 5955.00    1.53646   1.50866   -1.000
 5956.00    1.52747   1.50743   81.278
 5957.00    1.53087   1.50812   -1.000
 5958.00    1.53784   1.51226   -1.000
 5959.00    1.54674   1.51890   -1.000
 5960.00    1.55894   1.52536   -1.000
 5961.00    1.55411   1.52963   -1.000
 5962.00    1.55669   1.53108   -1.000
 5963.00    1.55583   1.52996   -1.000
 5964.00    1.55185   1.52704   -1.000
 5965.00    1.54414   1.52381   80.096
 5966.00    1.53978   1.52198   79.736
 5967.00    1.54498   1.52256   79.189
 5968.00    1.55449   1.52534   -1.000
 5969.00    1.55717   1.52950   -1.000
 5970.00    1.55539   1.53365   78.879
 5971.00    1.56193   1.53610   -1.000
 5972.00    1.56087   1.53559   -1.000
 5973.00    1.55401   1.53169   -1.000
 5974.00    1.54195   1.52510   80.726
 5975.00    1.52881   1.51781   81.243
 5976.00    1.53039   1.51268   81.391
 5977.00    1.53257   1.51200   80.849
 5978.00    1.53439   1.51582   80.229
 5979.00    1.54263   1.52177   -1.000
 5980.00    1.54944   1.52607   -1.000
 5981.00    1.55251   1.52559   -1.000
 5982.00    1.54472   1.51992   -1.000
 5983.00    1.53338   1.51204   -1.000
 5984.00    1.52505   1.50645   81.488
 5985.00    1.52439   1.50579   80.670
 5986.00    1.53456   1.50943   -1.000
 5987.00    1.53905   1.51490   -1.000
 5988.00    1.54693   1.51990   -1.000
 5989.00    1.54623   1.52313   -1.000
 5990.00    1.54729   1.52474   -1.000
 5991.00    1.54786   1.52624   79.437
 5992.00    1.54765   1.52932   78.865
 5993.00    1.55675   1.53319   -1.000
 5994.00    1.55499   1.53494   79.545
 5995.00    1.54940   1.53306   80.030
 5996.00    1.55309   1.52906   -1.000
 5997.00    1.55206   1.52574   -1.000
 5998.00    1.54799   1.52457   -1.000
 5999.00    1.54918   1.52487   -1.000
 6000.00    1.54757   1.52486   -1.000
 6001.00    1.54745   1.52341   -1.000
 6002.00    1.54481   1.52112   -1.000
 6003.00    1.53770   1.51956   80.816
 6004.00    1.53895   1.51898   -1.000
 6005.00    1.53399   1.51721   81.760
 6006.00    1.52499   1.51242   82.386
 6007.00    1.51905   1.50662   82.015
 6008.00    1.51485   1.50440   80.998
 6009.00    1.52079   1.50829   80.420
 6010.00    1.53771   1.51546   -1.000
 6011.00    1.54579   1.52048   -1.000
 6012.00    1.54252   1.52121   -1.000
 6013.00    1.53705   1.51933   81.115
 6014.00    1.54357   1.51740   -1.000
 6015.00    1.54631   1.51631   -1.000
 6016.00    1.54087   1.51555   -1.000
 6017.00    1.54259   1.51430   -1.000
 6018.00    1.54251   1.51181   -1.000
 6019.00    1.54150   1.50801   -1.000
 6020.00    1.53057   1.50424   -1.000
 6021.00    1.52713   1.50263   -1.000
 6022.00    1.52446   1.50360   -1.000
 6023.00    1.52284   1.50652   80.948
 6024.00    1.53297   1.51164   -1.000
 6025.00    1.54631   1.51874   -1.000
 6026.00    1.55196   1.52587   -1.000
 6027.00    1.55094   1.53178   79.444
 6028.00    1.55658   1.53673   79.394
 6029.00    1.56243   1.54094   -1.000
 6030.00    1.56361   1.54412   79.588
 6031.00    1.55709   1.54636   79.341
 6032.00    1.55458   1.54820   79.009
 6033.00    1.56574   1.54998   78.876
 6034.00    1.56722   1.55145   78.828
 6035.00    1.57135   1.55204   78.726
 6036.00    1.56423   1.55162   78.945
 6037.00    1.56530   1.55014   79.359
 6038.00    1.56559   1.54749   79.500
 6039.00    1.56046   1.54398   79.657
 6040.00    1.55795   1.54054   79.447
 6041.00    1.55844   1.53846   79.275
 6042.00    1.56119   1.53865   -1.000
 6043.00    1.56156   1.54114   78.298
 6044.00    1.56132   1.54494   78.424
 6045.00    1.56856   1.54878   78.383
 6046.00    1.57397   1.55237   -1.000
 6047.00    1.57256   1.55573   78.456
 6048.00    1.57787   1.55830   78.725
 6049.00    1.57255   1.55944   78.856
 6050.00    1.57101   1.55909   78.939
 6051.00    1.57182   1.55743   79.149
 6052.00    1.56398   1.55402   79.471
 6053.00    1.56058   1.54868   79.755
 6054.00    1.56460   1.54263   -1.000
 6055.00    1.56405   1.53818   -1.000
 6056.00    1.56017   1.53711   -1.000
 6057.00    1.55524   1.53950   79.571
 6058.00    1.55961   1.54354   79.308
 6059.00    1.56473   1.54715   79.486
 6060.00    1.56654   1.54877   79.931
 6061.00    1.56035   1.54703   81.316
 6062.00    1.53491   1.54105   81.724
 6063.00    1.48747   1.53146   88.154
 6064.00    1.52829   1.52177   64.115
 6065.00    1.76228   1.51754   -1.000
 6066.00    1.83384   1.52153   -1.000
 6067.00    1.53113   1.53125   79.489
 6068.00    1.44139   1.54214   -1.000
 6069.00    1.51561   1.55074   76.957
 6070.00    1.52707   1.55613   76.814
 6071.00    1.61369   1.55920   -1.000
 6072.00    1.60006   1.56117   -1.000
 6073.00    1.57567   1.56245   78.804
 6074.00    1.57592   1.56240   79.136
 6075.00    1.56859   1.56020   79.573
 6076.00    1.56954   1.55570   80.077
 6077.00    1.56472   1.54956   80.683
 6078.00    1.55649   1.54378   81.032
 6079.00    1.55051   1.54021   81.036
 6080.00    1.54847   1.53826   81.166
 6081.00    1.54883   1.53631   81.350
 6082.00    1.54853   1.53383   81.298
 6083.00    1.54426   1.53160   81.230
 6084.00    1.54559   1.53101   81.099
 6085.00    1.54677   1.53303   80.820
 6086.00    1.54527   1.53698   80.622
 6087.00    1.54909   1.54058   80.930
 6088.00    1.55315   1.54195   81.411
 6089.00    1.54861   1.54117   81.625
 6090.00    1.54528   1.53962   81.407
 6091.00    1.54414   1.53900   80.868
 6092.00    1.54606   1.54022   80.470
 6093.00    1.54891   1.54320   80.034
 6094.00    1.55819   1.54702   79.807
 6095.00    1.56245   1.55082   79.924
 6096.00    1.56165   1.55399   80.096
 6097.00    1.56011   1.55552   80.115
 6098.00    1.55747   1.55356   80.387
 6099.00    1.55251   1.54540   81.741
 6100.00    1.54349   1.52983   83.660
 6101.00    1.52955   1.51038   -1.000
 6102.00    1.50594   1.49576   83.264
 6103.00    1.50918   1.49416   81.687
 6104.00    1.52488   1.50505   80.772
 6105.00    1.53952   1.52093   -1.000
 6106.00    1.54415   1.53485   81.082
 6107.00    1.54469   1.54445   81.196
 6108.00    1.54665   1.55071   81.099
 6109.00    1.55009   1.55466   80.859
 6110.00    1.54241   1.55674   80.581
 6111.00    1.54781   1.55777   80.487
 6112.00    1.55156   1.55874   80.073
 6113.00    1.55004   1.55997   80.057
 6114.00    1.55598   1.56094   80.480
 6115.00    1.55118   1.56091   80.912
 6116.00    1.54873   1.55978   81.056
 6117.00    1.54823   1.55702   81.711
 6118.00    1.55070   1.55048   82.945
 6119.00    1.53885   1.53784   83.915
 6120.00    1.52040   1.51939   84.478
 6121.00    1.50275   1.50040   84.053
 6122.00    1.49548   1.48885   82.630
 6123.00    1.50206   1.48925   81.914
 6124.00    1.52095   1.50017   -1.000
 6125.00    1.53006   1.51504   82.487
 6126.00    1.53195   1.52767   82.292
 6127.00    1.53277   1.53543   81.971
 6128.00    1.53353   1.54028   81.217
 6129.00    1.54201   1.54549   80.619
 6130.00    1.54024   1.55196   80.608
 6131.00    1.54054   1.55797   80.965
 6132.00    1.54122   1.56019   82.102
 6133.00    1.53901   1.55425   84.239
 6134.00    1.51553   1.53752   86.684
 6135.00    1.48941   1.51282   88.259
 6136.00    1.46754   1.48927   87.589
 6137.00    1.45971   1.47647   85.083
 6138.00    1.47320   1.47529   83.103
 6139.00    1.49468   1.47991   82.642
 6140.00    1.50257   1.48797   82.876
 6141.00    1.49857   1.50021   82.711
 6142.00    1.49828   1.51610   81.728
 6143.00    1.51403   1.53187   80.995
 6144.00    1.53718   1.54285   81.108
 6145.00    1.54130   1.54709   81.565
 6146.00    1.53522   1.54576   82.116
 6147.00    1.53612   1.54133   82.684
 6148.00    1.53555   1.53605   83.013
 6149.00    1.53358   1.53167   82.878
 6150.00    1.52560   1.52992   82.466
 6151.00    1.51813   1.53166   82.003
 6152.00    1.52370   1.53472   82.192
 6153.00    1.52757   1.53554   82.889
 6154.00    1.52603   1.53312   83.165
 6155.00    1.52210   1.52931   83.276
 6156.00    1.52069   1.52591   83.819
 6157.00    1.52342   1.52176   84.974
 6158.00    1.51608   1.51293   86.950
 6159.00    1.50370   1.49538   89.662
 6160.00    1.48745   1.46990   -1.000
 6161.00    1.46029   1.44397   -1.000
 6162.00    1.43898   1.42822   89.823
 6163.00    1.44293   1.42840   87.576
 6164.00    1.46379   1.44092   -1.000
 6165.00    1.48437   1.45700   -1.000
 6166.00    1.49320   1.46800   -1.000
 6167.00    1.48690   1.46988   -1.000
 6168.00    1.47085   1.46530   88.633
 6169.00    1.45867   1.46275   87.495
 6170.00    1.46905   1.46796   85.848
 6171.00    1.48569   1.47988   85.099
 6172.00    1.49799   1.49388   85.306
 6173.00    1.50617   1.50588   85.267
 6174.00    1.50866   1.51415   85.044
 6175.00    1.51173   1.51907   84.872
 6176.00    1.51627   1.52230   84.574
 6177.00    1.51632   1.52506   84.169
 6178.00    1.51883   1.52763   83.891
 6179.00    1.51773   1.53024   83.587
 6180.00    1.51924   1.53342   83.237
 6181.00    1.52460   1.53720   83.164
 6182.00    1.52726   1.54027   83.409
 6183.00    1.53067   1.54095   83.826
 6184.00    1.52843   1.53866   84.615
 6185.00    1.52373   1.53395   85.550
 6186.00    1.52355   1.52779   86.402
 6187.00    1.51505   1.52065   87.158
 6188.00    1.50833   1.51188   87.923
 6189.00    1.49740   1.50090   88.964
 6190.00    1.48565   1.49033   88.968
 6191.00    1.47562   1.48622   87.431
 6192.00    1.47985   1.49154   85.375
 6193.00    1.49963   1.50301   84.353
 6194.00    1.51036   1.51554   84.035
 6195.00    1.51733   1.52562   84.151
 6196.00    1.52044   1.53176   84.908
 6197.00    1.51561   1.53343   85.846
 6198.00    1.51233   1.53131   86.261
 6199.00    1.50887   1.52809   85.849
 6200.00    1.49645   1.52727   84.834
 6201.00    1.49327   1.53032   84.013
 6202.00    1.51081   1.53627   83.952
 6203.00    1.51602   1.54290   83.924
 6204.00    1.52249   1.54841   83.804
 6205.00    1.53625   1.55213   83.925
 6206.00    1.53654   1.55435   84.183
 6207.00    1.54027   1.55525   84.247
 6208.00    1.53813   1.55435   84.800
 6209.00    1.52823   1.55065   85.582
 6210.00    1.51947   1.54333   86.282
 6211.00    1.51448   1.53259   87.302
 6212.00    1.50862   1.52046   88.549
 6213.00    1.49462   1.51019   89.170
 6214.00    1.48899   1.50419   88.892
 6215.00    1.49013   1.50227   87.807
 6216.00    1.49819   1.50221   87.840
 6217.00    1.50790   1.50155   88.305
 6218.00    1.50067   1.50025   87.738
 6219.00    1.49245   1.50035   87.448
 6220.00    1.49283   1.50368   89.941
 6221.00    1.49961   1.50943   94.269
 6222.00    1.48809   1.51498   89.532
 6223.00    1.42174   1.51878   -1.000
 6224.00    1.49249   1.52055   86.947
 6225.00    1.52284   1.52024   87.098
 6226.00    1.51247   1.51698   87.869
 6227.00    1.51212   1.50930   89.226
 6228.00    1.50123   1.49704   90.621
 6229.00    1.48640   1.48316   91.245
 6230.00    1.47404   1.47320   90.395
 6231.00    1.47586   1.47169   88.885
 6232.00    1.48369   1.47893   87.243
 6233.00    1.49170   1.49091   86.179
 6234.00    1.50834   1.50187   86.196
 6235.00    1.52382   1.50786   -1.000
 6236.00    1.52283   1.50803   -1.000
 6237.00    1.51744   1.50453   88.768
 6238.00    1.51094   1.50029   89.539
 6239.00    1.49549   1.49702   89.715
 6240.00    1.48764   1.49446   89.867
 6241.00    1.48722   1.49106   90.590
 6242.00    1.48921   1.48541   90.956
 6243.00    1.48538   1.47776   90.663
 6244.00    1.47743   1.47022   89.936
 6245.00    1.47941   1.46637   88.933
 6246.00    1.48621   1.46955   -1.000
 6247.00    1.49492   1.47977   87.215
 6248.00    1.50513   1.49246   87.496
 6249.00    1.50963   1.50069   88.651
 6250.00    1.50743   1.50012   90.200
 6251.00    1.49564   1.49162   91.081
 6252.00    1.47811   1.48021   91.545
 6253.00    1.46511   1.47120   91.673
 6254.00    1.46167   1.46688   91.887
 6255.00    1.46291   1.46636   92.817
 6256.00    1.46664   1.46755   93.235
 6257.00    1.46839   1.46958   92.387
 6258.00    1.47102   1.47315   90.911
 6259.00    1.47619   1.47943   89.601
 6260.00    1.48413   1.48840   88.340
 6261.00    1.49242   1.49860   87.248
 6262.00    1.49795   1.50754   87.271
 6263.00    1.50066   1.51330   88.032
 6264.00    1.50144   1.51653   88.275
 6265.00    1.50381   1.51923   87.704
 6266.00    1.50547   1.52217   87.357
 6267.00    1.50226   1.52388   87.808
 6268.00    1.50028   1.52282   88.073
 6269.00    1.50524   1.51988   87.840
 6270.00    1.50743   1.51742   87.556
 6271.00    1.50362   1.51630   87.502
 6272.00    1.50202   1.51461   87.906
 6273.00    1.49989   1.50887   88.604
 6274.00    1.47991   1.49791   89.548
 6275.00    1.45041   1.48392   91.327
 6276.00    1.42704   1.47080   93.512
 6277.00    1.41493   1.46152   94.770
 6278.00    1.40921   1.45698   94.957
 6279.00    1.40134   1.45771   -1.000
 6280.00    1.39724   1.46409   -1.000
 6281.00    1.39283   1.47504   -1.000
 6282.00    1.40069   1.48816   -1.000
 6283.00    1.42017   1.50070   -1.000
 6284.00    1.44149   1.51076   -1.000
 6285.00    1.46274   1.51765   87.260
 6286.00    1.47792   1.52150   86.813
 6287.00    1.48840   1.52244   86.885
 6288.00    1.49235   1.52043   87.495
 6289.00    1.49799   1.51650   88.230
 6290.00    1.50291   1.51259   88.718
 6291.00    1.49829   1.51005   88.820
 6292.00    1.50006   1.50900   88.935
 6293.00    1.49259   1.50839   89.273
 6294.00    1.47310   1.50652   89.984
 6295.00    1.45245   1.50217   90.411
 6296.00    1.42145   1.49605   -1.000
 6297.00    1.37943   1.49032   -1.000
 6298.00    1.34567   1.48614   -1.000
 6299.00    1.39708   1.48280   -1.000
 6300.00    1.51700   1.47999   -1.000
 6301.00    1.59719   1.48003   -1.000
 6302.00    1.57830   1.48581   -1.000
 6303.00    1.51041   1.49672   -1.000
 6304.00    1.50326   1.50903   87.711
 6305.00    1.50424   1.51919   86.971
 6306.00    1.50078   1.52564   86.383
 6307.00    1.50409   1.52853   86.474
 6308.00    1.51076   1.52910   86.964
 6309.00    1.51541   1.52860   87.487
 6310.00    1.50942   1.52728   87.806
 6311.00    1.49976   1.52480   88.082
 6312.00    1.49373   1.52060   88.376
 6313.00    1.48440   1.51481   89.104
 6314.00    1.47720   1.50846   89.243
 6315.00    1.47435   1.50257   89.147
 6316.00    1.46891   1.49814   89.132
 6317.00    1.46425   1.49667   89.127
 6318.00    1.46482   1.49977   88.507
 6319.00    1.47552   1.50721   87.441
 6320.00    1.48877   1.51620   86.783
 6321.00    1.49646   1.52422   86.506
 6322.00    1.49836   1.53135   86.155
 6323.00    1.49946   1.53818   85.736
 6324.00    1.50509   1.54373   85.560
 6325.00    1.51339   1.54681   85.404
 6326.00    1.51271   1.54750   85.106
 6327.00    1.51393   1.54706   85.230
 6328.00    1.51372   1.54653   85.282
 6329.00    1.52177   1.54623   85.219
 6330.00    1.52252   1.54600   84.932
 6331.00    1.52209   1.54496   84.933
 6332.00    1.51771   1.54120   85.189
 6333.00    1.50580   1.53343   85.979
 6334.00    1.44638   1.52293   -1.000
 6335.00    1.39785   1.51388   -1.000
 6336.00    1.46354   1.51059   86.423
 6337.00    1.48119   1.51401   85.511
 6338.00    1.49706   1.52197   84.737
 6339.00    1.50645   1.53138   84.368
 6340.00    1.50970   1.53923   84.107
 6341.00    1.51043   1.54332   84.445
 6342.00    1.50683   1.54328   85.054
 6343.00    1.50266   1.54037   84.995
 6344.00    1.49964   1.53673   84.662
 6345.00    1.50141   1.53470   84.141
 6346.00    1.49815   1.53632   83.630
 6347.00    1.49753   1.54224   83.448
 6348.00    1.50252   1.55050   83.424
 6349.00    1.50725   1.55788   83.308
 6350.00    1.51128   1.56208   83.504
 6351.00    1.51041   1.56233   83.893
 6352.00    1.50894   1.55903   84.472
 6353.00    1.50237   1.55357   85.416
 6354.00    1.49372   1.54787   85.895
 6355.00    1.48671   1.54324   85.950
 6356.00    1.48004   1.53942   -1.000
 6357.00    1.47550   1.53573   -1.000
 6358.00    1.47072   1.53245   -1.000
 6359.00    1.47016   1.52989   -1.000
 6360.00    1.45637   1.52762   -1.000
 6361.00    1.44530   1.52541   -1.000
 6362.00    1.45122   1.52398   -1.000
 6363.00    1.49002   1.52444   85.667
 6364.00    1.52780   1.52717   85.153
 6365.00    1.53097   1.53149   84.674
 6366.00    1.52115   1.53617   84.118
 6367.00    1.50848   1.53962   83.670
 6368.00    1.50615   1.54082   83.574
 6369.00    1.49933   1.54058   83.538
 6370.00    1.49939   1.54108   83.210
 6371.00    1.50473   1.54387   83.064
 6372.00    1.50592   1.54841   83.275
 6373.00    1.49707   1.55257   83.362
 6374.00    1.48881   1.55427   -1.000
 6375.00    1.48983   1.55287   -1.000
 6376.00    1.48500   1.54922   -1.000
 6377.00    1.48009   1.54491   -1.000
 6378.00    1.48292   1.54104   -1.000
 6379.00    1.47865   1.53792   -1.000
 6380.00    1.47442   1.53557   -1.000
 6381.00    1.46728   1.53413   -1.000
 6382.00    1.46895   1.53402   -1.000
 6383.00    1.47408   1.53566   -1.000
 6384.00    1.46510   1.53896   -1.000
 6385.00    1.46227   1.54295   -1.000
 6386.00    1.47004   1.54603   -1.000
 6387.00    1.46663   1.54739   -1.000
 6388.00    1.45817   1.54715   -1.000
 6389.00    1.45172   1.54504   -1.000
 6390.00    1.44038   1.53998   -1.000
 6391.00    1.42912   1.53203   -1.000
 6392.00    1.41628   1.52426   -1.000
 6393.00    1.40876   1.52106   -1.000
 6394.00    1.40241   1.52435   -1.000
 6395.00    1.40268   1.53116   -1.000
 6396.00    1.40727   1.53568   -1.000
 6397.00    1.40663   1.53387   -1.000
 6398.00    1.38824   1.52684   -1.000
 6399.00    1.36651   1.52035   -1.000
 6400.00    1.36278   1.51987   -1.000
 6401.00    1.36597   1.52648   -1.000
 6402.00    1.37198   1.53669   -1.000
 6403.00    1.37836   1.54539   -1.000
 6404.00    1.37883   1.54887   -1.000
 6405.00    1.37105   1.54645   -1.000
 6406.00    1.35559   1.54070   -1.000
 6407.00    1.34195   1.53547   -1.000
 6408.00    1.32679   1.53288   -1.000
 6409.00    1.31934   1.53201   -1.000
 6410.00    1.31441   1.53173   -1.000
 6411.00    1.30214   1.53274   -1.000
 6412.00    1.29623   1.53577   -1.000
 6413.00    1.30091   1.53980   -1.000
 6414.00    1.29535   1.54323   -1.000
 6415.00    1.28518   1.54539   -1.000
 6416.00    1.28375   1.54587   -1.000
 6417.00    1.27401   1.54360   -1.000
 6418.00    1.25525   1.53829   -1.000
 6419.00    1.23996   1.53195   -1.000
 6420.00    1.22217   1.52844   -1.000
 6421.00    1.21171   1.53126   -1.000
 6422.00    1.20789   1.54009   -1.000
 6423.00    1.20725   1.55113   -1.000
 6424.00    1.19929   1.56099   -1.000
 6425.00    1.19606   1.56765   -1.000
 6426.00    1.19590   1.56977   -1.000
 6427.00    1.18079   1.56636   -1.000
 6428.00    1.16056   1.55751   -1.000
