###################################################################
## OUTPUT of StarlightChains_v04.for    [Cid@UFSC - 01/Apr/2007] ##
###################################################################

## Some input info
NGC6626_a_1.cxt                          [arq_obs]
Base.BC03.N                              [arq_base]
NGC6626_a_1.msk                          [arq_masks]
StCv04.C99.config                        [arq_config]
   45                                    [N_base]
    0                                    [N_YAV_components = # of components with extra extinction!]
    0                                    [i_FitPowerLaw (1/0 = Yes/No)]
-9.99                                    [alpha_PowerLaw]
CCM                                      [red_law_option]
 1.458241                                [q_norm = A(l_norm)/A(V)]

## (Re)Sampling Parameters
 3359.00                                 [l_ini (A)]
 6428.00                                 [l_fin (A)]
    1.00                                 [dl    (A)]     (OBS: dl_cushion =    50.00 A)

## Normalization info
 4020.00                                 [l_norm (A) - for base]
 4010.00                                 [llow_norm (A) - window for f_obs]
 4060.00                                 [lupp_norm (A) - window for f_obs]
2.684846E-14                             [fobs_norm (in input units)]

## S/N
 4730.00                                 [llow_SN (A) - window for S/N]
 4780.00                                 [lupp_SN (A) - window for S/N]
  76.546                                 [S/N in S/N window]
  58.380                                 [S/N in norm. window]
 133.097                                 [S/N_err in S/N window]
 101.509                                 [S/N_err in norm. window]
  1.0000                                 [fscale_chi2]

## etc...
  2147483595                             [idum_orig]
  3069                                   [NOl_eff]
  1133                                   [Nl_eff]
  1936    NSIGMA                         [Ntot_cliped & clip_method]
  2132200                                [Nglobal_steps]
   7                                     [N_chains]
  14                                     [NEX0s_base = N_base in EX0s-fits]
 0   0   1      124   2.0   2.431E+02    [Clip-Bug, RC-Crash & Burn-In warning-flags, n_censored_weights, wei_nsig_threshold & wei_limit]
    25     24.874     24.874      0.000  [idt_all, wdt_TotTime, wdt_UsrTime & wdt_SysTime (sec)]

## Synthesis Results - Best model ##

 2.88248E+00                             [chi2/Nl_eff]
     1.86590                             [adev (%)]

    99.90858                             [sum-of-x (%)]
 2.03868E-13                             [Flux_tot (units of input spectrum!)]
 1.55998E-09                             [Mini_tot (???)]
 8.52545E-10                             [Mcor_tot (???)]

  -2.97                                  [v0_min  (km/s)]
  60.76                                  [vd_min  (km/s)]
 1.5101                                  [AV_min  (mag)]
 0.0000                                  [YAV_min (mag)]

# j     x_j(%)      Mini_j(%)     Mcor_j(%)     age_j(yr)     Z_j      (L/M)_j    YAV?  Mstars   component_j        a/Fe...       SSP_chi2r SSP_adev(%)   SSP_AV   SSP_x(%)
  1      0.0000     0.0000E+00    0.0000E+00    1.000000E+06  0.00400  1.114E-02    0   1.0000   age020_m42            0.0000     4.1490E+02    16.8103   4.0000    89.5605
  2      5.1132     1.6421E-02    3.0044E-02    3.160000E+06  0.00400  4.073E-02    0   0.9999   age045_m42            0.0000     4.6063E+01     5.9915   3.5875    90.9929
  3      0.0000     0.0000E+00    0.0000E+00    5.010000E+06  0.00400  2.534E-02    0   0.9488   age055_m42            0.0000     1.0228E+02     9.0605   3.9402    86.0023
  4     12.7868     1.3160E-01    2.1339E-01    1.000000E+07  0.00400  1.271E-02    0   0.8862   age070_m42            0.0000     9.1065E+01     9.0092   3.1486    90.3034
  5      0.0000     0.0000E+00    0.0000E+00    2.512000E+07  0.00400  5.070E-03    0   0.8174   age090_m42            0.0000     7.9360E+01     8.4503   3.0309    91.5396
  6      0.0000     0.0000E+00    0.0000E+00    4.000000E+07  0.00400  3.505E-03    0   0.7851   age104_m42            0.0000     4.7735E+01     6.5814   2.7480    93.6004
  7      1.2393     7.1474E-02    9.4255E-02    1.015200E+08  0.00400  2.268E-03    0   0.7207   age116_m42            0.0000     9.1043E+01     5.9366   2.8530    99.3212
  8      0.0000     0.0000E+00    0.0000E+00    2.861200E+08  0.00400  1.079E-03    0   0.6613   age125_m42            0.0000     9.8483E+01     6.4476   2.3821   100.4698
  9      7.6490     1.9707E+00    2.2347E+00    6.405400E+08  0.00400  5.077E-04    0   0.6197   age132_m42            0.0000     1.0717E+02     6.9861   2.0221   104.2261
 10     27.6185     1.0220E+01    1.1265E+01    9.047900E+08  0.00400  3.535E-04    0   0.6024   age135_m42            0.0000     6.3283E+01     5.5722   1.7709   103.9918
 11      0.0000     0.0000E+00    0.0000E+00    1.434000E+09  0.00400  1.910E-04    0   0.5716   age139_m42            0.0000     3.0629E+01     4.2936   1.2382   103.4736
 12     22.2018     2.9580E+01    2.9568E+01    2.500000E+09  0.00400  9.818E-05    0   0.5463   age150_m42            0.0000     2.7821E+01     4.1070   0.9404    99.8777
 13     14.4776     4.0139E+01    3.8398E+01    5.000000E+09  0.00400  4.718E-05    0   0.5228   age161_m42            0.0000     4.5291E+01     4.7585   0.7554    97.3267
 14      0.0000     0.0000E+00    0.0000E+00    1.100000E+10  0.00400  2.205E-05    0   0.4980   age185_m42            0.0000     9.8003E+01     6.5784   0.4954    95.4633
 15      0.0000     0.0000E+00    0.0000E+00    1.300000E+10  0.00400  1.883E-05    0   0.4927   age193_m42            0.0000     1.0589E+02     6.8350   0.4785    95.3363
 16      0.0000     0.0000E+00    0.0000E+00    1.000000E+06  0.02000  1.989E-02    0   1.0000   age020_m62            0.0000     3.8497E+02    16.0365   4.0000    89.5242
 17      0.0000     0.0000E+00    0.0000E+00    3.160000E+06  0.02000  3.772E-02    0   0.9858   age045_m62            0.0000     2.6826E+02    13.8377   4.0000    88.8603
 18      1.2521     5.0755E-03    8.6760E-03    5.010000E+06  0.02000  3.227E-02    0   0.9342   age055_m62            0.0000     6.9650E+01     7.6926   3.8123    88.5464
 19      0.0000     0.0000E+00    0.0000E+00    1.000000E+07  0.02000  1.011E-02    0   0.8751   age070_m62            0.0000     2.4584E+02    13.9184   3.1314    87.6278
 20      0.0000     0.0000E+00    0.0000E+00    2.512000E+07  0.02000  4.206E-03    0   0.8099   age090_m62            0.0000     1.7199E+02    11.8194   3.0930    87.6686
 21      0.0000     0.0000E+00    0.0000E+00    4.000000E+07  0.02000  3.373E-03    0   0.7799   age104_m62            0.0000     4.5712E+01     6.0657   2.9741    94.4663
 22      0.0000     0.0000E+00    0.0000E+00    1.015200E+08  0.02000  1.878E-03    0   0.7221   age116_m62            0.0000     7.4499E+01     5.2971   2.8676   100.0198
 23      0.0000     0.0000E+00    0.0000E+00    2.861200E+08  0.02000  8.869E-04    0   0.6700   age125_m62            0.0000     1.7394E+02     8.5925   2.4191   104.5903
 24      0.0000     0.0000E+00    0.0000E+00    6.405400E+08  0.02000  3.657E-04    0   0.6322   age132_m62            0.0000     1.2145E+02     7.8051   1.7508   107.5364
 25      0.0000     0.0000E+00    0.0000E+00    9.047900E+08  0.02000  2.312E-04    0   0.6152   age135_m62            0.0000     7.3503E+01     6.4628   1.3598   107.3658
 26      0.0010     1.0710E-03    1.1493E-03    1.434000E+09  0.02000  1.168E-04    0   0.5865   age139_m62            0.0000     4.4180E+01     5.1829   0.9104   103.1785
 27      1.9720     4.6856E+00    4.8099E+00    2.500000E+09  0.02000  5.505E-05    0   0.5610   age150_m62            0.0000     8.5945E+01     6.5391   0.5284   101.0494
 28      1.0526     5.3036E+00    5.1949E+00    5.000000E+09  0.02000  2.596E-05    0   0.5353   age161_m62            0.0000     1.8391E+02     8.7992   0.1972   101.4176
 29      0.0000     0.0000E+00    0.0000E+00    1.100000E+10  0.02000  1.169E-05    0   0.5103   age185_m62            0.0000     3.0124E+02    10.9221  -0.1545   102.7254
 30      0.0000     0.0000E+00    0.0000E+00    1.300000E+10  0.02000  9.691E-06    0   0.5047   age193_m62            0.0000     3.2336E+02    11.2754  -0.1986   102.9420
 31      0.0000     0.0000E+00    0.0000E+00    1.000000E+06  0.05000  2.651E-02    0   0.9998   age020_m72            0.0000     3.7886E+02    15.7849   4.0000    90.4709
 32      0.0000     0.0000E+00    0.0000E+00    3.160000E+06  0.05000  4.817E-02    0   0.9577   age045_m72            0.0000     1.5971E+02    11.0765   4.0000    88.8100
 33      1.4297     6.0307E-03    1.0094E-02    5.010000E+06  0.05000  3.101E-02    0   0.9147   age055_m72            0.0000     1.1957E+02     9.6620   3.8063    87.3478
 34      0.0000     0.0000E+00    0.0000E+00    1.000000E+07  0.05000  8.954E-03    0   0.8524   age070_m72            0.0000     1.2988E+02     9.7929   4.0000    86.8864
 35      0.0000     0.0000E+00    0.0000E+00    2.512000E+07  0.05000  4.207E-03    0   0.7902   age090_m72            0.0000     6.1304E+01     6.8898   3.6529    90.3221
 36      0.0000     0.0000E+00    0.0000E+00    4.000000E+07  0.05000  3.198E-03    0   0.7618   age104_m72            0.0000     4.6008E+01     4.4676   3.2225    96.3884
 37      0.0000     0.0000E+00    0.0000E+00    1.015200E+08  0.05000  1.716E-03    0   0.7092   age116_m72            0.0000     9.5055E+01     6.0364   2.9727    99.6989
 38      0.0000     0.0000E+00    0.0000E+00    2.861200E+08  0.05000  7.047E-04    0   0.6618   age125_m72            0.0000     1.7020E+02     8.7361   2.2291   104.7859
 39      0.0000     0.0000E+00    0.0000E+00    6.405400E+08  0.05000  2.633E-04    0   0.6253   age132_m72            0.0000     9.9057E+01     7.3682   1.3793   107.2323
 40      0.0000     0.0000E+00    0.0000E+00    9.047900E+08  0.05000  1.484E-04    0   0.6088   age135_m72            0.0000     7.2710E+01     6.5670   0.8695   103.5398
 41      1.6419     2.7440E+00    2.9357E+00    1.434000E+09  0.05000  7.827E-05    0   0.5847   age139_m72            0.0000     1.2443E+02     7.7399   0.4635   101.0150
 42      1.4731     5.1261E+00    5.2366E+00    2.500000E+09  0.05000  3.759E-05    0   0.5583   age150_m72            0.0000     2.0259E+02     9.2418   0.1306   100.8775
 43      0.0000     0.0000E+00    0.0000E+00    5.000000E+09  0.05000  1.548E-05    0   0.5320   age161_m72            0.0000     3.1533E+02    10.9946  -0.2717   100.6865
 44      0.0000     0.0000E+00    0.0000E+00    1.100000E+10  0.05000  6.532E-06    0   0.5070   age185_m72            0.0000     4.5454E+02    13.2360  -0.6211   100.0154
 45      0.0000     0.0000E+00    0.0000E+00    1.300000E+10  0.05000  5.316E-06    0   0.5018   age193_m72            0.0000     5.1153E+02    14.1426  -0.7245    99.7699


## Synthesis Results - Average & Chains ##

# j      x_j: min, <> & last-chain-values for 1 ...  7 chains
  1      0.0000      0.0488      0.1012      0.0817      0.0235      0.0000      0.1991      0.1037      0.0786
  2      5.1132      4.0449      4.1247      3.9837      4.1369      3.9373      3.9712      4.1127      4.1597
  3      0.0000      0.3524      0.1486      0.3499      0.1561      0.7049      0.1517      0.3813      0.2259
  4     12.7868     12.8271     12.6177     12.9969     12.6415     12.5595     12.8982     12.9370     13.0193
  5      0.0000      0.0923      0.1061      0.0000      0.0000      0.0000      0.0000      0.1173      0.0000
  6      0.0000      0.0400      0.1499      0.0298      0.0000      0.0000      0.0000      0.0000      0.0000
  7      1.2393      5.3019      4.6549      5.2142      5.1203      5.2001      4.9848      4.7039      4.9271
  8      0.0000      0.0426      0.0000      0.0000      0.0000      0.0000      0.0268      0.0000      0.0023
  9      7.6490      6.3884      6.6681      6.7376      5.9806      6.6885      6.6358      6.8703      7.2178
 10     27.6185     22.7246     24.1945     22.8988     24.0297     23.2261     23.2605     23.6320     22.9992
 11      0.0000      0.2190      0.0000      0.0138      0.2508      0.0232      0.3137      0.0680      0.0003
 12     22.2018     24.5108     24.0706     23.9842     23.2444     24.2759     24.3924     24.0255     24.0512
 13     14.4776     18.2075     17.7458     17.8398     18.0735     17.3469     17.7893     17.9720     18.0084
 14      0.0000      0.0220      0.0000      0.0000      0.0000      0.0000      0.0000      0.0000      0.0110
 15      0.0000      0.0168      0.0107      0.0187      0.0000      0.0000      0.0000      0.0000      0.0000
 16      0.0000      0.0276      0.0000      0.0000      0.0000      0.0000      0.0505      0.1159      0.0000
 17      0.0000      0.0593      0.0000      0.0000      0.1238      0.0003      0.1767      0.1794      0.0294
 18      1.2521      0.4611      0.5064      0.7042      1.0683      0.6303      0.4182      0.5493      0.4666
 19      0.0000      0.1127      0.1637      0.0611      0.0356      0.2588      0.1168      0.2378      0.0000
 20      0.0000      0.0509      0.0000      0.0735      0.0000      0.0000      0.0000      0.0000      0.0278
 21      0.0000      0.0515      0.0134      0.0000      0.0000      0.0000      0.0821      0.0000      0.0000
 22      0.0000      0.0332      0.0000      0.0000      0.0000      0.0000      0.0000      0.0000      0.0000
 23      0.0000      0.0275      0.0091      0.0000      0.0000      0.0444      0.0000      0.0000      0.0000
 24      0.0000      0.0455      0.0000      0.0000      0.0042      0.0000      0.0000      0.0000      0.0000
 25      0.0000      0.0773      0.0000      0.0000      0.0000      0.0255      0.0000      0.0000      0.0490
 26      0.0010      0.7897      0.5373      1.1389      0.8233      1.0899      0.6339      0.7750      0.8018
 27      1.9720      0.7208      0.7309      1.1592      0.9161      0.7256      0.8451      0.7260      0.5911
 28      1.0526      0.3903      0.6782      0.3899      0.5348      0.6729      0.4312      0.3901      0.4525
 29      0.0000      0.1886      0.2116      0.2764      0.1859      0.1611      0.2151      0.2316      0.1649
 30      0.0000      0.0568      0.0104      0.0000      0.0921      0.0564      0.0000      0.0000      0.2153
 31      0.0000      0.0342      0.1983      0.0277      0.1655      0.0000      0.0000      0.0163      0.0000
 32      0.0000      0.1610      0.0000      0.0981      0.2252      0.1361      0.2133      0.0000      0.6399
 33      1.4297      0.2984      0.5265      0.3658      0.4145      0.3315      0.4387      0.2103      0.3118
 34      0.0000      0.0577      0.2256      0.0000      0.0000      0.0712      0.0000      0.0000      0.0384
 35      0.0000      0.0695      0.0617      0.0284      0.0000      0.2117      0.0605      0.0000      0.0000
 36      0.0000      0.0360      0.0193      0.1714      0.0337      0.0001      0.0000      0.0000      0.0000
 37      0.0000      0.0388      0.0000      0.0000      0.0137      0.0027      0.0000      0.0492      0.0000
 38      0.0000      0.0303      0.0000      0.0000      0.0000      0.0556      0.0000      0.0000      0.0000
 39      0.0000      0.0610      0.0000      0.0000      0.0000      0.0000      0.0635      0.0204      0.0000
 40      0.0000      0.1094      0.0000      0.0000      0.3006      0.0336      0.0222      0.0666      0.1839
 41      1.6419      0.3334      0.6556      0.4166      0.3905      0.5954      0.7422      0.7476      0.3235
 42      1.4731      0.4492      0.3996      0.6489      0.6011      0.5506      0.5141      0.3984      0.6236
 43      0.0000      0.0728      0.0771      0.0282      0.0572      0.1218      0.0722      0.0285      0.1170
 44      0.0000      0.0394      0.0409      0.0562      0.0700      0.0619      0.0227      0.0000      0.0426
 45      0.0000      0.0425      0.1241      0.0000      0.0533      0.0000      0.0000      0.0744      0.0000

# j      m_j: min, <> & last-chain-values for 1 ...  7 chains
  1  0.0000E+00  9.9624E-04  2.0407E-03  1.6762E-03  4.7440E-04  0.0000E+00  4.1368E-03  2.1476E-03  1.5972E-03
  2  3.0044E-02  2.2603E-02  2.2748E-02  2.2358E-02  2.2861E-02  2.2145E-02  2.2569E-02  2.3286E-02  2.3106E-02
  3  0.0000E+00  3.0032E-03  1.2502E-03  2.9950E-03  1.3158E-03  6.0467E-03  1.3151E-03  3.2926E-03  1.9138E-03
  4  2.1339E-01  2.0358E-01  1.9764E-01  2.0717E-01  1.9841E-01  2.0063E-01  2.0819E-01  2.0804E-01  2.0540E-01
  5  0.0000E+00  3.3889E-03  3.8418E-03  0.0000E+00  0.0000E+00  0.0000E+00  0.0000E+00  4.3620E-03  0.0000E+00
  6  0.0000E+00  2.0372E-03  7.5422E-03  1.5244E-03  0.0000E+00  0.0000E+00  0.0000E+00  0.0000E+00  0.0000E+00
  7  9.4255E-02  3.8349E-01  3.3231E-01  3.7879E-01  3.6626E-01  3.7858E-01  3.6670E-01  3.4475E-01  3.5426E-01
  8  0.0000E+00  5.9432E-03  0.0000E+00  0.0000E+00  0.0000E+00  0.0000E+00  3.8013E-03  0.0000E+00  3.1985E-04
  9  2.2347E+00  1.7749E+00  1.8285E+00  1.8801E+00  1.6433E+00  1.8704E+00  1.8751E+00  1.9341E+00  1.9935E+00
 10  1.1265E+01  8.8147E+00  9.2625E+00  8.9210E+00  9.2179E+00  9.0679E+00  9.1762E+00  9.2882E+00  8.8682E+00
 11  0.0000E+00  1.4920E-01  0.0000E+00  9.4532E-03  1.6896E-01  1.5916E-02  2.1735E-01  4.6940E-02  1.7757E-04
 12  2.9568E+01  3.1044E+01  3.0089E+01  3.0510E+01  2.9115E+01  3.0947E+01  3.1420E+01  3.0833E+01  3.0281E+01
 13  3.8398E+01  4.5924E+01  4.4176E+01  4.5193E+01  4.5083E+01  4.4039E+01  4.5633E+01  4.5931E+01  4.5152E+01
 14  0.0000E+00  1.1323E-01  0.0000E+00  0.0000E+00  0.0000E+00  0.0000E+00  0.0000E+00  0.0000E+00  5.6183E-02
 15  0.0000E+00  1.0030E-01  6.2823E-02  1.1172E-01  0.0000E+00  0.0000E+00  0.0000E+00  0.0000E+00  0.0000E+00
 16  0.0000E+00  3.1597E-04  0.0000E+00  0.0000E+00  0.0000E+00  0.0000E+00  5.8825E-04  1.3436E-03  0.0000E+00
 17  0.0000E+00  3.5267E-04  0.0000E+00  0.0000E+00  7.2816E-04  1.5665E-06  1.0693E-03  1.0814E-03  1.7392E-04
 18  8.6760E-03  3.0386E-03  3.2931E-03  4.6604E-03  6.9617E-03  4.1805E-03  2.8026E-03  3.6676E-03  3.0566E-03
 19  0.0000E+00  2.2213E-03  3.1837E-03  1.2083E-03  6.9389E-04  5.1327E-03  2.3403E-03  4.7475E-03  0.0000E+00
 20  0.0000E+00  2.2308E-03  0.0000E+00  3.2371E-03  0.0000E+00  0.0000E+00  0.0000E+00  0.0000E+00  1.2108E-03
 21  0.0000E+00  2.7111E-03  6.9533E-04  0.0000E+00  0.0000E+00  0.0000E+00  4.3921E-03  0.0000E+00  0.0000E+00
 22  0.0000E+00  2.9099E-03  0.0000E+00  0.0000E+00  0.0000E+00  0.0000E+00  0.0000E+00  0.0000E+00  0.0000E+00
 23  0.0000E+00  4.7293E-03  1.5425E-03  0.0000E+00  0.0000E+00  7.6770E-03  0.0000E+00  0.0000E+00  0.0000E+00
 24  0.0000E+00  1.7918E-02  0.0000E+00  0.0000E+00  1.6352E-03  0.0000E+00  0.0000E+00  0.0000E+00  0.0000E+00
 25  0.0000E+00  4.6817E-02  0.0000E+00  0.0000E+00  0.0000E+00  1.5547E-02  0.0000E+00  0.0000E+00  2.9530E-02
 26  1.1493E-03  9.0258E-01  6.0612E-01  1.3074E+00  9.3064E-01  1.2538E+00  7.3688E-01  8.9757E-01  9.1098E-01
 27  4.8099E+00  1.6721E+00  1.6734E+00  2.7006E+00  2.1015E+00  1.6941E+00  1.9937E+00  1.7065E+00  1.3630E+00
 28  5.1949E+00  1.8319E+00  3.1415E+00  1.8381E+00  2.4823E+00  3.1789E+00  2.0584E+00  1.8552E+00  2.1112E+00
 29  0.0000E+00  1.8736E+00  2.0752E+00  2.7582E+00  1.8272E+00  1.6115E+00  2.1741E+00  2.3319E+00  1.6288E+00
 30  0.0000E+00  6.7318E-01  1.2144E-01  0.0000E+00  1.0802E+00  6.7267E-01  0.0000E+00  0.0000E+00  2.5365E+00
 31  0.0000E+00  2.9334E-04  1.6803E-03  2.3841E-04  1.4050E-03  0.0000E+00  0.0000E+00  1.4166E-04  0.0000E+00
 32  0.0000E+00  7.2870E-04  0.0000E+00  4.4603E-04  1.0077E-03  6.1973E-04  9.8175E-04  0.0000E+00  2.8786E-03
 33  1.0094E-02  2.0034E-03  3.4887E-03  2.4669E-03  2.7519E-03  2.2404E-03  2.9954E-03  1.4309E-03  2.0811E-03
 34  0.0000E+00  1.2511E-03  4.8245E-03  0.0000E+00  0.0000E+00  1.5538E-03  0.0000E+00  0.0000E+00  8.2740E-04
 35  0.0000E+00  2.9728E-03  2.6024E-03  1.2196E-03  0.0000E+00  9.1112E-03  2.6315E-03  0.0000E+00  0.0000E+00
 36  0.0000E+00  1.9521E-03  1.0321E-03  9.3332E-03  1.8093E-03  3.8123E-06  0.0000E+00  0.0000E+00  0.0000E+00
 37  0.0000E+00  3.6542E-03  0.0000E+00  0.0000E+00  1.2713E-03  2.5625E-04  0.0000E+00  4.6910E-03  0.0000E+00
 38  0.0000E+00  6.4821E-03  0.0000E+00  0.0000E+00  0.0000E+00  1.1963E-02  0.0000E+00  0.0000E+00  0.0000E+00
 39  0.0000E+00  3.2981E-02  0.0000E+00  0.0000E+00  0.0000E+00  0.0000E+00  3.4904E-02  1.1181E-02  0.0000E+00
 40  0.0000E+00  1.0217E-01  0.0000E+00  0.0000E+00  2.7761E-01  3.1602E-02  2.1054E-02  6.2998E-02  1.7067E-01
 41  2.9357E+00  5.6697E-01  1.1003E+00  7.1147E-01  6.5667E-01  1.0190E+00  1.2835E+00  1.2881E+00  5.4679E-01
 42  5.2366E+00  1.5188E+00  1.3333E+00  2.2032E+00  2.0096E+00  1.8734E+00  1.7676E+00  1.3647E+00  2.0958E+00
 43  0.0000E+00  5.6974E-01  5.9502E-01  2.2133E-01  4.4253E-01  9.5933E-01  5.7452E-01  2.2630E-01  9.1008E-01
 44  0.0000E+00  6.9540E-01  7.1363E-01  9.9763E-01  1.2233E+00  1.0999E+00  4.0863E-01  0.0000E+00  7.4852E-01
 45  0.0000E+00  9.1213E-01  2.6312E+00  0.0000E+00  1.1333E+00  0.0000E+00  0.0000E+00  1.6188E+00  0.0000E+00

# AV, chi2 & Mass for <> & i_chain = 1 ...  7 solutions
AV       1.5101      1.5026      1.5020      1.5018      1.5043      1.5042      1.5029      1.5077      1.5051
chi2 2.8825E+00  2.9994E+00  2.9746E+00  2.9832E+00  2.9775E+00  2.9788E+00  2.9828E+00  2.9791E+00  2.9787E+00
Mass 8.5254E-10  8.8749E-10  8.9846E-10  8.8273E-10  8.9950E-10  8.8362E-10  8.7302E-10  8.8190E-10  8.9584E-10
  -3.94                                  [v0_min (km/s) before EX0s...]
  59.12                                  [vd_min (km/s) before EX0s...]


## Synthetic spectrum (Best Model) ##l_obs f_obs f_syn wei
 3070    [Nl_obs]
 3359.00    0.00000   0.43321   -2.000
 3360.00    0.15197   0.41379   -1.000
 3361.00    0.22526   0.41006   -1.000
 3362.00    0.23290   0.42430   -1.000
 3363.00    0.24274   0.44744   -1.000
 3364.00    0.26546   0.46602   -1.000
 3365.00    0.27399   0.47049   -1.000
 3366.00    0.26498   0.45925   -1.000
 3367.00    0.25983   0.44048   -1.000
 3368.00    0.26247   0.42546   -1.000
 3369.00    0.25948   0.41947   -1.000
 3370.00    0.25677   0.41919   -1.000
 3371.00    0.25764   0.41749   -1.000
 3372.00    0.25397   0.41535   -1.000
 3373.00    0.25291   0.42112   -1.000
 3374.00    0.27073   0.43974   -1.000
 3375.00    0.28310   0.46549   -1.000
 3376.00    0.29084   0.48013   -1.000
 3377.00    0.29989   0.47498   -1.000
 3378.00    0.30175   0.45700   -1.000
 3379.00    0.29689   0.43957   -1.000
 3380.00    0.29667   0.43478   -1.000
 3381.00    0.29057   0.44299   -1.000
 3382.00    0.29599   0.45791   -1.000
 3383.00    0.30702   0.46992   -1.000
 3384.00    0.30888   0.47757   -1.000
 3385.00    0.30839   0.48374   -1.000
 3386.00    0.32150   0.48715   -1.000
 3387.00    0.32733   0.48637   -1.000
 3388.00    0.33079   0.48457   -1.000
 3389.00    0.33210   0.48424   -1.000
 3390.00    0.33764   0.48343   -1.000
 3391.00    0.34709   0.47812   -1.000
 3392.00    0.34698   0.46906   -1.000
 3393.00    0.34461   0.46421   -1.000
 3394.00    0.34954   0.46911   -1.000
 3395.00    0.35661   0.48215   -1.000
 3396.00    0.36481   0.49689   -1.000
 3397.00    0.36984   0.50787   -1.000
 3398.00    0.38154   0.51263   -1.000
 3399.00    0.38946   0.51018   -1.000
 3400.00    0.39073   0.50320   -1.000
 3401.00    0.39842   0.49431   28.245
 3402.00    0.40319   0.48443   29.198
 3403.00    0.39350   0.47666   29.796
 3404.00    0.38708   0.47292   30.250
 3405.00    0.38737   0.47019   30.799
 3406.00    0.38634   0.46549   31.318
 3407.00    0.39048   0.46053   31.568
 3408.00    0.39694   0.45915   31.967
 3409.00    0.38968   0.46412   32.243
 3410.00    0.38938   0.47205   32.149
 3411.00    0.38662   0.47662   31.391
 3412.00    0.39674   0.47534   30.936
 3413.00    0.40041   0.47072   31.810
 3414.00    0.40027   0.46787   32.642
 3415.00    0.39763   0.46953   32.759
 3416.00    0.39820   0.47648   32.151
 3417.00    0.40977   0.48746   30.928
 3418.00    0.41510   0.50052   29.498
 3419.00    0.41606   0.51207   28.033
 3420.00    0.42164   0.51688   27.537
 3421.00    0.42474   0.51314   27.376
 3422.00    0.42584   0.50539   27.438
 3423.00    0.43375   0.49851   28.057
 3424.00    0.43533   0.49545   28.753
 3425.00    0.43601   0.49551   28.353
 3426.00    0.43941   0.49835   27.578
 3427.00    0.44077   0.50611   27.260
 3428.00    0.45388   0.51870   -1.000
 3429.00    0.46238   0.52785   -1.000
 3430.00    0.46362   0.52762   -1.000
 3431.00    0.46121   0.51861   -1.000
 3432.00    0.45489   0.50752   -1.000
 3433.00    0.44866   0.50194   37.790
 3434.00    0.45031   0.50343   27.200
 3435.00    0.46052   0.50855   -1.000
 3436.00    0.46430   0.51020   -1.000
 3437.00    0.45698   0.50483   37.523
 3438.00    0.44826   0.49184   28.012
 3439.00    0.43868   0.47228   29.589
 3440.00    0.42957   0.44935   31.770
 3441.00    0.41652   0.43242   33.441
 3442.00    0.41503   0.42897   33.880
 3443.00    0.42430   0.43716   33.791
 3444.00    0.42433   0.44774   32.797
 3445.00    0.43681   0.45768   31.138
 3446.00    0.44590   0.47008   29.418
 3447.00    0.46190   0.48699   28.217
 3448.00    0.47969   0.50478   72.921
 3449.00    0.48602   0.51428   -1.000
 3450.00    0.49214   0.51015   -1.000
 3451.00    0.49480   0.49661  243.057
 3452.00    0.48515   0.48129  243.057
 3453.00    0.46650   0.47399  243.057
 3454.00    0.47374   0.47712  243.057
 3455.00    0.48935   0.48489  243.057
 3456.00    0.48990   0.48812  243.057
 3457.00    0.48460   0.48277  243.057
 3458.00    0.47412   0.47357  243.057
 3459.00    0.46967   0.46488   37.703
 3460.00    0.46917   0.45837   27.472
 3461.00    0.47877   0.45792   27.457
 3462.00    0.48405   0.46684   71.643
 3463.00    0.49229   0.47956   -1.000
 3464.00    0.49718   0.48769   -1.000
 3465.00    0.49972   0.49046   -1.000
 3466.00    0.48463   0.49157  243.057
 3467.00    0.47783   0.49502   -1.000
 3468.00    0.49098   0.50005  239.476
 3469.00    0.50149   0.50468  233.165
 3470.00    0.50322   0.50738  230.499
 3471.00    0.50276   0.50573  231.531
 3472.00    0.49744   0.49836  237.699
 3473.00    0.49118   0.48525  243.057
 3474.00    0.48049   0.46861   -1.000
 3475.00    0.46657   0.45606   38.070
 3476.00    0.45976   0.45453   28.152
 3477.00    0.46329   0.46378   28.039
 3478.00    0.47980   0.47665   72.000
 3479.00    0.50387   0.48753   -1.000
 3480.00    0.51693   0.49322   -1.000
 3481.00    0.51675   0.49334   -1.000
 3482.00    0.51195   0.48885   -1.000
 3483.00    0.51125   0.48292   -1.000
 3484.00    0.51203   0.48195   -1.000
 3485.00    0.52159   0.49078   -1.000
 3486.00    0.52699   0.50520   -1.000
 3487.00    0.52809   0.51298   -1.000
 3488.00    0.51984   0.50734   -1.000
 3489.00    0.50779   0.49190   -1.000
 3490.00    0.49402   0.47861   -1.000
 3491.00    0.48656   0.47515   -1.000
 3492.00    0.48243   0.47851  243.057
 3493.00    0.49145   0.48044   -1.000
 3494.00    0.49417   0.47637   -1.000
 3495.00    0.48449   0.46943   -1.000
 3496.00    0.48431   0.46670   -1.000
 3497.00    0.48544   0.47509   -1.000
 3498.00    0.49671   0.49128  243.057
 3499.00    0.51523   0.50222   -1.000
 3500.00    0.52104   0.50481   -1.000
 3501.00    0.52216   0.50538   -1.000
 3502.00    0.52637   0.50844   -1.000
 3503.00    0.53489   0.51187   -1.000
 3504.00    0.53194   0.50929   -1.000
 3505.00    0.51803   0.50116   -1.000
 3506.00    0.51644   0.49421   -1.000
 3507.00    0.52472   0.49243   -1.000
 3508.00    0.52024   0.49386   -1.000
 3509.00    0.51731   0.49381   -1.000
 3510.00    0.51166   0.48977   -1.000
 3511.00    0.50889   0.48306   -1.000
 3512.00    0.50780   0.47544   -1.000
 3513.00    0.50380   0.46905   -1.000
 3514.00    0.49560   0.47146   -1.000
 3515.00    0.50514   0.48418   -1.000
 3516.00    0.51601   0.50155   -1.000
 3517.00    0.52748   0.51638   -1.000
 3518.00    0.52930   0.52130  216.294
 3519.00    0.52118   0.51503  219.919
 3520.00    0.51601   0.50154   -1.000
 3521.00    0.50744   0.48830   -1.000
 3522.00    0.49665   0.47793   -1.000
 3523.00    0.48863   0.46821   -1.000
 3524.00    0.48031   0.45969   37.978
 3525.00    0.46927   0.45546   27.873
 3526.00    0.46751   0.46003   28.058
 3527.00    0.48307   0.47478   71.815
 3528.00    0.49969   0.49359  243.057
 3529.00    0.50875   0.50703  233.396
 3530.00    0.52056   0.51077  227.007
 3531.00    0.52575   0.50790   -1.000
 3532.00    0.52620   0.50594   -1.000
 3533.00    0.52652   0.50978   -1.000
 3534.00    0.52469   0.51689  226.985
 3535.00    0.52370   0.52258  222.457
 3536.00    0.53160   0.52480  218.622
 3537.00    0.53818   0.52686   -1.000
 3538.00    0.54372   0.53184   -1.000
 3539.00    0.54640   0.53677  214.521
 3540.00    0.54258   0.53714  214.955
 3541.00    0.53646   0.53507  218.389
 3542.00    0.53599   0.53659  220.988
 3543.00    0.54021   0.54119  220.579
 3544.00    0.54416   0.54560  217.803
 3545.00    0.54374   0.54637  216.319
 3546.00    0.53747   0.54365  218.899
 3547.00    0.53366   0.54072  223.663
 3548.00    0.53157   0.53963  225.867
 3549.00    0.52589   0.54088  225.785
 3550.00    0.52807   0.54284  224.517
 3551.00    0.53022   0.54236  226.150
 3552.00    0.52733   0.53734  232.010
 3553.00    0.52095   0.52990  238.927
 3554.00    0.51743   0.52481  243.057
 3555.00    0.51972   0.52495  243.057
 3556.00    0.51831   0.52722  238.791
 3557.00    0.52261   0.52710  237.827
 3558.00    0.52279   0.52416  240.580
 3559.00    0.51600   0.52232  243.057
 3560.00    0.51728   0.52646  243.057
 3561.00    0.52303   0.53641  239.087
 3562.00    0.52680   0.54410   -1.000
 3563.00    0.52218   0.53804  237.088
 3564.00    0.51148   0.51469  243.057
 3565.00    0.49408   0.48938   38.460
 3566.00    0.48345   0.47660   28.242
 3567.00    0.48805   0.47627   28.378
 3568.00    0.48636   0.47634   28.162
 3569.00    0.47836   0.46815   28.769
 3570.00    0.47474   0.45786   29.448
 3571.00    0.47696   0.45576   28.970
 3572.00    0.48698   0.46302   27.785
 3573.00    0.49707   0.47187   69.980
 3574.00    0.49744   0.47653   -1.000
 3575.00    0.49942   0.47825   -1.000
 3576.00    0.50776   0.48002   -1.000
 3577.00    0.50918   0.48079   -1.000
 3578.00    0.50538   0.47615   -1.000
 3579.00    0.49041   0.46348   39.852
 3580.00    0.47008   0.44760   29.912
 3581.00    0.45982   0.43655   31.801
 3582.00    0.46103   0.43504   32.488
 3583.00    0.46222   0.43872   32.640
 3584.00    0.45716   0.43792   33.247
 3585.00    0.45201   0.43111   34.267
 3586.00    0.44527   0.42562   34.957
 3587.00    0.44276   0.42780   33.870
 3588.00    0.44911   0.43889   32.083
 3589.00    0.46936   0.45612   30.484
 3590.00    0.49121   0.47479   28.122
 3591.00    0.50958   0.48898   68.974
 3592.00    0.52249   0.49609   -1.000
 3593.00    0.52598   0.49865   -1.000
 3594.00    0.52785   0.50306   -1.000
 3595.00    0.52969   0.51300   -1.000
 3596.00    0.54173   0.52506   -1.000
 3597.00    0.55537   0.53516   -1.000
 3598.00    0.55905   0.54189   -1.000
 3599.00    0.55887   0.54396   -1.000
 3600.00    0.55696   0.53964   -1.000
 3601.00    0.54877   0.52820   -1.000
 3602.00    0.54015   0.51246   -1.000
 3603.00    0.53259   0.49849   -1.000
 3604.00    0.51925   0.49163   -1.000
 3605.00    0.52275   0.49202   -1.000
 3606.00    0.52720   0.49372   -1.000
 3607.00    0.52068   0.49133   -1.000
 3608.00    0.50476   0.48499   -1.000
 3609.00    0.49480   0.48139   -1.000
 3610.00    0.49914   0.48598   -1.000
 3611.00    0.50978   0.49401   -1.000
 3612.00    0.51700   0.50002   -1.000
 3613.00    0.52493   0.50468   -1.000
 3614.00    0.53520   0.51112   -1.000
 3615.00    0.54206   0.51795   -1.000
 3616.00    0.53496   0.51517   -1.000
 3617.00    0.52121   0.49788   -1.000
 3618.00    0.50693   0.47985   -1.000
 3619.00    0.49516   0.47590   38.223
 3620.00    0.50417   0.48803   68.179
 3621.00    0.52680   0.50719   -1.000
 3622.00    0.54774   0.52345   -1.000
 3623.00    0.55562   0.53296   -1.000
 3624.00    0.55736   0.54148   -1.000
 3625.00    0.56347   0.55507  205.463
 3626.00    0.57423   0.57129  197.102
 3627.00    0.57720   0.58221  192.516
 3628.00    0.57720   0.57751  194.059
 3629.00    0.56287   0.55394  203.322
 3630.00    0.53665   0.52250   -1.000
 3631.00    0.50842   0.49945  243.057
 3632.00    0.49771   0.49460  243.057
 3633.00    0.50954   0.50353  243.057
 3634.00    0.52285   0.51509  240.589
 3635.00    0.53672   0.52075   -1.000
 3636.00    0.54647   0.52358   -1.000
 3637.00    0.55142   0.53148   -1.000
 3638.00    0.56580   0.54473   -1.000
 3639.00    0.57427   0.55763   -1.000
 3640.00    0.57418   0.56147  196.522
 3641.00    0.56832   0.55435   -1.000
 3642.00    0.55479   0.54080   -1.000
 3643.00    0.53377   0.52697  215.970
 3644.00    0.52934   0.51785   -1.000
 3645.00    0.53389   0.51327   -1.000
 3646.00    0.53316   0.50929   -1.000
 3647.00    0.52734   0.50535   -1.000
 3648.00    0.52745   0.50445   -1.000
 3649.00    0.53571   0.50908   -1.000
 3650.00    0.53984   0.51984   -1.000
 3651.00    0.55117   0.53457   -1.000
 3652.00    0.56827   0.54825   -1.000
 3653.00    0.57725   0.55835   -1.000
 3654.00    0.58031   0.56438   -1.000
 3655.00    0.57700   0.56882  194.244
 3656.00    0.58096   0.57525  192.502
 3657.00    0.59094   0.58249  190.426
 3658.00    0.59129   0.58725  187.565
 3659.00    0.59544   0.58799  186.685
 3660.00    0.60252   0.58459   -1.000
 3661.00    0.59659   0.57786   -1.000
 3662.00    0.57972   0.56947  190.229
 3663.00    0.57540   0.56222  193.111
 3664.00    0.58816   0.55932   -1.000
 3665.00    0.58856   0.56028   -1.000
 3666.00    0.58347   0.56145   -1.000
 3667.00    0.57707   0.55866   -1.000
 3668.00    0.57167   0.55222   -1.000
 3669.00    0.57504   0.54945   -1.000
 3670.00    0.57736   0.55434   -1.000
 3671.00    0.58174   0.56391   -1.000
 3672.00    0.58745   0.57186   -1.000
 3673.00    0.58986   0.57408   -1.000
 3674.00    0.59056   0.57135   -1.000
 3675.00    0.58440   0.56404   -1.000
 3676.00    0.57476   0.55322   -1.000
 3677.00    0.57440   0.54184   -1.000
 3678.00    0.56657   0.53268   -1.000
 3679.00    0.55594   0.52859   -1.000
 3680.00    0.55740   0.52951   -1.000
 3681.00    0.56262   0.53385   -1.000
 3682.00    0.56872   0.53964   -1.000
 3683.00    0.57307   0.54309   -1.000
 3684.00    0.57247   0.53901   -1.000
 3685.00    0.56922   0.52629   -1.000
 3686.00    0.55883   0.51324   -1.000
 3687.00    0.55152   0.51046   -1.000
 3688.00    0.55616   0.52201   -1.000
 3689.00    0.56612   0.54154   -1.000
 3690.00    0.57793   0.55922   -1.000
 3691.00    0.59340   0.56796   -1.000
 3692.00    0.60132   0.57017   -1.000
 3693.00    0.60369   0.57134   -1.000
 3694.00    0.60070   0.57084   -1.000
 3695.00    0.59153   0.56635   -1.000
 3696.00    0.59266   0.56100   -1.000
 3697.00    0.59810   0.56408   -1.000
 3698.00    0.60929   0.58056   -1.000
 3699.00    0.62522   0.60250   -1.000
 3700.00    0.63440   0.61446   -1.000
 3701.00    0.63163   0.60449   -1.000
 3702.00    0.60984   0.57175   -1.000
 3703.00    0.58072   0.52942   -1.000
 3704.00    0.55130   0.49626   -1.000
 3705.00    0.53154   0.48578   -1.000
 3706.00    0.53457   0.49365   -1.000
 3707.00    0.55864   0.50823   -1.000
 3708.00    0.56966   0.52180   -1.000
 3709.00    0.56380   0.52770   -1.000
 3710.00    0.56393   0.52612   -1.000
 3711.00    0.57158   0.52785   -1.000
 3712.00    0.59481   0.54295   -1.000
 3713.00    0.61368   0.57046   -1.000
 3714.00    0.63182   0.60029   -1.000
 3715.00    0.65598   0.62095   -1.000
 3716.00    0.66497   0.62721   -1.000
 3717.00    0.64631   0.61661   -1.000
 3718.00    0.61103   0.58560   -1.000
 3719.00    0.56272   0.53568   -1.000
 3720.00    0.51725   0.48487   -1.000
 3721.00    0.49812   0.45568   39.437
 3722.00    0.50985   0.46090   -1.000
 3723.00    0.54433   0.49670   -1.000
 3724.00    0.58487   0.54542   -1.000
 3725.00    0.61974   0.58314   -1.000
 3726.00    0.63326   0.60034   -1.000
 3727.00    0.63480   0.60726   -1.000
 3728.00    0.63550   0.61389   -1.000
 3729.00    0.64372   0.61716   -1.000
 3730.00    0.63887   0.60522   -1.000
 3731.00    0.61452   0.56998   -1.000
 3732.00    0.57146   0.51668   -1.000
 3733.00    0.51367   0.46141   38.569
 3734.00    0.47152   0.42355   29.219
 3735.00    0.46161   0.41577   31.145
 3736.00    0.48039   0.43973   30.444
 3737.00    0.52105   0.48722   27.978
 3738.00    0.57172   0.54486   65.928
 3739.00    0.62161   0.59679   -1.000
 3740.00    0.65501   0.63138   -1.000
 3741.00    0.66318   0.64406   -1.000
 3742.00    0.65552   0.63693   -1.000
 3743.00    0.63958   0.61643   -1.000
 3744.00    0.61780   0.59048   -1.000
 3745.00    0.59415   0.56332   -1.000
 3746.00    0.56921   0.53342   -1.000
 3747.00    0.54143   0.49561   39.351
 3748.00    0.50669   0.45369   28.663
 3749.00    0.47836   0.42657   29.491
 3750.00    0.48597   0.43163   -1.000
 3751.00    0.52678   0.47013   -1.000
 3752.00    0.57891   0.52777   -1.000
 3753.00    0.63391   0.58695   -1.000
 3754.00    0.67299   0.63346   -1.000
 3755.00    0.69091   0.65770   -1.000
 3756.00    0.69314   0.65463   -1.000
 3757.00    0.66969   0.63272   -1.000
 3758.00    0.63991   0.60961   -1.000
 3759.00    0.63060   0.60046   -1.000
 3760.00    0.64295   0.60670   -1.000
 3761.00    0.66216   0.61884   -1.000
 3762.00    0.67823   0.62888   -1.000
 3763.00    0.67842   0.63283   -1.000
 3764.00    0.67398   0.62849   -1.000
 3765.00    0.67170   0.61518   -1.000
 3766.00    0.64993   0.59410   -1.000
 3767.00    0.62790   0.56673   -1.000
 3768.00    0.60301   0.53499   -1.000
 3769.00    0.58146   0.50362   -1.000
 3770.00    0.56855   0.48530   -1.000
 3771.00    0.57829   0.49421   -1.000
 3772.00    0.60014   0.52848   -1.000
 3773.00    0.62624   0.57022   -1.000
 3774.00    0.66136   0.60528   -1.000
 3775.00    0.68835   0.63173   -1.000
 3776.00    0.70832   0.65527   -1.000
 3777.00    0.72247   0.67930   -1.000
 3778.00    0.73771   0.70318   -1.000
 3779.00    0.75522   0.72522   -1.000
 3780.00    0.76813   0.74253   -1.000
 3781.00    0.78226   0.75456   -1.000
 3782.00    0.79316   0.76190   -1.000
 3783.00    0.78985   0.76326   -1.000
 3784.00    0.77913   0.75507   -1.000
 3785.00    0.76983   0.73550   -1.000
 3786.00    0.75353   0.71057   -1.000
 3787.00    0.72828   0.68888   -1.000
 3788.00    0.71021   0.67471   -1.000
 3789.00    0.70407   0.66727   -1.000
 3790.00    0.70266   0.66295   -1.000
 3791.00    0.69740   0.65528   -1.000
 3792.00    0.68362   0.63851   -1.000
 3793.00    0.66169   0.61082   -1.000
 3794.00    0.63127   0.57472   -1.000
 3795.00    0.60040   0.53367   -1.000
 3796.00    0.56369   0.49045   -1.000
 3797.00    0.52449   0.45415   -1.000
 3798.00    0.51223   0.44327   -1.000
 3799.00    0.54013   0.46927   -1.000
 3800.00    0.58721   0.52274   -1.000
 3801.00    0.63448   0.58440   -1.000
 3802.00    0.67464   0.63712   -1.000
 3803.00    0.70670   0.67418   -1.000
 3804.00    0.72448   0.69487   -1.000
 3805.00    0.72665   0.70170   -1.000
 3806.00    0.72508   0.70237   -1.000
 3807.00    0.73480   0.70917   -1.000
 3808.00    0.75353   0.72703   -1.000
 3809.00    0.77072   0.75100   -1.000
 3810.00    0.78382   0.77231  190.569
 3811.00    0.78161   0.77773  192.420
 3812.00    0.76385   0.76052  200.682
 3813.00    0.74664   0.72864   -1.000
 3814.00    0.73327   0.69836   -1.000
 3815.00    0.71509   0.68583   -1.000
 3816.00    0.71686   0.69247   -1.000
 3817.00    0.73183   0.70293   -1.000
 3818.00    0.73444   0.70098   -1.000
 3819.00    0.71585   0.68364   -1.000
 3820.00    0.69669   0.66626   -1.000
 3821.00    0.69851   0.66335   -1.000
 3822.00    0.70605   0.66809   -1.000
 3823.00    0.69799   0.66335   -1.000
 3824.00    0.68006   0.64300   -1.000
 3825.00    0.65216   0.61718   41.022
 3826.00    0.63566   0.59830   28.822
 3827.00    0.62838   0.58805   28.854
 3828.00    0.62458   0.58103   28.451
 3829.00    0.61970   0.57047   27.984
 3830.00    0.60680   0.55159   28.066
 3831.00    0.57329   0.52231   29.044
 3832.00    0.53162   0.48368   31.046
 3833.00    0.49566   0.44233   32.527
 3834.00    0.47644   0.41003   32.402
 3835.00    0.47591   0.39734   31.288
 3836.00    0.47820   0.40608   30.409
 3837.00    0.49141   0.42923   30.627
 3838.00    0.51313   0.45931   31.354
 3839.00    0.54269   0.49534   31.223
 3840.00    0.57939   0.53792   29.811
 3841.00    0.62171   0.58441   70.015
 3842.00    0.66585   0.63000   -1.000
 3843.00    0.70456   0.66743   -1.000
 3844.00    0.72124   0.69337   -1.000
 3845.00    0.73229   0.71220   -1.000
 3846.00    0.74761   0.72948   -1.000
 3847.00    0.75567   0.74342  220.582
 3848.00    0.75200   0.74822  224.319
 3849.00    0.75108   0.74701  232.100
 3850.00    0.75078   0.74840  237.602
 3851.00    0.75594   0.75762  235.005
 3852.00    0.76594   0.76958  228.911
 3853.00    0.77005   0.77373  227.943
 3854.00    0.76411   0.76726  232.451
 3855.00    0.75894   0.75596  239.087
 3856.00    0.75046   0.74481  243.057
 3857.00    0.73287   0.73381  243.057
 3858.00    0.71582   0.72305   38.990
 3859.00    0.70221   0.71800   28.021
 3860.00    0.70610   0.72557   28.186
 3861.00    0.73476   0.74409   66.605
 3862.00    0.76744   0.76422  232.966
 3863.00    0.78710   0.77481  218.162
 3864.00    0.79133   0.77564   -1.000
 3865.00    0.78577   0.77330  219.431
 3866.00    0.78283   0.77230  223.126
 3867.00    0.78434   0.77349  227.152
 3868.00    0.77589   0.77273  234.701
 3869.00    0.75882   0.76414  243.057
 3870.00    0.73750   0.74568  243.057
 3871.00    0.72082   0.72276   39.643
 3872.00    0.71256   0.70804   65.709
 3873.00    0.72470   0.71113   -1.000
 3874.00    0.74673   0.72862   -1.000
 3875.00    0.76132   0.74160   -1.000
 3876.00    0.75586   0.73512   -1.000
 3877.00    0.73234   0.71339   -1.000
 3878.00    0.70449   0.69319  243.057
 3879.00    0.69075   0.68460  243.057
 3880.00    0.68367   0.68221  243.057
 3881.00    0.67448   0.67597  243.057
 3882.00    0.66289   0.66276  243.057
 3883.00    0.65972   0.64425   -1.000
 3884.00    0.65985   0.61897   -1.000
 3885.00    0.64482   0.58093   -1.000
 3886.00    0.61184   0.53181   -1.000
 3887.00    0.56775   0.48536   -1.000
 3888.00    0.53575   0.45711   -1.000
 3889.00    0.53864   0.45986   -1.000
 3890.00    0.57333   0.49452   -1.000
 3891.00    0.63382   0.54685   -1.000
 3892.00    0.68569   0.59503   -1.000
 3893.00    0.70190   0.62784   -1.000
 3894.00    0.71090   0.64930   -1.000
 3895.00    0.72717   0.67003   -1.000
 3896.00    0.74441   0.69286   -1.000
 3897.00    0.76288   0.71176   -1.000
 3898.00    0.77432   0.72294   -1.000
 3899.00    0.78192   0.73071   -1.000
 3900.00    0.79157   0.74155   -1.000
 3901.00    0.79582   0.75408   -1.000
 3902.00    0.79722   0.76203   -1.000
 3903.00    0.79819   0.76076   -1.000
 3904.00    0.79322   0.75366   -1.000
 3905.00    0.78389   0.75047   -1.000
 3906.00    0.78450   0.75905   -1.000
 3907.00    0.80897   0.78147   -1.000
 3908.00    0.83632   0.80986   -1.000
 3909.00    0.85583   0.83155   -1.000
 3910.00    0.86281   0.84327   -1.000
 3911.00    0.86333   0.84781  165.649
 3912.00    0.85814   0.84742  164.467
 3913.00    0.85179   0.84368  165.443
 3914.00    0.84321   0.83880  168.420
 3915.00    0.84666   0.83457  172.255
 3916.00    0.85249   0.83111   -1.000
 3917.00    0.84088   0.82612   -1.000
 3918.00    0.83099   0.81727   -1.000
 3919.00    0.82354   0.80550   -1.000
 3920.00    0.81591   0.79505   -1.000
 3921.00    0.80280   0.79134  203.542
 3922.00    0.79988   0.79490  203.648
 3923.00    0.80515   0.80011  200.451
 3924.00    0.80237   0.79878  200.237
 3925.00    0.78743   0.78563  207.425
 3926.00    0.75579   0.76016  224.183
 3927.00    0.71472   0.72508  243.057
 3928.00    0.66256   0.68499   43.747
 3929.00    0.60754   0.64122   33.269
 3930.00    0.56163   0.59024   38.954
 3931.00    0.49704   0.53043   45.903
 3932.00    0.42469   0.47080   53.941
 3933.00    0.37623   0.43359   -1.000
 3934.00    0.37605   0.43737   -1.000
 3935.00    0.42763   0.48094   54.247
 3936.00    0.49965   0.54568   45.501
 3937.00    0.56673   0.61221   37.430
 3938.00    0.62768   0.66825   31.238
 3939.00    0.67957   0.71248   69.066
 3940.00    0.71531   0.74407   -1.000
 3941.00    0.73424   0.76119   -1.000
 3942.00    0.74340   0.76611   -1.000
 3943.00    0.74971   0.76495   -1.000
 3944.00    0.76578   0.76751  222.940
 3945.00    0.78895   0.77848  205.324
 3946.00    0.81463   0.79164   -1.000
 3947.00    0.82530   0.80016   -1.000
 3948.00    0.82493   0.80501   -1.000
 3949.00    0.83570   0.80959   -1.000
 3950.00    0.84418   0.81187   -1.000
 3951.00    0.83524   0.81001   -1.000
 3952.00    0.83293   0.80806   -1.000
 3953.00    0.84960   0.80975   -1.000
 3954.00    0.85258   0.81040   -1.000
 3955.00    0.84277   0.80252   -1.000
 3956.00    0.82484   0.78956   -1.000
 3957.00    0.80752   0.78106   -1.000
 3958.00    0.80532   0.77601   -1.000
 3959.00    0.79712   0.76259   -1.000
 3960.00    0.77161   0.73182   -1.000
 3961.00    0.72650   0.68961   -1.000
 3962.00    0.67874   0.64949   -1.000
 3963.00    0.63832   0.61403   -1.000
 3964.00    0.59033   0.57509   41.476
 3965.00    0.52827   0.52179   31.314
 3966.00    0.44741   0.45186   37.911
 3967.00    0.36407   0.38023   46.558
 3968.00    0.30960   0.32776   53.469
 3969.00    0.30299   0.31145   52.723
 3970.00    0.34189   0.33537   45.088
 3971.00    0.40680   0.38994   37.060
 3972.00    0.48329   0.45849   30.830
 3973.00    0.56167   0.52806   67.296
 3974.00    0.62860   0.59046   -1.000
 3975.00    0.68337   0.64353   -1.000
 3976.00    0.73011   0.68854   -1.000
 3977.00    0.76898   0.72834   -1.000
 3978.00    0.80775   0.76527   -1.000
 3979.00    0.83549   0.79543   -1.000
 3980.00    0.85304   0.81369   -1.000
 3981.00    0.86475   0.82020   -1.000
 3982.00    0.86357   0.82295   -1.000
 3983.00    0.87074   0.82976   -1.000
 3984.00    0.88436   0.84113   -1.000
 3985.00    0.89552   0.85341   -1.000
 3986.00    0.90754   0.86512   -1.000
 3987.00    0.92225   0.87748   -1.000
 3988.00    0.93126   0.88995   -1.000
 3989.00    0.93897   0.90029   -1.000
 3990.00    0.94136   0.90922   -1.000
 3991.00    0.95264   0.91893   -1.000
 3992.00    0.95936   0.92810   -1.000
 3993.00    0.95776   0.93169   -1.000
 3994.00    0.95223   0.92695   -1.000
 3995.00    0.94127   0.91613   -1.000
 3996.00    0.92739   0.90551   -1.000
 3997.00    0.91535   0.90277  148.325
 3998.00    0.91797   0.91068  146.497
 3999.00    0.94390   0.92504  140.823
 4000.00    0.96288   0.94020   -1.000
 4001.00    0.97397   0.95026   -1.000
 4002.00    0.98633   0.95025   -1.000
 4003.00    0.98629   0.93813   -1.000
 4004.00    0.96009   0.91735   -1.000
 4005.00    0.93035   0.89985   -1.000
 4006.00    0.93440   0.90094   -1.000
 4007.00    0.95430   0.92017   -1.000
 4008.00    0.97696   0.94380   -1.000
 4009.00    0.98871   0.96072   -1.000
 4010.00    0.99796   0.96851   -1.000
 4011.00    0.99549   0.97068   -1.000
 4012.00    0.98931   0.97145  130.664
 4013.00    0.99026   0.97338  131.471
 4014.00    0.99301   0.97625  131.059
 4015.00    0.99640   0.97833  129.467
 4016.00    0.99664   0.97972  129.563
 4017.00    0.99311   0.98220  131.043
 4018.00    0.99300   0.98723  131.185
 4019.00    1.00304   0.99319  129.589
 4020.00    1.00928   0.99672  129.090
 4021.00    1.00695   0.99583  130.477
 4022.00    1.00363   0.99064  131.659
 4023.00    0.99497   0.98220  132.477
 4024.00    0.98686   0.97529  133.460
 4025.00    0.98336   0.97686  131.607
 4026.00    1.00029   0.98822  127.325
 4027.00    1.02237   1.00038  124.061
 4028.00    1.01996   0.99960  123.959
 4029.00    0.99689   0.98277  127.739
 4030.00    0.96873   0.95941  135.358
 4031.00    0.95260   0.94135  142.390
 4032.00    0.94576   0.93585  145.539
 4033.00    0.95282   0.94235  144.861
 4034.00    0.96708   0.95730  141.043
 4035.00    0.99035   0.97772  134.796
 4036.00    1.01455   1.00194  128.103
 4037.00    1.03697   1.02330  122.986
 4038.00    1.04524   1.03211  121.219
 4039.00    1.03195   1.02728  122.797
 4040.00    1.01656   1.01844  125.669
 4041.00    1.01590   1.01168  127.610
 4042.00    1.01542   1.00146  128.472
 4043.00    1.00187   0.97683   -1.000
 4044.00    0.96191   0.94039   -1.000
 4045.00    0.93258   0.91619  155.771
 4046.00    0.93451   0.92184  155.518
 4047.00    0.97314   0.95267  142.968
 4048.00    1.00617   0.98934  132.463
 4049.00    1.02026   1.01401  127.288
 4050.00    1.02858   1.02191  125.120
 4051.00    1.03088   1.01747  125.211
 4052.00    1.02266   1.00600  127.796
 4053.00    1.01184   0.99298  131.222
 4054.00    1.00617   0.98451  133.734
 4055.00    1.00255   0.97992   -1.000
 4056.00    1.00000   0.97563   -1.000
 4057.00    0.99220   0.97370  137.345
 4058.00    0.99402   0.97891  136.775
 4059.00    1.00675   0.99049  132.880
 4060.00    1.01776   0.99632  129.455
 4061.00    1.01456   0.98421   -1.000
 4062.00    0.98768   0.95761   -1.000
 4063.00    0.96216   0.93167   -1.000
 4064.00    0.95572   0.92034   -1.000
 4065.00    0.97273   0.92426   -1.000
 4066.00    0.98488   0.93598   -1.000
 4067.00    0.99667   0.94952   -1.000
 4068.00    1.01022   0.96107   -1.000
 4069.00    1.01738   0.96251   -1.000
 4070.00    1.00338   0.94988   -1.000
 4071.00    0.98169   0.93351   -1.000
 4072.00    0.97843   0.92841   -1.000
 4073.00    0.99333   0.93552   -1.000
 4074.00    0.99731   0.93850   -1.000
 4075.00    0.97853   0.92499   -1.000
 4076.00    0.95162   0.90126   -1.000
 4077.00    0.92805   0.88439   -1.000
 4078.00    0.92862   0.88800   -1.000
 4079.00    0.95671   0.91142   -1.000
 4080.00    0.98673   0.94087   -1.000
 4081.00    1.00445   0.95806   -1.000
 4082.00    0.99788   0.95574   -1.000
 4083.00    0.98600   0.94105   -1.000
 4084.00    0.97273   0.92838   -1.000
 4085.00    0.97367   0.92831   -1.000
 4086.00    0.98952   0.94069   -1.000
 4087.00    1.00198   0.95644   -1.000
 4088.00    1.01370   0.96415   -1.000
 4089.00    1.01737   0.95925   -1.000
 4090.00    1.00726   0.94573   -1.000
 4091.00    0.98882   0.93139   -1.000
 4092.00    0.97253   0.91883   -1.000
 4093.00    0.96604   0.90378   -1.000
 4094.00    0.95676   0.88153   -1.000
 4095.00    0.92955   0.85210   -1.000
 4096.00    0.90236   0.82000   -1.000
 4097.00    0.87178   0.78666   -1.000
 4098.00    0.84280   0.74594   -1.000
 4099.00    0.80129   0.69135   -1.000
 4100.00    0.73445   0.63014   -1.000
 4101.00    0.67541   0.58673   -1.000
 4102.00    0.66961   0.58522   -1.000
 4103.00    0.72264   0.62920   -1.000
 4104.00    0.79558   0.69722   -1.000
 4105.00    0.85312   0.76037   -1.000
 4106.00    0.88410   0.80545   -1.000
 4107.00    0.90196   0.83371   -1.000
 4108.00    0.91409   0.85087   -1.000
 4109.00    0.92218   0.86319   -1.000
 4110.00    0.93007   0.87632   -1.000
 4111.00    0.93944   0.89230   -1.000
 4112.00    0.95247   0.91007   -1.000
 4113.00    0.97081   0.92903   -1.000
 4114.00    0.98694   0.94803   -1.000
 4115.00    0.99403   0.96255   -1.000
 4116.00    1.00058   0.96794   -1.000
 4117.00    0.99642   0.96378   -1.000
 4118.00    0.98414   0.95583   -1.000
 4119.00    0.97914   0.95113   -1.000
 4120.00    0.97795   0.95311  136.031
 4121.00    0.98568   0.95933   -1.000
 4122.00    0.99372   0.96648   -1.000
 4123.00    1.00116   0.97475   -1.000
 4124.00    1.01662   0.98351   -1.000
 4125.00    1.01777   0.98814   -1.000
 4126.00    1.01460   0.98470   -1.000
 4127.00    1.00658   0.97677   -1.000
 4128.00    0.99675   0.97158   -1.000
 4129.00    0.99416   0.97035  136.095
 4130.00    0.99067   0.96641   -1.000
 4131.00    0.97788   0.95621  140.893
 4132.00    0.95684   0.94655  145.400
 4133.00    0.96023   0.94777  147.260
 4134.00    0.97929   0.96370  144.133
 4135.00    0.99919   0.98849  137.613
 4136.00    1.01961   1.01354  132.247
 4137.00    1.03714   1.03294  129.393
 4138.00    1.04637   1.04566  127.374
 4139.00    1.05223   1.04960  126.352
 4140.00    1.04677   1.04013  127.878
 4141.00    1.02033   1.01610  133.205
 4142.00    0.98451   0.98597  143.037
 4143.00    0.96029   0.96451  152.348
 4144.00    0.96900   0.96505  151.356
 4145.00    0.99829   0.98508  143.248
 4146.00    1.01338   1.00741  136.728
 4147.00    1.01537   1.01836  134.069
 4148.00    1.00825   1.01819  135.281
 4149.00    1.00529   1.01598  138.716
 4150.00    1.00141   1.01696  141.231
 4151.00    1.00559   1.01800  141.139
 4152.00    1.00338   1.01392  140.212
 4153.00    0.99292   1.00470  140.786
 4154.00    0.98302   0.99651  142.795
 4155.00    0.98590   0.99535  141.265
 4156.00    0.99061   1.00245  139.173
 4157.00    0.99982   1.01499  139.973
 4158.00    1.01269   1.02888  136.599
 4159.00    1.05435   1.03992  135.243
 4160.00    1.14757   1.04660   -1.000
 4161.00    1.09968   1.05129   -1.000
 4162.00    0.95747   1.05675   -1.000
 4163.00    0.96089   1.06230   -1.000
 4164.00    1.03614   1.06439   -1.000
 4165.00    1.03391   1.05967   -1.000
 4166.00    1.01360   1.04944   -1.000
 4167.00    1.01488   1.04018   -1.000
 4168.00    1.02070   1.03622  138.730
 4169.00    1.01924   1.03146  136.733
 4170.00    1.01098   1.01579  136.798
 4171.00    0.98583   0.98898  142.608
 4172.00    0.95058   0.96434  151.393
 4173.00    0.93353   0.95812   -1.000
 4174.00    0.94581   0.97104   -1.000
 4175.00    0.96886   0.98896   -1.000
 4176.00    0.97794   0.99906   -1.000
 4177.00    0.97426   1.00247   -1.000
 4178.00    0.98348   1.00791   -1.000
 4179.00    0.99662   1.01720   -1.000
 4180.00    0.99871   1.02381   -1.000
 4181.00    0.99947   1.02391   -1.000
 4182.00    1.00191   1.02229   -1.000
 4183.00    1.00498   1.02588   -1.000
 4184.00    1.01343   1.03213  134.600
 4185.00    1.01570   1.03198  133.897
 4186.00    0.99862   1.02353   -1.000
 4187.00    0.98340   1.01422   -1.000
 4188.00    0.98552   1.01255   -1.000
 4189.00    0.99500   1.01890   -1.000
 4190.00    1.00140   1.02800   -1.000
 4191.00    1.01086   1.03763   -1.000
 4192.00    1.02191   1.04706   -1.000
 4193.00    1.03074   1.05113  131.257
 4194.00    1.02683   1.04431  133.131
 4195.00    1.01060   1.02668  139.146
 4196.00    0.98880   1.00411  144.801
 4197.00    0.96725   0.98441  148.101
 4198.00    0.96072   0.97187  149.188
 4199.00    0.96269   0.96721  148.194
 4200.00    0.97116   0.96933  146.036
 4201.00    0.98371   0.97548  144.948
 4202.00    0.98718   0.98395  144.233
 4203.00    0.98432   0.99589  142.406
 4204.00    0.98722   1.01145   -1.000
 4205.00    0.99403   1.02831   -1.000
 4206.00    1.00788   1.04404   -1.000
 4207.00    1.02372   1.05521   -1.000
 4208.00    1.02974   1.05932   -1.000
 4209.00    1.02865   1.05853   -1.000
 4210.00    1.02518   1.05901   -1.000
 4211.00    1.02432   1.06387   -1.000
 4212.00    1.02529   1.06738   -1.000
 4213.00    1.01970   1.06015   -1.000
 4214.00    0.99612   1.04179   -1.000
 4215.00    0.97319   1.02398   -1.000
 4216.00    0.97016   1.01949   -1.000
 4217.00    0.99650   1.03207   -1.000
 4218.00    1.02643   1.05309   -1.000
 4219.00    1.04120   1.06970   -1.000
 4220.00    1.05485   1.07616  121.534
 4221.00    1.05881   1.07093  121.820
 4222.00    1.03644   1.05136  125.493
 4223.00    1.00393   1.01600  133.080
 4224.00    0.97013   0.96966  144.955
 4225.00    0.91879   0.92480  162.666
 4226.00    0.87630   0.90111   -1.000
 4227.00    0.88213   0.91456   -1.000
 4228.00    0.93812   0.96094   -1.000
 4229.00    1.00094   1.01311  138.625
 4230.00    1.03830   1.04590  129.089
 4231.00    1.03840   1.05203  126.175
 4232.00    1.02157   1.04034  127.760
 4233.00    1.01371   1.02476  131.033
 4234.00    1.01142   1.01405  133.094
 4235.00    1.00690   1.00896  135.550
 4236.00    0.99633   1.00780  138.312
 4237.00    0.99330   1.01130  138.502
 4238.00    1.00667   1.02040  135.949
 4239.00    1.01649   1.03256  133.544
 4240.00    1.02284   1.04421  131.222
 4241.00    1.02831   1.05323   -1.000
 4242.00    1.03284   1.06083   -1.000
 4243.00    1.03965   1.06790   -1.000
 4244.00    1.04799   1.07111  124.054
 4245.00    1.04738   1.06475  123.965
 4246.00    1.02665   1.04758  128.202
 4247.00    1.00109   1.02741   -1.000
 4248.00    0.98163   1.01436   -1.000
 4249.00    0.97616   1.01232   -1.000
 4250.00    0.98229   1.01975   -1.000
 4251.00    1.00033   1.03121   -1.000
 4252.00    1.02010   1.03919  133.159
 4253.00    1.02013   1.03747  132.334
 4254.00    1.00927   1.03142  135.041
 4255.00    1.01020   1.03285  135.247
 4256.00    1.02643   1.04132  131.038
 4257.00    1.03449   1.04341  128.479
 4258.00    1.02049   1.02978  131.363
 4259.00    1.00235   1.00859  137.993
 4260.00    0.98699   0.99919  143.115
 4261.00    0.98749   1.01271   -1.000
 4262.00    1.01485   1.04260   -1.000
 4263.00    1.04663   1.07190  125.942
 4264.00    1.06114   1.08966   -1.000
 4265.00    1.06579   1.09397   -1.000
 4266.00    1.06299   1.08807  122.071
 4267.00    1.04495   1.07476   -1.000
 4268.00    1.02666   1.05375   -1.000
 4269.00    1.01544   1.02524  134.052
 4270.00    0.98771   0.99401  141.614
 4271.00    0.95218   0.96830  150.695
 4272.00    0.93958   0.95719   -1.000
 4273.00    0.94587   0.96263  153.148
 4274.00    0.95441   0.97934   -1.000
 4275.00    0.97130   1.00413   -1.000
 4276.00    1.00523   1.03465   -1.000
 4277.00    1.03426   1.06028   -1.000
 4278.00    1.03802   1.06912   -1.000
 4279.00    1.01921   1.06121   -1.000
 4280.00    0.99935   1.04860   -1.000
 4281.00    0.99342   1.04196   -1.000
 4282.00    0.99600   1.04231   -1.000
 4283.00    1.00528   1.04207   -1.000
 4284.00    1.00921   1.03645   -1.000
 4285.00    0.99543   1.02680   -1.000
 4286.00    0.97532   1.01379   -1.000
 4287.00    0.96502   0.99629   -1.000
 4288.00    0.94901   0.97343   -1.000
 4289.00    0.92576   0.95241   -1.000
 4290.00    0.91761   0.94731   -1.000
 4291.00    0.93726   0.96203   -1.000
 4292.00    0.96218   0.98389   -1.000
 4293.00    0.97474   0.99736   -1.000
 4294.00    0.97659   0.99667  138.739
 4295.00    0.97527   0.98613  140.756
 4296.00    0.96854   0.96890  143.683
 4297.00    0.93650   0.94328  149.549
 4298.00    0.89495   0.91021  160.677
 4299.00    0.86068   0.87983   -1.000
 4300.00    0.84321   0.86251   -1.000
 4301.00    0.84505   0.86092  176.599
 4302.00    0.85710   0.87051  172.873
 4303.00    0.87175   0.88493  170.300
 4304.00    0.88649   0.89774  168.052
 4305.00    0.89319   0.90078  167.809
 4306.00    0.88070   0.88983  171.872
 4307.00    0.85461   0.87188   -1.000
 4308.00    0.84028   0.86133   -1.000
 4309.00    0.84891   0.86876   -1.000
 4310.00    0.86444   0.89029   -1.000
 4311.00    0.88479   0.91330   -1.000
 4312.00    0.90490   0.93300   -1.000
 4313.00    0.92141   0.95589   -1.000
 4314.00    0.94992   0.98948   -1.000
 4315.00    0.99872   1.03398   -1.000
 4316.00    1.04790   1.07733   -1.000
 4317.00    1.07613   1.10565   -1.000
 4318.00    1.08444   1.11307   -1.000
 4319.00    1.08044   1.10389  114.955
 4320.00    1.06806   1.08527  117.320
 4321.00    1.04696   1.05856  120.854
 4322.00    1.01519   1.02229  126.186
 4323.00    0.97567   0.97950  134.446
 4324.00    0.93644   0.94175  145.879
 4325.00    0.91875   0.92621  154.472
 4326.00    0.93605   0.94244  149.840
 4327.00    0.97652   0.98100  135.666
 4328.00    1.01909   1.01643  124.235
 4329.00    1.04276   1.03270  119.657
 4330.00    1.03994   1.03241  119.315
 4331.00    1.02644   1.02673  119.121
 4332.00    1.02131   1.02237  117.492
 4333.00    1.02249   1.01530  115.958
 4334.00    1.01573   0.99743  115.400
 4335.00    0.99431   0.96120   -1.000
 4336.00    0.95249   0.90208   -1.000
 4337.00    0.88599   0.82457   -1.000
 4338.00    0.80842   0.74530   -1.000
 4339.00    0.74322   0.68624   -1.000
 4340.00    0.71502   0.66777   -1.000
 4341.00    0.73597   0.69735   -1.000
 4342.00    0.80621   0.76084   -1.000
 4343.00    0.88259   0.83089   -1.000
 4344.00    0.92796   0.88960   -1.000
 4345.00    0.96308   0.93519  123.800
 4346.00    0.99426   0.97240  121.269
 4347.00    1.01539   1.00279  119.751
 4348.00    1.02899   1.02245  118.038
 4349.00    1.03038   1.02372  117.549
 4350.00    1.00984   1.00576  121.898
 4351.00    0.98320   0.98385  130.393
 4352.00    0.97045   0.97919  135.127
 4353.00    0.99062   0.99849  131.940
 4354.00    1.02742   1.03030  125.988
 4355.00    1.04993   1.05844  121.464
 4356.00    1.06639   1.07591  118.556
 4357.00    1.06730   1.08366  117.749
 4358.00    1.05866   1.08598   -1.000
 4359.00    1.05001   1.08969   -1.000
 4360.00    1.06425   1.10041   -1.000
 4361.00    1.08531   1.11623   -1.000
 4362.00    1.09388   1.13068   -1.000
 4363.00    1.10417   1.14205   -1.000
 4364.00    1.10951   1.14961   -1.000
 4365.00    1.10374   1.14796   -1.000
 4366.00    1.08961   1.13423   -1.000
 4367.00    1.07233   1.11494   -1.000
 4368.00    1.06684   1.09926   -1.000
 4369.00    1.07162   1.09093  121.110
 4370.00    1.07196   1.08745  120.146
 4371.00    1.07573   1.08260  119.831
 4372.00    1.07280   1.07068  120.586
 4373.00    1.05406   1.05219  124.228
 4374.00    1.03318   1.03663  129.341
 4375.00    1.02690   1.03660  131.200
 4376.00    1.04340   1.05572  127.531
 4377.00    1.07171   1.08295  121.375
 4378.00    1.08974   1.10371  117.824
 4379.00    1.09778   1.10888  117.638
 4380.00    1.09424   1.09349  119.314
 4381.00    1.06799   1.05556  123.736
 4382.00    1.01944   1.00284  134.649
 4383.00    0.96734   0.95728  150.108
 4384.00    0.94832   0.94561  157.188
 4385.00    0.97799   0.97169  147.657
 4386.00    1.02090   1.01176  133.498
 4387.00    1.05050   1.04129  126.281
 4388.00    1.06386   1.05367  125.068
 4389.00    1.06071   1.05715  126.079
 4390.00    1.05870   1.06122  126.856
 4391.00    1.07096   1.06914  125.362
 4392.00    1.08007   1.07664  122.598
 4393.00    1.08041   1.07697  122.150
 4394.00    1.06603   1.07312  124.301
 4395.00    1.06156   1.07721  125.024
 4396.00    1.07608   1.09271  120.992
 4397.00    1.10025   1.10668  116.647
 4398.00    1.10934   1.10557  116.552
 4399.00    1.08634   1.09242  120.054
 4400.00    1.06402   1.08103  124.020
 4401.00    1.06846   1.07859  124.336
 4402.00    1.08410   1.07750  122.229
 4403.00    1.07920   1.06754  124.172
 4404.00    1.05657   1.05295  130.610
 4405.00    1.04363   1.04703  134.106
 4406.00    1.04877   1.05393  131.346
 4407.00    1.05339   1.06688  128.427
 4408.00    1.05575   1.08140   -1.000
 4409.00    1.06570   1.10154   -1.000
 4410.00    1.09192   1.12726   -1.000
 4411.00    1.11768   1.14709   -1.000
 4412.00    1.12637   1.14917  111.723
 4413.00    1.11829   1.13075  113.256
 4414.00    1.09260   1.09973  118.675
 4415.00    1.06344   1.07363  124.005
 4416.00    1.05256   1.06901  125.046
 4417.00    1.06415   1.08826   -1.000
 4418.00    1.08775   1.11991   -1.000
 4419.00    1.10933   1.14849   -1.000
 4420.00    1.11337   1.16060   -1.000
 4421.00    1.10570   1.15540   -1.000
 4422.00    1.08665   1.14445   -1.000
 4423.00    1.07262   1.13812   -1.000
 4424.00    1.07421   1.13746   -1.000
 4425.00    1.07011   1.13772   -1.000
 4426.00    1.05971   1.13740   -1.000
 4427.00    1.06245   1.13947   -1.000
 4428.00    1.07333   1.14371   -1.000
 4429.00    1.07445   1.14731   -1.000
 4430.00    1.07477   1.14904   -1.000
 4431.00    1.08390   1.14797   -1.000
 4432.00    1.08611   1.14153   -1.000
 4433.00    1.07649   1.12751   -1.000
 4434.00    1.05817   1.11134   -1.000
 4435.00    1.04472   1.10731   -1.000
 4436.00    1.06034   1.12437   -1.000
 4437.00    1.10217   1.15494   -1.000
 4438.00    1.13613   1.18118   -1.000
 4439.00    1.14124   1.18867   -1.000
 4440.00    1.12562   1.17383   -1.000
 4441.00    1.10238   1.14516   -1.000
 4442.00    1.07655   1.12092   -1.000
 4443.00    1.06052   1.11671   -1.000
 4444.00    1.07998   1.13486   -1.000
 4445.00    1.11080   1.16266   -1.000
 4446.00    1.12907   1.18389   -1.000
 4447.00    1.13991   1.19222   -1.000
 4448.00    1.14090   1.19215   -1.000
 4449.00    1.13841   1.18942   -1.000
 4450.00    1.13395   1.18613   -1.000
 4451.00    1.13282   1.18140   -1.000
 4452.00    1.13309   1.17060   -1.000
 4453.00    1.11884   1.14933   -1.000
 4454.00    1.09605   1.12372   -1.000
 4455.00    1.07670   1.10684   -1.000
 4456.00    1.08011   1.10566   -1.000
 4457.00    1.09303   1.11495   -1.000
 4458.00    1.09963   1.12514   -1.000
 4459.00    1.09915   1.13209   -1.000
 4460.00    1.09344   1.13652   -1.000
 4461.00    1.09415   1.14046   -1.000
 4462.00    1.10638   1.14644   -1.000
 4463.00    1.11955   1.15632   -1.000
 4464.00    1.13067   1.16675   -1.000
 4465.00    1.13488   1.17133   -1.000
 4466.00    1.13470   1.16730   -1.000
 4467.00    1.12966   1.15721   -1.000
 4468.00    1.11876   1.14748   -1.000
 4469.00    1.10987   1.14597   -1.000
 4470.00    1.11469   1.15644   -1.000
 4471.00    1.13555   1.17613   -1.000
 4472.00    1.16168   1.19913   -1.000
 4473.00    1.18435   1.21891   -1.000
 4474.00    1.18716   1.23107   -1.000
 4475.00    1.18884   1.23631   -1.000
 4476.00    1.19621   1.23789   -1.000
 4477.00    1.20243   1.23546   -1.000
 4478.00    1.20309   1.22287  105.155
 4479.00    1.18463   1.19624  108.023
 4480.00    1.15539   1.16392  112.705
 4481.00    1.13465   1.14454  116.632
 4482.00    1.13283   1.15064  116.917
 4483.00    1.15051   1.17832   -1.000
 4484.00    1.17926   1.21289   -1.000
 4485.00    1.19558   1.23822   -1.000
 4486.00    1.20459   1.24478   -1.000
 4487.00    1.20008   1.23309   -1.000
 4488.00    1.17636   1.21270   -1.000
 4489.00    1.15900   1.19649   -1.000
 4490.00    1.15990   1.19389   -1.000
 4491.00    1.17200   1.20337   -1.000
 4492.00    1.18203   1.21458   -1.000
 4493.00    1.18334   1.21792   -1.000
 4494.00    1.17130   1.21335   -1.000
 4495.00    1.15863   1.21045   -1.000
 4496.00    1.15862   1.21531   -1.000
 4497.00    1.17830   1.22480   -1.000
 4498.00    1.19838   1.23206   -1.000
 4499.00    1.20176   1.23288   -1.000
 4500.00    1.18786   1.22884   -1.000
 4501.00    1.17654   1.22830   -1.000
 4502.00    1.18685   1.23929   -1.000
 4503.00    1.20969   1.25922   -1.000
 4504.00    1.23183   1.27820   -1.000
 4505.00    1.23682   1.28723   -1.000
 4506.00    1.23079   1.28482   -1.000
 4507.00    1.22557   1.27646   -1.000
 4508.00    1.22876   1.27036   -1.000
 4509.00    1.23158   1.27074   -1.000
 4510.00    1.22998   1.27409   -1.000
 4511.00    1.22883   1.27369   -1.000
 4512.00    1.21792   1.26630   -1.000
 4513.00    1.20920   1.25482   -1.000
 4514.00    1.20484   1.24396   -1.000
 4515.00    1.20273   1.23716   -1.000
 4516.00    1.20386   1.23533   -1.000
 4517.00    1.19575   1.23524   -1.000
 4518.00    1.18992   1.23450   -1.000
 4519.00    1.19659   1.23492   -1.000
 4520.00    1.20404   1.23701   -1.000
 4521.00    1.20469   1.23766   -1.000
 4522.00    1.19702   1.23349   -1.000
 4523.00    1.18784   1.22479   -1.000
 4524.00    1.18370   1.21450   -1.000
 4525.00    1.17401   1.20295   -1.000
 4526.00    1.15729   1.18800   -1.000
 4527.00    1.14333   1.17015   -1.000
 4528.00    1.13637   1.15505  120.583
 4529.00    1.13631   1.15015  120.502
 4530.00    1.14736   1.15595  118.771
 4531.00    1.16149   1.16457  116.599
 4532.00    1.15947   1.16583  115.456
 4533.00    1.14641   1.15773  117.321
 4534.00    1.12733   1.15029   -1.000
 4535.00    1.12315   1.15696   -1.000
 4536.00    1.15189   1.18224   -1.000
 4537.00    1.19430   1.21664  109.567
 4538.00    1.21626   1.24476   -1.000
 4539.00    1.21927   1.25569   -1.000
 4540.00    1.21463   1.25176   -1.000
 4541.00    1.21012   1.24421   -1.000
 4542.00    1.21574   1.24112   -1.000
 4543.00    1.21278   1.24133   -1.000
 4544.00    1.19945   1.23903   -1.000
 4545.00    1.19122   1.23257   -1.000
 4546.00    1.18649   1.22417   -1.000
 4547.00    1.20029   1.21324   67.591
 4548.00    1.08835   1.19876   -1.000
 4549.00    0.44951   1.18627   -1.000
 4550.00    0.00157   1.18504   -1.000
 4551.00    0.08562   1.19553   -1.000
 4552.00    0.64015   1.20599   -1.000
 4553.00    0.52879   1.20655   -1.000
 4554.00    0.70695   1.20071   -1.000
 4555.00    1.13859   1.19961   -1.000
 4556.00    1.19773   1.21085  110.281
 4557.00    1.21298   1.23201  105.926
 4558.00    1.23747   1.25390  103.170
 4559.00    1.24625   1.27055  102.912
 4560.00    1.24864   1.28033   -1.000
 4561.00    1.24130   1.28190   -1.000
 4562.00    1.22894   1.27395   -1.000
 4563.00    1.21396   1.25858   -1.000
 4564.00    1.20059   1.24394   -1.000
 4565.00    1.20314   1.23934   -1.000
 4566.00    1.22513   1.24762   -1.000
 4567.00    1.24957   1.26329  104.224
 4568.00    1.25741   1.27521  102.540
 4569.00    1.24568   1.27522   -1.000
 4570.00    1.22264   1.26360   -1.000
 4571.00    1.20172   1.24902   -1.000
 4572.00    1.19809   1.24307   -1.000
 4573.00    1.21587   1.25090   -1.000
 4574.00    1.23440   1.26569   -1.000
 4575.00    1.23994   1.27672   -1.000
 4576.00    1.24105   1.28007   -1.000
 4577.00    1.23612   1.27626   -1.000
 4578.00    1.22637   1.26561   -1.000
 4579.00    1.21447   1.24881   -1.000
 4580.00    1.20558   1.23016   -1.000
 4581.00    1.20023   1.21554  111.471
 4582.00    1.20143   1.20854  110.304
 4583.00    1.19981   1.20834  109.182
 4584.00    1.19459   1.21254  109.101
 4585.00    1.20186   1.21971  109.681
 4586.00    1.21685   1.23017  108.995
 4587.00    1.22954   1.24288  106.577
 4588.00    1.23996   1.25477  104.081
 4589.00    1.24639   1.26193  103.165
 4590.00    1.23662   1.26137   -1.000
 4591.00    1.21864   1.25427   -1.000
 4592.00    1.21292   1.24625   -1.000
 4593.00    1.21863   1.24320   -1.000
 4594.00    1.22398   1.24648   -1.000
 4595.00    1.22552   1.25283   -1.000
 4596.00    1.23396   1.25932   -1.000
 4597.00    1.24314   1.26461   -1.000
 4598.00    1.24421   1.26726   -1.000
 4599.00    1.23763   1.26600   -1.000
 4600.00    1.22587   1.26158   -1.000
 4601.00    1.21532   1.25645   -1.000
 4602.00    1.21484   1.25396   -1.000
 4603.00    1.22854   1.25522   -1.000
 4604.00    1.24349   1.25880  106.016
 4605.00    1.24778   1.26408  106.006
 4606.00    1.24961   1.27201   -1.000
 4607.00    1.25729   1.28275   -1.000
 4608.00    1.26827   1.29459   -1.000
 4609.00    1.27520   1.30386   -1.000
 4610.00    1.27801   1.30622   -1.000
 4611.00    1.27461   1.30126   -1.000
 4612.00    1.26468   1.29433   -1.000
 4613.00    1.25793   1.29004   -1.000
 4614.00    1.26002   1.28950   -1.000
 4615.00    1.25830   1.29023   -1.000
 4616.00    1.26455   1.28895  101.227
 4617.00    1.26657   1.28497  101.507
 4618.00    1.25917   1.28067  102.261
 4619.00    1.25924   1.28011  102.490
 4620.00    1.26816   1.28560  101.821
 4621.00    1.27546   1.29588  100.420
 4622.00    1.28313   1.30597   99.779
 4623.00    1.28200   1.31095   -1.000
 4624.00    1.27359   1.31070   -1.000
 4625.00    1.27119   1.30785   -1.000
 4626.00    1.27302   1.30392   -1.000
 4627.00    1.27440   1.30010  101.400
 4628.00    1.26950   1.29690   -1.000
 4629.00    1.26278   1.29523   -1.000
 4630.00    1.26269   1.29683   -1.000
 4631.00    1.26979   1.30145   -1.000
 4632.00    1.26930   1.30450   -1.000
 4633.00    1.26664   1.30139   -1.000
 4634.00    1.26830   1.29418   -1.000
 4635.00    1.26863   1.28818  103.592
 4636.00    1.26038   1.28496   -1.000
 4637.00    1.25426   1.28312   -1.000
 4638.00    1.25432   1.28307   -1.000
 4639.00    1.25954   1.28634   -1.000
 4640.00    1.26789   1.29370   -1.000
 4641.00    1.28111   1.30345   -1.000
 4642.00    1.28901   1.31137   -1.000
 4643.00    1.28770   1.31199   -1.000
 4644.00    1.28407   1.30293  101.865
 4645.00    1.27014   1.28665  104.407
 4646.00    1.25094   1.26813   -1.000
 4647.00    1.24779   1.25527  108.766
 4648.00    1.25341   1.25559  107.676
 4649.00    1.25773   1.26840  105.327
 4650.00    1.26432   1.28522   -1.000
 4651.00    1.27099   1.29730   -1.000
 4652.00    1.26872   1.30136   -1.000
 4653.00    1.26002   1.29836   -1.000
 4654.00    1.25583   1.29045   -1.000
 4655.00    1.24814   1.28303   -1.000
 4656.00    1.24302   1.28328   -1.000
 4657.00    1.25979   1.29548   -1.000
 4658.00    1.28787   1.31712   -1.000
 4659.00    1.30490   1.33879   -1.000
 4660.00    1.31003   1.34933   -1.000
 4661.00    1.30563   1.34607   -1.000
 4662.00    1.29172   1.33396   -1.000
 4663.00    1.28201   1.31864   -1.000
 4664.00    1.28082   1.30209   -1.000
 4665.00    1.27322   1.28273  103.756
 4666.00    1.24730   1.25942  107.192
 4667.00    1.22028   1.23841   -1.000
 4668.00    1.20908   1.23053   -1.000
 4669.00    1.22054   1.24050   -1.000
 4670.00    1.24642   1.26212  107.107
 4671.00    1.26911   1.28483  103.580
 4672.00    1.28024   1.30090  102.170
 4673.00    1.28265   1.30987   -1.000
 4674.00    1.28768   1.31579   -1.000
 4675.00    1.29627   1.32175   -1.000
 4676.00    1.30799   1.32497   99.669
 4677.00    1.30667   1.31966   99.397
 4678.00    1.29089   1.30589  100.972
 4679.00    1.27979   1.29024  103.093
 4680.00    1.27087   1.27977  104.920
 4681.00    1.26094   1.27679  106.205
 4682.00    1.25938   1.27979  105.756
 4683.00    1.27180   1.28672  103.532
 4684.00    1.29042   1.29462  101.663
 4685.00    1.29908   1.30035  101.397
 4686.00    1.29754   1.30306  101.596
 4687.00    1.29463   1.30402  101.961
 4688.00    1.29082   1.30432  102.203
 4689.00    1.29318   1.30431  102.196
 4690.00    1.29453   1.30385  102.655
 4691.00    1.28873   1.30312  103.091
 4692.00    1.29367   1.30446  102.400
 4693.00    1.30704   1.30939  100.954
 4694.00    1.31312   1.31551   98.976
 4695.00    1.31908   1.31942   97.333
 4696.00    1.32807   1.31901   97.175
 4697.00    1.32017   1.31263   99.121
 4698.00    1.30300   1.30087  102.136
 4699.00    1.29548   1.28771  104.065
 4700.00    1.29688   1.27571  103.961
 4701.00    1.29398   1.26509  104.065
 4702.00    1.27928   1.25638  105.545
 4703.00    1.26697   1.25395  106.634
 4704.00    1.27534   1.26079  105.554
 4705.00    1.29101   1.27125  103.761
 4706.00    1.28851   1.27563  104.066
 4707.00    1.27244   1.27166  105.993
 4708.00    1.26004   1.26661  107.463
 4709.00    1.26318   1.26882  107.485
 4710.00    1.27964   1.27909  105.259
 4711.00    1.29731   1.29194  102.225
 4712.00    1.30881   1.30130  100.533
 4713.00    1.30867   1.30332  100.782
 4714.00    1.29926   1.30075  102.379
 4715.00    1.29000   1.30122  103.156
 4716.00    1.29344   1.30941  101.836
 4717.00    1.30883   1.32262   99.803
 4718.00    1.31765   1.33430   98.687
 4719.00    1.32013   1.34101   98.270
 4720.00    1.32291   1.34292   97.934
 4721.00    1.31866   1.34261   98.316
 4722.00    1.31204   1.34281   -1.000
 4723.00    1.31299   1.34468   -1.000
 4724.00    1.31532   1.34685   -1.000
 4725.00    1.31187   1.34512   -1.000
 4726.00    1.30055   1.33518   -1.000
 4727.00    1.28741   1.31737   -1.000
 4728.00    1.27662   1.29871   -1.000
 4729.00    1.27790   1.28715  106.215
 4730.00    1.28535   1.28482  105.326
 4731.00    1.28871   1.28891  104.385
 4732.00    1.29130   1.29686  103.301
 4733.00    1.29609   1.30572  102.257
 4734.00    1.30652   1.31150  101.568
 4735.00    1.31085   1.31240  101.005
 4736.00    1.30520   1.31054  101.449
 4737.00    1.30584   1.30980  101.998
 4738.00    1.31323   1.31305  101.207
 4739.00    1.31719   1.31926  100.687
 4740.00    1.31265   1.32470  101.100
 4741.00    1.31241   1.32799  101.425
 4742.00    1.31775   1.33120  100.964
 4743.00    1.32429   1.33564   99.948
 4744.00    1.32463   1.34046   99.639
 4745.00    1.32590   1.34446   99.806
 4746.00    1.33068   1.34800   99.378
 4747.00    1.33257   1.35289   98.450
 4748.00    1.33263   1.35902   97.929
 4749.00    1.33320   1.36423   -1.000
 4750.00    1.33282   1.36811   -1.000
 4751.00    1.33355   1.36912   -1.000
 4752.00    1.32780   1.36455   -1.000
 4753.00    1.31847   1.35485   -1.000
 4754.00    1.30889   1.34442   -1.000
 4755.00    1.30443   1.33871   -1.000
 4756.00    1.30900   1.33975   -1.000
 4757.00    1.31373   1.34603   -1.000
 4758.00    1.31039   1.35456   -1.000
 4759.00    1.30366   1.36180   -1.000
 4760.00    1.30472   1.36276   -1.000
 4761.00    1.30016   1.35359   -1.000
 4762.00    1.28100   1.33602   -1.000
 4763.00    1.26932   1.31729   -1.000
 4764.00    1.26912   1.30513   -1.000
 4765.00    1.27381   1.30142   -1.000
 4766.00    1.28532   1.30531  106.527
 4767.00    1.29657   1.31627  105.319
 4768.00    1.30866   1.33312   -1.000
 4769.00    1.31867   1.35056   -1.000
 4770.00    1.31598   1.36126   -1.000
 4771.00    1.30948   1.36280   -1.000
 4772.00    1.30994   1.36105   -1.000
 4773.00    1.31671   1.36349   -1.000
 4774.00    1.32554   1.37302   -1.000
 4775.00    1.33293   1.38474   -1.000
 4776.00    1.33576   1.39213   -1.000
 4777.00    1.33219   1.39289   -1.000
 4778.00    1.32486   1.38838   -1.000
 4779.00    1.31522   1.38238   -1.000
 4780.00    1.31428   1.37788   -1.000
 4781.00    1.31896   1.37471   -1.000
 4782.00    1.31682   1.37050   -1.000
 4783.00    1.31175   1.36468   -1.000
 4784.00    1.31124   1.35891   -1.000
 4785.00    1.31007   1.35377   -1.000
 4786.00    1.30502   1.34926   -1.000
 4787.00    1.30012   1.34682   -1.000
 4788.00    1.29985   1.34829   -1.000
 4789.00    1.30389   1.35302   -1.000
 4790.00    1.30880   1.35990   -1.000
 4791.00    1.31400   1.36958   -1.000
 4792.00    1.32860   1.38295   -1.000
 4793.00    1.34499   1.39891   -1.000
 4794.00    1.35444   1.41388   -1.000
 4795.00    1.35350   1.42327   -1.000
 4796.00    1.34814   1.42319   -1.000
 4797.00    1.33787   1.41422   -1.000
 4798.00    1.32517   1.40145   -1.000
 4799.00    1.31835   1.39146   -1.000
 4800.00    1.32381   1.38967   -1.000
 4801.00    1.33372   1.39609   -1.000
 4802.00    1.34515   1.40445   -1.000
 4803.00    1.34817   1.40755   -1.000
 4804.00    1.33842   1.40326   -1.000
 4805.00    1.32359   1.39489   -1.000
 4806.00    1.31723   1.38823   -1.000
 4807.00    1.32592   1.38586   -1.000
 4808.00    1.33435   1.38696   -1.000
 4809.00    1.33611   1.39064   -1.000
 4810.00    1.33758   1.39506   -1.000
 4811.00    1.34138   1.39786   -1.000
 4812.00    1.34070   1.39970   -1.000
 4813.00    1.34317   1.40316   -1.000
 4814.00    1.35116   1.40920   -1.000
 4815.00    1.35179   1.41691   -1.000
 4816.00    1.35108   1.42433   -1.000
 4817.00    1.35560   1.42960   -1.000
 4818.00    1.36329   1.43212   -1.000
 4819.00    1.36678   1.43283   -1.000
 4820.00    1.36335   1.43123   -1.000
 4821.00    1.36293   1.42346   -1.000
 4822.00    1.35492   1.40704   -1.000
 4823.00    1.33434   1.38641   -1.000
 4824.00    1.32619   1.37200   -1.000
 4825.00    1.33452   1.37232   -1.000
 4826.00    1.34774   1.38354   -1.000
 4827.00    1.35360   1.39403   -1.000
 4828.00    1.34873   1.39721   -1.000
 4829.00    1.34122   1.39438   -1.000
 4830.00    1.33465   1.38941   -1.000
 4831.00    1.32952   1.38306   -1.000
 4832.00    1.33150   1.37707   -1.000
 4833.00    1.34097   1.37523   -1.000
 4834.00    1.34750   1.37828   -1.000
 4835.00    1.34854   1.38336   -1.000
 4836.00    1.35016   1.38646   -1.000
 4837.00    1.34945   1.38467   -1.000
 4838.00    1.33888   1.37759   -1.000
 4839.00    1.32609   1.36679   -1.000
 4840.00    1.32328   1.35606   -1.000
 4841.00    1.32833   1.34917  102.324
 4842.00    1.32471   1.34739  101.923
 4843.00    1.32673   1.34887  101.255
 4844.00    1.33395   1.35236  100.339
 4845.00    1.34213   1.35766   98.983
 4846.00    1.34737   1.36095   98.038
 4847.00    1.33896   1.35610   99.038
 4848.00    1.32074   1.34455  100.798
 4849.00    1.31432   1.33499  101.388
 4850.00    1.31692   1.33167  100.495
 4851.00    1.31209   1.33021   99.752
 4852.00    1.30246   1.32241  100.025
 4853.00    1.29196   1.30299  100.781
 4854.00    1.27312   1.27228  102.919
 4855.00    1.24480   1.23700  105.964
 4856.00    1.22738   1.20556  107.038
 4857.00    1.21817   1.17721   -1.000
 4858.00    1.18226   1.13758   -1.000
 4859.00    1.09904   1.07106  114.150
 4860.00    0.99486   0.98671  126.259
 4861.00    0.93011   0.92075  136.169
 4862.00    0.95313   0.90818   -1.000
 4863.00    1.04329   0.95400   -1.000
 4864.00    1.13062   1.02991   -1.000
 4865.00    1.18417   1.10570   -1.000
 4866.00    1.21721   1.16647   -1.000
 4867.00    1.24474   1.21080  104.613
 4868.00    1.26616   1.23975  103.983
 4869.00    1.26585   1.25227  104.341
 4870.00    1.24939   1.24920  106.476
 4871.00    1.23481   1.23808  109.304
 4872.00    1.23744   1.23420  109.837
 4873.00    1.26399   1.24891  107.509
 4874.00    1.28303   1.27607  105.109
 4875.00    1.28560   1.30091  103.907
 4876.00    1.29000   1.31487   -1.000
 4877.00    1.29726   1.32301   -1.000
 4878.00    1.29833   1.33471   -1.000
 4879.00    1.30525   1.35161   -1.000
 4880.00    1.31567   1.36678   -1.000
 4881.00    1.31249   1.37311   -1.000
 4882.00    1.30715   1.37054   -1.000
 4883.00    1.30793   1.36463   -1.000
 4884.00    1.31145   1.35799   -1.000
 4885.00    1.31207   1.35067   -1.000
 4886.00    1.30830   1.34428   -1.000
 4887.00    1.30984   1.34035   -1.000
 4888.00    1.31258   1.33699   -1.000
 4889.00    1.30325   1.32942   -1.000
 4890.00    1.29047   1.31805   -1.000
 4891.00    1.28811   1.31361   -1.000
 4892.00    1.30958   1.32868  105.587
 4893.00    1.34716   1.36525  100.871
 4894.00    1.37788   1.40911   -1.000
 4895.00    1.39422   1.44178   -1.000
 4896.00    1.40129   1.45781   -1.000
 4897.00    1.40034   1.46076   -1.000
 4898.00    1.38797   1.45537   -1.000
 4899.00    1.37446   1.44557   -1.000
 4900.00    1.36653   1.43618   -1.000
 4901.00    1.36348   1.42976   -1.000
 4902.00    1.36463   1.42489   -1.000
 4903.00    1.36442   1.42004   -1.000
 4904.00    1.36635   1.41953   -1.000
 4905.00    1.38004   1.42868   -1.000
 4906.00    1.39300   1.44217   -1.000
 4907.00    1.39337   1.44740   -1.000
 4908.00    1.38167   1.43782   -1.000
 4909.00    1.36220   1.41668   -1.000
 4910.00    1.35235   1.39514   -1.000
 4911.00    1.35515   1.38441   -1.000
 4912.00    1.36726   1.38986  101.306
 4913.00    1.38498   1.40710   99.721
 4914.00    1.39261   1.42731   -1.000
 4915.00    1.39980   1.44166   -1.000
 4916.00    1.40224   1.44114   -1.000
 4917.00    1.37915   1.41877   -1.000
 4918.00    1.34370   1.37725   -1.000
 4919.00    1.30696   1.33065   -1.000
 4920.00    1.28513   1.29827  112.403
 4921.00    1.29626   1.29145  110.724
 4922.00    1.32206   1.30589  106.791
 4923.00    1.33388   1.32733  104.238
 4924.00    1.33719   1.34591  103.565
 4925.00    1.35052   1.36473  102.779
 4926.00    1.37327   1.38865  100.635
 4927.00    1.39443   1.41546   98.462
 4928.00    1.40888   1.43927   -1.000
 4929.00    1.41884   1.45523   -1.000
 4930.00    1.42450   1.46122   -1.000
 4931.00    1.41967   1.45510   -1.000
 4932.00    1.39677   1.43633   -1.000
 4933.00    1.36798   1.41156   -1.000
 4934.00    1.35730   1.39361   -1.000
 4935.00    1.36577   1.38878  101.998
 4936.00    1.37378   1.38983  101.147
 4937.00    1.36301   1.38346  102.855
 4938.00    1.34564   1.36971   -1.000
 4939.00    1.33674   1.36375   -1.000
 4940.00    1.35156   1.37649   -1.000
 4941.00    1.38327   1.40476  100.499
 4942.00    1.40679   1.43457   98.069
 4943.00    1.42078   1.45399   -1.000
 4944.00    1.42121   1.46073   -1.000
 4945.00    1.41271   1.45920   -1.000
 4946.00    1.41217   1.45627   -1.000
 4947.00    1.41576   1.45773   -1.000
 4948.00    1.42206   1.46522   -1.000
 4949.00    1.42907   1.47423   -1.000
 4950.00    1.43204   1.47896   -1.000
 4951.00    1.42868   1.47741   -1.000
 4952.00    1.42322   1.47203   -1.000
 4953.00    1.42261   1.46577   -1.000
 4954.00    1.41365   1.45672   -1.000
 4955.00    1.38825   1.43678   -1.000
 4956.00    1.34996   1.40097   -1.000
 4957.00    1.31262   1.36259   -1.000
 4958.00    1.31178   1.34771   -1.000
 4959.00    1.35299   1.36791  104.447
 4960.00    1.39603   1.40900   99.784
 4961.00    1.40996   1.44450   -1.000
 4962.00    1.40829   1.46158   -1.000
 4963.00    1.40477   1.46303   -1.000
 4964.00    1.38928   1.45459   -1.000
 4965.00    1.37517   1.44075   -1.000
 4966.00    1.37587   1.42706   -1.000
 4967.00    1.37833   1.41820   -1.000
 4968.00    1.37938   1.41509   -1.000
 4969.00    1.38710   1.41686   -1.000
 4970.00    1.39384   1.42325   -1.000
 4971.00    1.39832   1.43343   -1.000
 4972.00    1.40494   1.44561   -1.000
 4973.00    1.41272   1.45732   -1.000
 4974.00    1.42092   1.46594   -1.000
 4975.00    1.42611   1.46883   -1.000
 4976.00    1.42121   1.46548   -1.000
 4977.00    1.41230   1.45694   -1.000
 4978.00    1.40175   1.44500   -1.000
 4979.00    1.38307   1.43067   -1.000
 4980.00    1.36656   1.41213   -1.000
 4981.00    1.34665   1.38574   -1.000
 4982.00    1.32100   1.35337   -1.000
 4983.00    1.31117   1.32690  112.290
 4984.00    1.32200   1.32037  111.026
 4985.00    1.34130   1.33811  108.311
 4986.00    1.36827   1.37061  105.020
 4987.00    1.39554   1.40323  102.097
 4988.00    1.40302   1.42453  101.066
 4989.00    1.39274   1.42942   -1.000
 4990.00    1.38027   1.42229   -1.000
 4991.00    1.38011   1.41298   -1.000
 4992.00    1.38676   1.40969  103.212
 4993.00    1.39085   1.41349  102.552
 4994.00    1.39248   1.42100  102.346
 4995.00    1.39788   1.42878   -1.000
 4996.00    1.40300   1.43417   -1.000
 4997.00    1.40467   1.43436   -1.000
 4998.00    1.39466   1.42626   -1.000
 4999.00    1.37836   1.40939   -1.000
 5000.00    1.36824   1.38923  106.154
 5001.00    1.36189   1.37444  106.761
 5002.00    1.36363   1.37066  106.197
 5003.00    1.36857   1.37384  105.347
 5004.00    1.36434   1.37262  105.904
 5005.00    1.35106   1.36128  108.129
 5006.00    1.34218   1.34815  109.693
 5007.00    1.35051   1.34848  108.382
 5008.00    1.37400   1.36616  105.302
 5009.00    1.39552   1.38940  103.268
 5010.00    1.39494   1.40137  103.580
 5011.00    1.37302   1.39269  105.962
 5012.00    1.34440   1.36827  109.629
 5013.00    1.32106   1.34195  112.890
 5014.00    1.31601   1.32765  113.697
 5015.00    1.33241   1.32796  111.974
 5016.00    1.35122   1.33451  109.541
 5017.00    1.35575   1.33811  108.289
 5018.00    1.35269   1.33863  108.130
 5019.00    1.36051   1.34379  107.445
 5020.00    1.37981   1.35570  106.398
 5021.00    1.38950   1.36812  106.292
 5022.00    1.38512   1.37650  106.650
 5023.00    1.38002   1.38335  106.402
 5024.00    1.38979   1.39395  105.484
 5025.00    1.39866   1.40529  104.591
 5026.00    1.39841   1.40922  104.575
 5027.00    1.39491   1.40659  105.094
 5028.00    1.39111   1.40538  104.765
 5029.00    1.39997   1.41046  103.202
 5030.00    1.41752   1.42135  101.510
 5031.00    1.42550   1.43495   99.952
 5032.00    1.43459   1.44777   98.593
 5033.00    1.44130   1.45466   98.197
 5034.00    1.42214   1.44932  100.052
 5035.00    1.39028   1.43170   -1.000
 5036.00    1.37092   1.41090   -1.000
 5037.00    1.36651   1.39465  107.488
 5038.00    1.36323   1.38037  108.382
 5039.00    1.34413   1.35767  111.374
 5040.00    1.31496   1.32767  115.906
 5041.00    1.30368   1.30948  117.996
 5042.00    1.32339   1.32033  114.645
 5043.00    1.36507   1.35962  108.113
 5044.00    1.40352   1.40927  102.710
 5045.00    1.43007   1.44903   99.711
 5046.00    1.44849   1.46908   96.642
 5047.00    1.44731   1.46790   96.649
 5048.00    1.41988   1.44991   41.104
 5049.00    1.43011   1.42446   52.213
 5050.00    1.09830   1.40308   -1.000
 5051.00    0.42453   1.39381   -1.000
 5052.00    0.03016   1.39979   -1.000
 5053.00    0.29152   1.41830   -1.000
 5054.00    1.03797   1.44042   -1.000
 5055.00    1.45084   1.45706   98.536
 5056.00    1.46470   1.46756   97.963
 5057.00    1.46423   1.47542   97.938
 5058.00    1.45977   1.48278   98.127
 5059.00    1.45653   1.48939   -1.000
 5060.00    1.45849   1.49428   -1.000
 5061.00    1.46223   1.49623   97.513
 5062.00    1.45958   1.49195   98.292
 5063.00    1.44226   1.47665  100.507
 5064.00    1.41938   1.45251   -1.000
 5065.00    1.40470   1.43072  106.150
 5066.00    1.40406   1.42008  105.899
 5067.00    1.41257   1.42060  104.387
 5068.00    1.42312   1.42524  103.507
 5069.00    1.43058   1.42943  103.108
 5070.00    1.43889   1.43239  102.505
 5071.00    1.43797   1.43223  102.676
 5072.00    1.43092   1.42790  103.527
 5073.00    1.43220   1.42373  103.152
 5074.00    1.43701   1.42486  102.106
 5075.00    1.43937   1.43045  101.692
 5076.00    1.44244   1.43455  101.599
 5077.00    1.43800   1.43010  102.123
 5078.00    1.41128   1.41319  104.579
 5079.00    1.37752   1.38801  109.038
 5080.00    1.36623   1.36832  112.054
 5081.00    1.38208   1.36438  111.183
 5082.00    1.39592   1.37422  108.756
 5083.00    1.40221   1.39018  106.924
 5084.00    1.42123   1.40713  105.167
 5085.00    1.44295   1.42464  103.272
 5086.00    1.44929   1.44098  102.092
 5087.00    1.45207   1.45314  101.715
 5088.00    1.46078   1.46134  101.374
 5089.00    1.46625   1.46761  100.728
 5090.00    1.46658   1.47312  100.094
 5091.00    1.46954   1.47836   99.564
 5092.00    1.47502   1.48439   98.686
 5093.00    1.48146   1.49041   97.677
 5094.00    1.48555   1.49132   97.804
 5095.00    1.47719   1.48133   99.382
 5096.00    1.45797   1.45946  101.526
 5097.00    1.45752   1.43184  103.873
 5098.00    1.45966   1.40850   -1.000
 5099.00    1.42922   1.39874  107.363
 5100.00    1.42116   1.40604  105.961
 5101.00    1.44825   1.42615  103.029
 5102.00    1.46701   1.44734  101.215
 5103.00    1.46963   1.45906  101.207
 5104.00    1.46008   1.45917  102.250
 5105.00    1.44678   1.45028  103.585
 5106.00    1.42876   1.43622  104.871
 5107.00    1.41652   1.42135  106.173
 5108.00    1.40871   1.41067  106.661
 5109.00    1.40463   1.40800  106.171
 5110.00    1.41759   1.41450  105.434
 5111.00    1.43609   1.42873  104.241
 5112.00    1.45314   1.44645  102.851
 5113.00    1.46745   1.46229  101.600
 5114.00    1.47437   1.47434  100.544
 5115.00    1.48251   1.48371   99.853
 5116.00    1.49390   1.49204   99.029
 5117.00    1.50074   1.49885   98.094
 5118.00    1.50248   1.50199   97.907
 5119.00    1.50104   1.49894   98.780
 5120.00    1.48806   1.48851  100.207
 5121.00    1.46530   1.47254  101.804
 5122.00    1.44309   1.45358  104.019
 5123.00    1.41899   1.43406  106.984
 5124.00    1.40485   1.41745  108.824
 5125.00    1.41183   1.40800  108.546
 5126.00    1.41945   1.40605  107.791
 5127.00    1.42243   1.40781  107.208
 5128.00    1.42471   1.40962  107.014
 5129.00    1.42825   1.41198  107.045
 5130.00    1.43254   1.41714  106.202
 5131.00    1.44026   1.42549  104.542
 5132.00    1.44907   1.43484  103.279
 5133.00    1.45621   1.44302  102.377
 5134.00    1.46884   1.44969  101.439
 5135.00    1.47650   1.45392  100.905
 5136.00    1.46662   1.45215  101.828
 5137.00    1.44333   1.44192  104.078
 5138.00    1.41967   1.42680  106.140
 5139.00    1.41307   1.41375  106.938
 5140.00    1.41988   1.40769  106.420
 5141.00    1.42165   1.40710  106.425
 5142.00    1.42013   1.40827  107.793
 5143.00    1.42091   1.41119  108.221
 5144.00    1.42945   1.41694  106.852
 5145.00    1.44110   1.42244  105.835
 5146.00    1.43889   1.42283  106.269
 5147.00    1.43509   1.41903  106.882
 5148.00    1.44138   1.41798  106.229
 5149.00    1.44667   1.42150  105.288
 5150.00    1.43778   1.42327  105.783
 5151.00    1.42127   1.41939  107.492
 5152.00    1.41218   1.41253  108.766
 5153.00    1.41878   1.40815  108.733
 5154.00    1.43590   1.41134  107.279
 5155.00    1.45665   1.42439   -1.000
 5156.00    1.47870   1.44508   -1.000
 5157.00    1.49238   1.46696   99.917
 5158.00    1.49692   1.48416   98.705
 5159.00    1.50144   1.49329   98.406
 5160.00    1.49942   1.49413   98.602
 5161.00    1.49570   1.48784   99.074
 5162.00    1.49248   1.47569   99.959
 5163.00    1.48233   1.45722  101.341
 5164.00    1.46138   1.42699   -1.000
 5165.00    1.41279   1.37648   -1.000
 5166.00    1.33132   1.30868  121.434
 5167.00    1.26021   1.24620  131.742
 5168.00    1.24684   1.21612   -1.000
 5169.00    1.28693   1.22514   -1.000
 5170.00    1.31779   1.24439   -1.000
 5171.00    1.29555   1.24330   -1.000
 5172.00    1.25648   1.22683   -1.000
 5173.00    1.25812   1.22738   -1.000
 5174.00    1.32234   1.27034   -1.000
 5175.00    1.40486   1.34168   -1.000
 5176.00    1.45470   1.40705   -1.000
 5177.00    1.47468   1.44754  104.972
 5178.00    1.48186   1.46336  104.393
 5179.00    1.47924   1.46044  104.906
 5180.00    1.46129   1.43705  107.448
 5181.00    1.41583   1.38712   -1.000
 5182.00    1.33901   1.31638  124.554
 5183.00    1.26996   1.25114  136.653
 5184.00    1.26398   1.22798   -1.000
 5185.00    1.32627   1.26001   -1.000
 5186.00    1.40394   1.32528   -1.000
 5187.00    1.44819   1.38627   -1.000
 5188.00    1.46168   1.42081   -1.000
 5189.00    1.46201   1.43339   -1.000
 5190.00    1.45117   1.43281  104.809
 5191.00    1.42879   1.42164  107.217
 5192.00    1.40853   1.40588  110.447
 5193.00    1.40469   1.39641  111.278
 5194.00    1.41679   1.39798  109.718
 5195.00    1.43348   1.40689  107.956
 5196.00    1.45315   1.41751   -1.000
 5197.00    1.47102   1.43034   -1.000
 5198.00    1.48000   1.44804  102.555
 5199.00    1.48603   1.46770  101.334
 5200.00    1.49337   1.48225  100.941
 5201.00    1.48856   1.48555  101.377
 5202.00    1.47387   1.47461  102.797
 5203.00    1.45365   1.45061  104.968
 5204.00    1.42591   1.41890  107.894
 5205.00    1.40419   1.38805  111.281
 5206.00    1.39928   1.36602   -1.000
 5207.00    1.39879   1.35604   -1.000
 5208.00    1.40312   1.35662   -1.000
 5209.00    1.41090   1.36759   -1.000
 5210.00    1.43453   1.39125   -1.000
 5211.00    1.47072   1.42611   -1.000
 5212.00    1.50326   1.46323   -1.000
 5213.00    1.52337   1.48888   -1.000
 5214.00    1.51883   1.49417   99.012
 5215.00    1.49857   1.48129  100.903
 5216.00    1.48119   1.46480  102.678
 5217.00    1.48462   1.46083  102.699
 5218.00    1.50148   1.47436  101.004
 5219.00    1.52055   1.49801   99.154
 5220.00    1.53879   1.51980   98.091
 5221.00    1.54473   1.53199   97.561
 5222.00    1.54181   1.53095   98.112
 5223.00    1.52520   1.51475  100.401
 5224.00    1.48643   1.48137  104.129
 5225.00    1.43844   1.43412  108.796
 5226.00    1.40100   1.38925  112.754
 5227.00    1.40372   1.36947  112.662
 5228.00    1.44604   1.38518   -1.000
 5229.00    1.49300   1.42472   -1.000
 5230.00    1.52047   1.46155   -1.000
 5231.00    1.52033   1.47756   -1.000
 5232.00    1.50432   1.47186   -1.000
 5233.00    1.49105   1.45661   -1.000
 5234.00    1.48988   1.44849   -1.000
 5235.00    1.50311   1.45789   -1.000
 5236.00    1.52273   1.48188   -1.000
 5237.00    1.54422   1.50867   -1.000
 5238.00    1.55607   1.52836   96.706
 5239.00    1.55642   1.53786   96.871
 5240.00    1.55686   1.54005   96.918
 5241.00    1.54954   1.53885   96.502
 5242.00    1.54760   1.53769   96.326
 5243.00    1.55588   1.53939   96.301
 5244.00    1.56102   1.54274   96.116
 5245.00    1.55134   1.54072   97.136
 5246.00    1.52151   1.52830   99.774
 5247.00    1.49798   1.50931  102.490
 5248.00    1.49474   1.49211  103.647
 5249.00    1.49270   1.48182  103.805
 5250.00    1.48941   1.47801  104.268
 5251.00    1.49737   1.47966  104.293
 5252.00    1.50589   1.48542  103.217
 5253.00    1.50972   1.49129  101.989
 5254.00    1.51334   1.49449  101.574
 5255.00    1.52358   1.49952  101.198
 5256.00    1.54095   1.51267   99.507
 5257.00    1.56286   1.53221   96.921
 5258.00    1.57910   1.54857   95.292
 5259.00    1.57579   1.55094   95.483
 5260.00    1.55302   1.53435   97.399
 5261.00    1.51670   1.50054  100.946
 5262.00    1.47635   1.45649  105.577
 5263.00    1.44626   1.41166   -1.000
 5264.00    1.42528   1.37555   -1.000
 5265.00    1.41338   1.35619   -1.000
 5266.00    1.42362   1.35509   -1.000
 5267.00    1.43744   1.36150   -1.000
 5268.00    1.42777   1.36063   -1.000
 5269.00    1.40281   1.34944   -1.000
 5270.00    1.39894   1.34310   -1.000
 5271.00    1.43677   1.35997   -1.000
 5272.00    1.48278   1.39539   -1.000
 5273.00    1.50454   1.42814   -1.000
 5274.00    1.51160   1.44660   -1.000
 5275.00    1.51860   1.45657   -1.000
 5276.00    1.53338   1.47163   -1.000
 5277.00    1.55736   1.49702   -1.000
 5278.00    1.58247   1.52417   -1.000
 5279.00    1.58849   1.53809   -1.000
 5280.00    1.56748   1.53116   -1.000
 5281.00    1.54233   1.51001   99.395
 5282.00    1.52452   1.48746   -1.000
 5283.00    1.51437   1.47488   -1.000
 5284.00    1.52287   1.48020   -1.000
 5285.00    1.55449   1.50448   -1.000
 5286.00    1.59017   1.53778   -1.000
 5287.00    1.60190   1.56599   -1.000
 5288.00    1.59448   1.58181   94.091
 5289.00    1.58367   1.58870   94.338
 5290.00    1.58883   1.59229   93.999
 5291.00    1.60108   1.59336   93.629
 5292.00    1.59736   1.59129   93.865
 5293.00    1.59165   1.58617   94.632
 5294.00    1.58579   1.57588   95.743
 5295.00    1.56868   1.55701   97.770
 5296.00    1.53249   1.52879  101.093
 5297.00    1.49815   1.49892  104.369
 5298.00    1.49865   1.48164  105.174
 5299.00    1.51702   1.48349   -1.000
 5300.00    1.53341   1.49786   -1.000
 5301.00    1.54550   1.51437   99.816
 5302.00    1.55276   1.52910   98.883
 5303.00    1.57046   1.54575   96.814
 5304.00    1.59806   1.56418   -1.000
 5305.00    1.60956   1.57719   -1.000
 5306.00    1.60161   1.58054   94.218
 5307.00    1.59266   1.57770   95.120
 5308.00    1.59498   1.57678   95.123
 5309.00    1.60492   1.58273   94.238
 5310.00    1.60934   1.59247   93.457
 5311.00    1.61183   1.59944   93.262
 5312.00    1.61502   1.59919   93.621
 5313.00    1.61364   1.59130   94.094
 5314.00    1.60548   1.57743   94.652
 5315.00    1.59065   1.55987   95.491
 5316.00    1.57934   1.54393   -1.000
 5317.00    1.57656   1.53790   -1.000
 5318.00    1.58245   1.54558   -1.000
 5319.00    1.58911   1.56053   95.789
 5320.00    1.58926   1.57060   95.821
 5321.00    1.58784   1.56842   96.381
 5322.00    1.57800   1.55445   97.327
 5323.00    1.55876   1.53375   98.805
 5324.00    1.54868   1.51275   -1.000
 5325.00    1.54906   1.49344   -1.000
 5326.00    1.52665   1.47029   -1.000
 5327.00    1.47639   1.43863   -1.000
 5328.00    1.44096   1.41042  112.059
 5329.00    1.45454   1.40801   -1.000
 5330.00    1.50585   1.43772   -1.000
 5331.00    1.55061   1.48263   -1.000
 5332.00    1.56951   1.51898   -1.000
 5333.00    1.57672   1.53931   -1.000
 5334.00    1.58947   1.55099   -1.000
 5335.00    1.59622   1.55882   -1.000
 5336.00    1.58952   1.56113   95.961
 5337.00    1.58480   1.55607   -1.000
 5338.00    1.57864   1.54319   -1.000
 5339.00    1.56157   1.52399   -1.000
 5340.00    1.53995   1.50559   -1.000
 5341.00    1.53897   1.49931   -1.000
 5342.00    1.56317   1.51055   -1.000
 5343.00    1.58655   1.53154   -1.000
 5344.00    1.59447   1.54674   -1.000
 5345.00    1.58881   1.54860   -1.000
 5346.00    1.57994   1.54109   -1.000
 5347.00    1.57389   1.53180   -1.000
 5348.00    1.56953   1.52604   -1.000
 5349.00    1.56537   1.52648   -1.000
 5350.00    1.57201   1.53469   -1.000
 5351.00    1.59553   1.54967   -1.000
 5352.00    1.61312   1.56629   -1.000
 5353.00    1.61595   1.57938   -1.000
 5354.00    1.62094   1.58976   -1.000
 5355.00    1.63141   1.60079   -1.000
 5356.00    1.63700   1.61168   91.986
 5357.00    1.63744   1.61910   91.749
 5358.00    1.63989   1.62110   91.892
 5359.00    1.63815   1.61792   92.143
 5360.00    1.62824   1.60952   92.905
 5361.00    1.61440   1.59515   94.289
 5362.00    1.59956   1.57654   95.778
 5363.00    1.58746   1.55820   96.764
 5364.00    1.57972   1.54433   -1.000
 5365.00    1.57088   1.53678   -1.000
 5366.00    1.56563   1.53455   98.013
 5367.00    1.57115   1.53325   -1.000
 5368.00    1.57527   1.52623   -1.000
 5369.00    1.55973   1.50930   -1.000
 5370.00    1.53472   1.48613   -1.000
 5371.00    1.52723   1.47012   -1.000
 5372.00    1.54495   1.47531   -1.000
 5373.00    1.57991   1.50387   -1.000
 5374.00    1.61338   1.54318   -1.000
 5375.00    1.63040   1.57571   -1.000
 5376.00    1.63768   1.59320   -1.000
 5377.00    1.63805   1.59753   -1.000
 5378.00    1.63047   1.59431   -1.000
 5379.00    1.62244   1.58738   -1.000
 5380.00    1.61374   1.57849   -1.000
 5381.00    1.60692   1.56885   -1.000
 5382.00    1.60248   1.56038   -1.000
 5383.00    1.59969   1.55640   -1.000
 5384.00    1.60487   1.56032   -1.000
 5385.00    1.61816   1.57184   -1.000
 5386.00    1.63051   1.58482   -1.000
 5387.00    1.63289   1.59138   -1.000
 5388.00    1.62555   1.58838   -1.000
 5389.00    1.61562   1.57781   -1.000
 5390.00    1.60391   1.56411   -1.000
 5391.00    1.59111   1.55123   -1.000
 5392.00    1.58602   1.54101   -1.000
 5393.00    1.58725   1.53406   -1.000
 5394.00    1.58430   1.52883   -1.000
 5395.00    1.57200   1.52028   -1.000
 5396.00    1.55122   1.50670   -1.000
 5397.00    1.53855   1.49477   -1.000
 5398.00    1.55344   1.49486   -1.000
 5399.00    1.58347   1.51028   -1.000
 5400.00    1.60263   1.53162   -1.000
 5401.00    1.60543   1.54610   -1.000
 5402.00    1.59463   1.54590   -1.000
 5403.00    1.57398   1.52844   -1.000
 5404.00    1.54658   1.49922   -1.000
 5405.00    1.52488   1.47349   -1.000
 5406.00    1.53098   1.46498   -1.000
 5407.00    1.55511   1.47429   -1.000
 5408.00    1.56767   1.48912   -1.000
 5409.00    1.56492   1.49709   -1.000
 5410.00    1.56547   1.50062   -1.000
 5411.00    1.58493   1.50997   -1.000
 5412.00    1.61153   1.52731   -1.000
 5413.00    1.62095   1.54463   -1.000
 5414.00    1.61416   1.55465   -1.000
 5415.00    1.61155   1.56058   -1.000
 5416.00    1.61912   1.56928   -1.000
 5417.00    1.62525   1.58028   -1.000
 5418.00    1.62397   1.58798   -1.000
 5419.00    1.62110   1.58901   -1.000
 5420.00    1.61872   1.58525   -1.000
 5421.00    1.62135   1.57988   -1.000
 5422.00    1.61857   1.57255   -1.000
 5423.00    1.60424   1.56303   -1.000
 5424.00    1.59361   1.55586   -1.000
 5425.00    1.59718   1.55812   -1.000
 5426.00    1.61611   1.57027   -1.000
 5427.00    1.62364   1.57886   -1.000
 5428.00    1.60198   1.57047   -1.000
 5429.00    1.57583   1.54918  100.426
 5430.00    1.57051   1.53129   -1.000
 5431.00    1.58505   1.52774   -1.000
 5432.00    1.59518   1.53189   -1.000
 5433.00    1.58497   1.53111   -1.000
 5434.00    1.56865   1.52500   -1.000
 5435.00    1.56536   1.52393   -1.000
 5436.00    1.58351   1.53723   -1.000
 5437.00    1.61269   1.56390   -1.000
 5438.00    1.63625   1.59363   -1.000
 5439.00    1.64907   1.61620   -1.000
 5440.00    1.65504   1.62835   93.572
 5441.00    1.65832   1.63314   93.165
 5442.00    1.65713   1.63203   93.119
 5443.00    1.64940   1.62205   93.675
 5444.00    1.62695   1.59927   95.557
 5445.00    1.58985   1.56580   98.958
 5446.00    1.55268   1.53388  102.664
 5447.00    1.54115   1.51911  103.674
 5448.00    1.56440   1.52928   -1.000
 5449.00    1.60083   1.55672   -1.000
 5450.00    1.62401   1.58490   -1.000
 5451.00    1.62592   1.60199   96.130
 5452.00    1.61825   1.60315   96.635
 5453.00    1.60393   1.58837   98.296
 5454.00    1.57833   1.56286  100.961
 5455.00    1.55571   1.53882  103.493
 5456.00    1.56015   1.53207  103.585
 5457.00    1.59001   1.54923   -1.000
 5458.00    1.62081   1.57862   -1.000
 5459.00    1.63489   1.60154   -1.000
 5460.00    1.63095   1.60678   96.625
 5461.00    1.61948   1.59532   98.219
 5462.00    1.60734   1.57658   99.807
 5463.00    1.59994   1.56275   -1.000
 5464.00    1.60363   1.56162   -1.000
 5465.00    1.61601   1.57168   -1.000
 5466.00    1.62839   1.58521   -1.000
 5467.00    1.63561   1.59602   -1.000
 5468.00    1.64353   1.60304   -1.000
 5469.00    1.64571   1.60615   -1.000
 5470.00    1.64245   1.60464   -1.000
 5471.00    1.64079   1.59932   -1.000
 5472.00    1.63067   1.59160   -1.000
 5473.00    1.61897   1.58111   -1.000
 5474.00    1.60677   1.56586   -1.000
 5475.00    1.58654   1.54555   -1.000
 5476.00    1.56951   1.52631   -1.000
 5477.00    1.56922   1.51892   -1.000
 5478.00    1.59163   1.52881   -1.000
 5479.00    1.61967   1.54891   -1.000
 5480.00    1.62689   1.56457   -1.000
 5481.00    1.61365   1.56966   -1.000
 5482.00    1.60521   1.57186  101.383
 5483.00    1.61598   1.57993   -1.000
 5484.00    1.63536   1.59384   -1.000
 5485.00    1.64674   1.60533   -1.000
 5486.00    1.64124   1.60699   -1.000
 5487.00    1.62765   1.60002   98.355
 5488.00    1.62217   1.59249   99.315
 5489.00    1.62539   1.59125   99.535
 5490.00    1.62533   1.59594   99.123
 5491.00    1.62734   1.60192   98.377
 5492.00    1.63889   1.60571   97.861
 5493.00    1.64240   1.60696   -1.000
 5494.00    1.63873   1.60698   97.986
 5495.00    1.63772   1.60525   97.982
 5496.00    1.63368   1.60044   -1.000
 5497.00    1.62429   1.59442   99.121
 5498.00    1.62239   1.59117   99.119
 5499.00    1.63077   1.59150   -1.000
 5500.00    1.63352   1.59033   -1.000
 5501.00    1.62476   1.58333   -1.000
 5502.00    1.62227   1.57514   -1.000
 5503.00    1.62749   1.57212   -1.000
 5504.00    1.62795   1.57231   -1.000
 5505.00    1.62002   1.56984   -1.000
 5506.00    1.60217   1.56372   -1.000
 5507.00    1.60051   1.56047   -1.000
 5508.00    1.61676   1.56557   -1.000
 5509.00    1.63381   1.57517   -1.000
 5510.00    1.63633   1.58054   -1.000
 5511.00    1.62166   1.57633   -1.000
 5512.00    1.60778   1.56532   -1.000
 5513.00    1.60396   1.55605   -1.000
 5514.00    1.60969   1.55586   -1.000
 5515.00    1.62089   1.56558   -1.000
 5516.00    1.64263   1.58091   -1.000
 5517.00    1.66149   1.59771   -1.000
 5518.00    1.67055   1.61332   -1.000
 5519.00    1.67381   1.62516   -1.000
 5520.00    1.67086   1.63118   -1.000
 5521.00    1.66982   1.63187   -1.000
 5522.00    1.66754   1.62967   -1.000
 5523.00    1.66024   1.62598   -1.000
 5524.00    1.65451   1.61861   -1.000
 5525.00    1.64980   1.60384   -1.000
 5526.00    1.62965   1.58103   -1.000
 5527.00    1.60001   1.55621   -1.000
 5528.00    1.58922   1.54094   -1.000
 5529.00    1.60346   1.54454   -1.000
 5530.00    1.63367   1.56567   -1.000
 5531.00    1.65581   1.59051   -1.000
 5532.00    1.65558   1.60481   -1.000
 5533.00    1.64751   1.60519   -1.000
 5534.00    1.64199   1.59809   -1.000
 5535.00    1.63925   1.59255   -1.000
 5536.00    1.64234   1.59405   -1.000
 5537.00    1.65567   1.60168   -1.000
 5538.00    1.66670   1.61065   -1.000
 5539.00    1.67232   1.61865   -1.000
 5540.00    1.68215   1.62588   -1.000
 5541.00    1.68876   1.63010   -1.000
 5542.00    1.68071   1.62796   -1.000
 5543.00    1.66652   1.62086   -1.000
 5544.00    1.66174   1.61443   -1.000
 5545.00    1.66346   1.61309   -1.000
 5546.00    1.66872   1.61668   -1.000
 5547.00    1.68065   1.62319   -1.000
 5548.00    1.68843   1.63172   -1.000
 5549.00    1.69166   1.64061   -1.000
 5550.00    1.69619   1.64668   -1.000
 5551.00    1.69320   1.64794   -1.000
 5552.00    1.68826   1.64429   -1.000
 5553.00    1.67898   1.63742   -1.000
 5554.00    1.66960   1.63102   -1.000
 5555.00    1.67270   1.62871   -1.000
 5556.00    1.67924   1.63069   -1.000
 5557.00    1.68088   1.63403   -1.000
 5558.00    1.67907   1.63655   -1.000
 5559.00    1.67769   1.63761   -1.000
 5560.00    1.67883   1.63621   -1.000
 5561.00    1.67846   1.63124   -1.000
 5562.00    1.67210   1.62355   -1.000
 5563.00    1.66768   1.61603   -1.000
 5564.00    1.66178   1.61092   -1.000
 5565.00    1.65380   1.60803   -1.000
 5566.00    1.65328   1.60602   -1.000
 5567.00    1.65498   1.60395   -1.000
 5568.00    1.65318   1.60165   -1.000
 5569.00    1.64974   1.59935   -1.000
 5570.00    1.64932   1.59721   -1.000
 5571.00    1.64926   1.59479   -1.000
 5572.00    1.64584   1.59203   -1.000
 5573.00    1.65039   1.59134   -1.000
 5574.00    1.66295   1.59562   -1.000
 5575.00    1.67517   1.60304   -1.000
 5576.00    1.69745   1.60981   -1.000
 5577.00    1.72714   1.61604   -1.000
 5578.00    1.73407   1.62307   -1.000
 5579.00    1.71778   1.62924   -1.000
 5580.00    1.70615   1.63189   -1.000
 5581.00    1.68969   1.63084   -1.000
 5582.00    1.67241   1.62844   -1.000
 5583.00    1.67325   1.62590   -1.000
 5584.00    1.67396   1.62027   -1.000
 5585.00    1.65927   1.60559   -1.000
 5586.00    1.63038   1.57946   -1.000
 5587.00    1.60019   1.54983   -1.000
 5588.00    1.58655   1.52975   -1.000
 5589.00    1.59362   1.52671   -1.000
 5590.00    1.61409   1.53901   -1.000
 5591.00    1.63417   1.55800   -1.000
 5592.00    1.64661   1.57365   -1.000
 5593.00    1.64528   1.58153   -1.000
 5594.00    1.63994   1.58570   -1.000
 5595.00    1.64726   1.59184   -1.000
 5596.00    1.65611   1.59930   -1.000
 5597.00    1.65378   1.60142   -1.000
 5598.00    1.63934   1.59483   -1.000
 5599.00    1.63048   1.58461   -1.000
 5600.00    1.62896   1.57554   -1.000
 5601.00    1.62490   1.56753   -1.000
 5602.00    1.61955   1.56397   -1.000
 5603.00    1.62809   1.57232   -1.000
 5604.00    1.65817   1.59480   -1.000
 5605.00    1.68453   1.62456   -1.000
 5606.00    1.69785   1.65084   -1.000
 5607.00    1.70388   1.66742   -1.000
 5608.00    1.70646   1.67508   95.908
 5609.00    1.70606   1.67775   96.098
 5610.00    1.70172   1.67897   96.133
 5611.00    1.70256   1.67907   95.905
 5612.00    1.70393   1.67316   -1.000
 5613.00    1.68703   1.65466   -1.000
 5614.00    1.65429   1.62394  100.229
 5615.00    1.63174   1.59239   -1.000
 5616.00    1.63578   1.57690   -1.000
 5617.00    1.65918   1.58447   -1.000
 5618.00    1.67947   1.60489   -1.000
 5619.00    1.68689   1.62434   -1.000
 5620.00    1.69255   1.63719   -1.000
 5621.00    1.69699   1.64341   -1.000
 5622.00    1.69276   1.64239   -1.000
 5623.00    1.67996   1.63307   -1.000
 5624.00    1.66500   1.61957   -1.000
 5625.00    1.65705   1.61146   -1.000
 5626.00    1.66580   1.61513   -1.000
 5627.00    1.68288   1.62853   -1.000
 5628.00    1.69333   1.64434   -1.000
 5629.00    1.70298   1.65685   -1.000
 5630.00    1.71258   1.66462   -1.000
 5631.00    1.71501   1.66744   -1.000
 5632.00    1.71212   1.66534   -1.000
 5633.00    1.71240   1.65961   -1.000
 5634.00    1.71187   1.65233   -1.000
 5635.00    1.70549   1.64491   -1.000
 5636.00    1.69566   1.63821   -1.000
 5637.00    1.68412   1.63321   -1.000
 5638.00    1.67488   1.63080   -1.000
 5639.00    1.67310   1.63023   -1.000
 5640.00    1.68021   1.62916   -1.000
 5641.00    1.68442   1.62748   -1.000
 5642.00    1.68324   1.62785   -1.000
 5643.00    1.68609   1.63132   -1.000
 5644.00    1.69148   1.63621   -1.000
 5645.00    1.69670   1.64117   -1.000
 5646.00    1.69949   1.64561   -1.000
 5647.00    1.69903   1.64849   -1.000
 5648.00    1.70295   1.64895   -1.000
 5649.00    1.70662   1.64756   -1.000
 5650.00    1.71039   1.64653   -1.000
 5651.00    1.71582   1.64739   -1.000
 5652.00    1.71737   1.64850   -1.000
 5653.00    1.71461   1.64682   -1.000
 5654.00    1.70538   1.64077   -1.000
 5655.00    1.69174   1.63028   -1.000
 5656.00    1.67572   1.61504   -1.000
 5657.00    1.65622   1.59575   -1.000
 5658.00    1.63462   1.57882   -1.000
 5659.00    1.63424   1.57362   -1.000
 5660.00    1.65813   1.58136   -1.000
 5661.00    1.66920   1.59389   -1.000
 5662.00    1.66789   1.60419   -1.000
 5663.00    1.67766   1.61280   -1.000
 5664.00    1.68877   1.62332   -1.000
 5665.00    1.69280   1.63404   -1.000
 5666.00    1.69457   1.63933   -1.000
 5667.00    1.68938   1.63820   -1.000
 5668.00    1.68277   1.63537   -1.000
 5669.00    1.68462   1.63573   -1.000
 5670.00    1.69219   1.64077   -1.000
 5671.00    1.70315   1.64913   -1.000
 5672.00    1.70798   1.65814   -1.000
 5673.00    1.71178   1.66519   -1.000
 5674.00    1.71730   1.66871   -1.000
 5675.00    1.71714   1.66920   -1.000
 5676.00    1.71892   1.66897   -1.000
 5677.00    1.72050   1.66923   -1.000
 5678.00    1.71925   1.66860   -1.000
 5679.00    1.71902   1.66481   -1.000
 5680.00    1.71804   1.65639   -1.000
 5681.00    1.70735   1.64357   -1.000
 5682.00    1.69147   1.62949   -1.000
 5683.00    1.68583   1.61933   -1.000
 5684.00    1.68878   1.61663   -1.000
 5685.00    1.69246   1.61953   -1.000
 5686.00    1.69320   1.62193   -1.000
 5687.00    1.68983   1.62048   -1.000
 5688.00    1.68361   1.61834   -1.000
 5689.00    1.68352   1.62119   -1.000
 5690.00    1.70041   1.63105   -1.000
 5691.00    1.71709   1.64455   -1.000
 5692.00    1.72397   1.65657   -1.000
 5693.00    1.72558   1.66448   -1.000
 5694.00    1.72566   1.66861   -1.000
 5695.00    1.72916   1.66997   -1.000
 5696.00    1.72447   1.66891   -1.000
 5697.00    1.71457   1.66517   -1.000
 5698.00    1.70186   1.65826   -1.000
 5699.00    1.68765   1.64874   -1.000
 5700.00    1.67957   1.63882   -1.000
 5701.00    1.67460   1.63171   -1.000
 5702.00    1.67724   1.62992   -1.000
 5703.00    1.68250   1.63286   -1.000
 5704.00    1.68291   1.63608   -1.000
 5705.00    1.68034   1.63407   -1.000
 5706.00    1.67186   1.62488   -1.000
 5707.00    1.65814   1.61053   -1.000
 5708.00    1.64447   1.59423   -1.000
 5709.00    1.63537   1.58048   -1.000
 5710.00    1.63399   1.57479   -1.000
 5711.00    1.64216   1.58035   -1.000
 5712.00    1.66005   1.59658   -1.000
 5713.00    1.68695   1.61907   -1.000
 5714.00    1.71208   1.64075   -1.000
 5715.00    1.72324   1.65585   -1.000
 5716.00    1.72683   1.66406   -1.000
 5717.00    1.72400   1.66897   -1.000
 5718.00    1.72143   1.67374   -1.000
 5719.00    1.72815   1.67971   -1.000
 5720.00    1.73484   1.68662   -1.000
 5721.00    1.74197   1.69306   -1.000
 5722.00    1.74227   1.69781   -1.000
 5723.00    1.74290   1.70023   -1.000
 5724.00    1.74766   1.69968   -1.000
 5725.00    1.74095   1.69536   -1.000
 5726.00    1.72890   1.68801   -1.000
 5727.00    1.71566   1.68110   -1.000
 5728.00    1.71435   1.67804   -1.000
 5729.00    1.72901   1.67882   -1.000
 5730.00    1.73364   1.68012   -1.000
 5731.00    1.72756   1.67971   -1.000
 5732.00    1.73059   1.67957   -1.000
 5733.00    1.74162   1.68289   -1.000
 5734.00    1.75123   1.68950   -1.000
 5735.00    1.74793   1.69590   -1.000
 5736.00    1.73953   1.69923   -1.000
 5737.00    1.73757   1.69954   -1.000
 5738.00    1.73777   1.69850   -1.000
 5739.00    1.73897   1.69752   -1.000
 5740.00    1.74036   1.69665   -1.000
 5741.00    1.73682   1.69512   -1.000
 5742.00    1.73428   1.69345   -1.000
 5743.00    1.73821   1.69355   -1.000
 5744.00    1.73962   1.69614   -1.000
 5745.00    1.74474   1.69874   -1.000
 5746.00    1.74442   1.69806   -1.000
 5747.00    1.73244   1.69438   -1.000
 5748.00    1.73252   1.69162   -1.000
 5749.00    1.74242   1.69221   -1.000
 5750.00    1.74831   1.69273   -1.000
 5751.00    1.74277   1.68713   -1.000
 5752.00    1.72651   1.67462   -1.000
 5753.00    1.71253   1.66194   -1.000
 5754.00    1.71116   1.65806   -1.000
 5755.00    1.72538   1.66646   -1.000
 5756.00    1.74596   1.68257   -1.000
 5757.00    1.75498   1.69782   -1.000
 5758.00    1.75085   1.70555   -1.000
 5759.00    1.74578   1.70375   -1.000
 5760.00    1.73971   1.69428   -1.000
 5761.00    1.73073   1.68125   -1.000
 5762.00    1.71894   1.67105   -1.000
 5763.00    1.71271   1.67027   -1.000
 5764.00    1.71949   1.68071   -1.000
 5765.00    1.73436   1.69704   -1.000
 5766.00    1.74650   1.71092   -1.000
 5767.00    1.75036   1.71783   -1.000
 5768.00    1.74873   1.71890   94.887
 5769.00    1.74154   1.71694   94.917
 5770.00    1.73344   1.71328   95.203
 5771.00    1.72691   1.70799   95.643
 5772.00    1.72279   1.70153   96.225
 5773.00    1.71936   1.69571   96.628
 5774.00    1.71627   1.69237   96.776
 5775.00    1.71798   1.69217   96.713
 5776.00    1.71681   1.69431   96.332
 5777.00    1.70513   1.69542   96.048
 5778.00    1.67810   1.69062   96.203
 5779.00    1.63948   1.67814   -1.000
 5780.00    1.61436   1.66168   -1.000
 5781.00    1.61900   1.64776   -1.000
 5782.00    1.64749   1.64091  101.244
 5783.00    1.67490   1.64090  100.858
 5784.00    1.69032   1.64439   -1.000
 5785.00    1.70634   1.64943   -1.000
 5786.00    1.72005   1.65739   -1.000
 5787.00    1.73165   1.66888   -1.000
 5788.00    1.74097   1.67977   -1.000
 5789.00    1.73820   1.68497   -1.000
 5790.00    1.73454   1.68411   -1.000
 5791.00    1.73496   1.68216   -1.000
 5792.00    1.73599   1.68443   -1.000
 5793.00    1.74089   1.69181   -1.000
 5794.00    1.74171   1.70101   -1.000
 5795.00    1.73730   1.70770   95.079
 5796.00    1.72669   1.70904   95.393
 5797.00    1.72096   1.70599   96.024
 5798.00    1.72732   1.70368   96.050
 5799.00    1.73722   1.70652   95.103
 5800.00    1.75016   1.71357   -1.000
 5801.00    1.76404   1.72030   -1.000
 5802.00    1.76959   1.72274   -1.000
 5803.00    1.76054   1.71973   -1.000
 5804.00    1.75090   1.71319   -1.000
 5805.00    1.75315   1.70726   -1.000
 5806.00    1.75719   1.70532   -1.000
 5807.00    1.75712   1.70752   -1.000
 5808.00    1.76279   1.71161   -1.000
 5809.00    1.76723   1.71584   -1.000
 5810.00    1.76812   1.71966   -1.000
 5811.00    1.77199   1.72230   -1.000
 5812.00    1.77246   1.72251   -1.000
 5813.00    1.77167   1.71977   -1.000
 5814.00    1.76926   1.71449   -1.000
 5815.00    1.76077   1.70840   -1.000
 5816.00    1.75664   1.70520   -1.000
 5817.00    1.76385   1.70841   -1.000
 5818.00    1.77586   1.71715   -1.000
 5819.00    1.78300   1.72647   -1.000
 5820.00    1.78204   1.73225   -1.000
 5821.00    1.78167   1.73418   -1.000
 5822.00    1.78528   1.73441   -1.000
 5823.00    1.78566   1.73473   -1.000
 5824.00    1.78472   1.73532   -1.000
 5825.00    1.78507   1.73585   -1.000
 5826.00    1.78383   1.73647   -1.000
 5827.00    1.78551   1.73751   -1.000
 5828.00    1.79136   1.73879   -1.000
 5829.00    1.79110   1.73967   -1.000
 5830.00    1.78802   1.73983   -1.000
 5831.00    1.78857   1.73930   -1.000
 5832.00    1.78811   1.73797   -1.000
 5833.00    1.78731   1.73572   -1.000
 5834.00    1.78800   1.73319   -1.000
 5835.00    1.79090   1.73197   -1.000
 5836.00    1.79595   1.73315   -1.000
 5837.00    1.79428   1.73573   -1.000
 5838.00    1.78944   1.73787   -1.000
 5839.00    1.79050   1.73940   -1.000
 5840.00    1.78475   1.74136   -1.000
 5841.00    1.78075   1.74350   -1.000
 5842.00    1.78875   1.74415   -1.000
 5843.00    1.79118   1.74229   -1.000
 5844.00    1.78949   1.73804   -1.000
 5845.00    1.78856   1.73198   -1.000
 5846.00    1.78166   1.72556   -1.000
 5847.00    1.77460   1.72122   -1.000
 5848.00    1.77043   1.72026   -1.000
 5849.00    1.77111   1.72064   -1.000
 5850.00    1.76369   1.71857   -1.000
 5851.00    1.75029   1.71187   -1.000
 5852.00    1.74387   1.70190   -1.000
 5853.00    1.74187   1.69219   -1.000
 5854.00    1.73906   1.68469   -1.000
 5855.00    1.73951   1.67728   -1.000
 5856.00    1.73948   1.66628   -1.000
 5857.00    1.72864   1.65362   -1.000
 5858.00    1.72396   1.64788   -1.000
 5859.00    1.73674   1.65435   -1.000
 5860.00    1.75193   1.66892   -1.000
 5861.00    1.75818   1.68357   -1.000
 5862.00    1.75940   1.69408   -1.000
 5863.00    1.76196   1.70113   -1.000
 5864.00    1.76720   1.70529   -1.000
 5865.00    1.76337   1.70512   -1.000
 5866.00    1.75267   1.70132   -1.000
 5867.00    1.75219   1.69847   -1.000
 5868.00    1.76399   1.70120   -1.000
 5869.00    1.77823   1.70963   -1.000
 5870.00    1.78352   1.71934   -1.000
 5871.00    1.78261   1.72536   -1.000
 5872.00    1.78287   1.72593   -1.000
 5873.00    1.78078   1.72253   -1.000
 5874.00    1.77554   1.71765   -1.000
 5875.00    1.77511   1.71305   -1.000
 5876.00    1.77588   1.70942   -1.000
 5877.00    1.77003   1.70642   -1.000
 5878.00    1.76531   1.70313   -1.000
 5879.00    1.75969   1.69920   -1.000
 5880.00    1.75642   1.69508   -1.000
 5881.00    1.75611   1.69083   -1.000
 5882.00    1.75392   1.68561   -1.000
 5883.00    1.75333   1.67903   -1.000
 5884.00    1.74975   1.67194   -1.000
 5885.00    1.74685   1.66365   -1.000
 5886.00    1.72305   1.64656   -1.000
 5887.00    1.64763   1.60794   -1.000
 5888.00    1.52555   1.54382  106.222
 5889.00    1.40037   1.47246   -1.000
 5890.00    1.35295   1.42855   -1.000
 5891.00    1.42868   1.43182  116.703
 5892.00    1.55005   1.46519   -1.000
 5893.00    1.59346   1.49269   -1.000
 5894.00    1.53980   1.49300   -1.000
 5895.00    1.45910   1.47410  111.400
 5896.00    1.44062   1.46278  112.770
 5897.00    1.51099   1.48011   -1.000
 5898.00    1.60967   1.52264   -1.000
 5899.00    1.67887   1.57037   -1.000
 5900.00    1.71069   1.60962   -1.000
 5901.00    1.72178   1.63910   -1.000
 5902.00    1.73163   1.66037   -1.000
 5903.00    1.74684   1.67365   -1.000
 5904.00    1.75422   1.68026   -1.000
 5905.00    1.75436   1.68341   -1.000
 5906.00    1.75154   1.68623   -1.000
 5907.00    1.74881   1.68993   -1.000
 5908.00    1.74955   1.69387   -1.000
 5909.00    1.74465   1.69718   -1.000
 5910.00    1.74494   1.69935   -1.000
 5911.00    1.74599   1.69898   -1.000
 5912.00    1.74113   1.69367   -1.000
 5913.00    1.73433   1.68328   -1.000
 5914.00    1.72488   1.67223   -1.000
 5915.00    1.72290   1.66608   -1.000
 5916.00    1.72865   1.66708   -1.000
 5917.00    1.73122   1.67380   -1.000
 5918.00    1.73381   1.68307   -1.000
 5919.00    1.73469   1.69132   -1.000
 5920.00    1.73229   1.69613   -1.000
 5921.00    1.73533   1.69742   -1.000
 5922.00    1.74024   1.69715   -1.000
 5923.00    1.73995   1.69777   -1.000
 5924.00    1.73739   1.70061   -1.000
 5925.00    1.74293   1.70478   -1.000
 5926.00    1.75249   1.70729   -1.000
 5927.00    1.75748   1.70484   -1.000
 5928.00    1.75923   1.69705   -1.000
 5929.00    1.75356   1.68806   -1.000
 5930.00    1.74422   1.68390   -1.000
 5931.00    1.74366   1.68703   -1.000
 5932.00    1.74765   1.69344   -1.000
 5933.00    1.74346   1.69728   -1.000
 5934.00    1.74364   1.69800   -1.000
 5935.00    1.75183   1.69973   -1.000
 5936.00    1.75397   1.70486   -1.000
 5937.00    1.75547   1.71130   -1.000
 5938.00    1.75903   1.71497   -1.000
 5939.00    1.75944   1.71341   -1.000
 5940.00    1.74971   1.70762   -1.000
 5941.00    1.73597   1.70143   -1.000
 5942.00    1.72958   1.69873   99.119
 5943.00    1.73423   1.70041   -1.000
 5944.00    1.74578   1.70416   -1.000
 5945.00    1.74838   1.70680   -1.000
 5946.00    1.74339   1.70596   -1.000
 5947.00    1.74174   1.70132   -1.000
 5948.00    1.73844   1.69573   -1.000
 5949.00    1.72879   1.69336   -1.000
 5950.00    1.72836   1.69517   99.666
 5951.00    1.74401   1.69764   -1.000
 5952.00    1.75024   1.69760   -1.000
 5953.00    1.74798   1.69645   -1.000
 5954.00    1.75191   1.69641   -1.000
 5955.00    1.74798   1.69607   -1.000
 5956.00    1.73652   1.69401   -1.000
 5957.00    1.73104   1.69279   -1.000
 5958.00    1.74057   1.69602   -1.000
 5959.00    1.74943   1.70405   -1.000
 5960.00    1.75978   1.71358   -1.000
 5961.00    1.77485   1.72086   -1.000
 5962.00    1.77847   1.72427   -1.000
 5963.00    1.77049   1.72386   -1.000
 5964.00    1.76167   1.72046   -1.000
 5965.00    1.75669   1.71590   -1.000
 5966.00    1.75125   1.71284   -1.000
 5967.00    1.75170   1.71309   -1.000
 5968.00    1.75538   1.71645   -1.000
 5969.00    1.75988   1.72157   -1.000
 5970.00    1.76773   1.72706   -1.000
 5971.00    1.77116   1.73119   -1.000
 5972.00    1.76834   1.73213   -1.000
 5973.00    1.76549   1.72872   -1.000
 5974.00    1.76052   1.72100   -1.000
 5975.00    1.75538   1.71088   -1.000
 5976.00    1.74538   1.70208   -1.000
 5977.00    1.73745   1.69843   -1.000
 5978.00    1.74699   1.70138   -1.000
 5979.00    1.75951   1.70886   -1.000
 5980.00    1.76249   1.71623   -1.000
 5981.00    1.76048   1.71836   -1.000
 5982.00    1.75700   1.71274   -1.000
 5983.00    1.74824   1.70194   -1.000
 5984.00    1.74062   1.69247   -1.000
 5985.00    1.74385   1.68978   -1.000
 5986.00    1.75283   1.69422   -1.000
 5987.00    1.75778   1.70210   -1.000
 5988.00    1.76155   1.70955   -1.000
 5989.00    1.76280   1.71447   -1.000
 5990.00    1.76244   1.71657   -1.000
 5991.00    1.76662   1.71767   -1.000
 5992.00    1.77280   1.72067   -1.000
 5993.00    1.77845   1.72614   -1.000
 5994.00    1.77959   1.73039   -1.000
 5995.00    1.77614   1.72938   -1.000
 5996.00    1.77036   1.72361   -1.000
 5997.00    1.76785   1.71735   -1.000
 5998.00    1.76840   1.71432   -1.000
 5999.00    1.76704   1.71482   -1.000
 6000.00    1.76431   1.71627   -1.000
 6001.00    1.76139   1.71595   -1.000
 6002.00    1.75951   1.71361   -1.000
 6003.00    1.75389   1.71144   -1.000
 6004.00    1.74883   1.71093   -1.000
 6005.00    1.74822   1.70981   -1.000
 6006.00    1.74475   1.70451   -1.000
 6007.00    1.73960   1.69602   -1.000
 6008.00    1.73577   1.69077   -1.000
 6009.00    1.73800   1.69410   -1.000
 6010.00    1.74789   1.70374   -1.000
 6011.00    1.75742   1.71175   -1.000
 6012.00    1.75752   1.71313   -1.000
 6013.00    1.75766   1.71009   -1.000
 6014.00    1.76320   1.70722   -1.000
 6015.00    1.76009   1.70618   -1.000
 6016.00    1.76080   1.70586   -1.000
 6017.00    1.76756   1.70500   -1.000
 6018.00    1.76282   1.70282   -1.000
 6019.00    1.75477   1.69871   -1.000
 6020.00    1.75178   1.69375   -1.000
 6021.00    1.75058   1.69097   -1.000
 6022.00    1.75207   1.69207   -1.000
 6023.00    1.75752   1.69593   -1.000
 6024.00    1.75944   1.70174   -1.000
 6025.00    1.76402   1.70978   -1.000
 6026.00    1.77047   1.71867   -1.000
 6027.00    1.77413   1.72626   -1.000
 6028.00    1.77704   1.73251   -1.000
 6029.00    1.78109   1.73808   -1.000
 6030.00    1.78360   1.74259   -1.000
 6031.00    1.78393   1.74579   -1.000
 6032.00    1.78617   1.74842   -1.000
 6033.00    1.78934   1.75119   -1.000
 6034.00    1.79308   1.75390   -1.000
 6035.00    1.78942   1.75564   -1.000
 6036.00    1.78209   1.75576   96.486
 6037.00    1.78310   1.75425   -1.000
 6038.00    1.78733   1.75112   -1.000
 6039.00    1.78343   1.74663   -1.000
 6040.00    1.77908   1.74194   -1.000
 6041.00    1.78229   1.73876   -1.000
 6042.00    1.78858   1.73853   -1.000
 6043.00    1.79641   1.74146   -1.000
 6044.00    1.80064   1.74626   -1.000
 6045.00    1.80165   1.75106   -1.000
 6046.00    1.80285   1.75516   -1.000
 6047.00    1.80334   1.75904   -1.000
 6048.00    1.80022   1.76253   -1.000
 6049.00    1.79484   1.76467   -1.000
 6050.00    1.79341   1.76489   -1.000
 6051.00    1.80160   1.76317   -1.000
 6052.00    1.80479   1.75919   -1.000
 6053.00    1.79948   1.75260   -1.000
 6054.00    1.79416   1.74448   -1.000
 6055.00    1.78974   1.73750   -1.000
 6056.00    1.78770   1.73447   -1.000
 6057.00    1.78679   1.73647   -1.000
 6058.00    1.78638   1.74191   -1.000
 6059.00    1.78836   1.74768   -1.000
 6060.00    1.79412   1.75105   -1.000
 6061.00    1.79328   1.75023   -1.000
 6062.00    1.78257   1.74409   -1.000
 6063.00    1.77362   1.73301   -1.000
 6064.00    1.76316   1.72038   -1.000
 6065.00    1.73831   1.71284   -1.000
 6066.00    1.71083   1.71585   52.689
 6067.00    1.73746   1.72799   43.690
 6068.00    1.71918   1.74262  105.692
 6069.00    1.35370   1.75435   -1.000
 6070.00    0.92756   1.76163   -1.000
 6071.00    1.22097   1.76560   -1.000
 6072.00    1.74877   1.76800   94.607
 6073.00    1.83435   1.76957   -1.000
 6074.00    1.84663   1.76969   -1.000
 6075.00    1.89538   1.76721   -1.000
 6076.00    1.87225   1.76159   -1.000
 6077.00    1.78252   1.75352   97.566
 6078.00    1.77779   1.74527   -1.000
 6079.00    1.77688   1.73973   -1.000
 6080.00    1.77444   1.73734   -1.000
 6081.00    1.77365   1.73564   -1.000
 6082.00    1.77300   1.73299   -1.000
 6083.00    1.77149   1.73020   -1.000
 6084.00    1.77628   1.72883   -1.000
 6085.00    1.77915   1.73019   -1.000
 6086.00    1.77945   1.73440   -1.000
 6087.00    1.77817   1.73933   -1.000
 6088.00    1.77558   1.74184   -1.000
 6089.00    1.77280   1.74079   -1.000
 6090.00    1.76870   1.73793   99.778
 6091.00    1.76862   1.73603   -1.000
 6092.00    1.77549   1.73691   -1.000
 6093.00    1.78220   1.74067   -1.000
 6094.00    1.78813   1.74601   -1.000
 6095.00    1.79259   1.75124   -1.000
 6096.00    1.79182   1.75550   -1.000
 6097.00    1.79407   1.75859   -1.000
 6098.00    1.79595   1.75924   -1.000
 6099.00    1.78839   1.75394   -1.000
 6100.00    1.77238   1.73888   -1.000
 6101.00    1.75488   1.71524   -1.000
 6102.00    1.73722   1.69269   -1.000
 6103.00    1.72544   1.68424   -1.000
 6104.00    1.74191   1.69428   -1.000
 6105.00    1.76811   1.71429   -1.000
 6106.00    1.77410   1.73283   -1.000
 6107.00    1.77060   1.74524   98.987
 6108.00    1.77038   1.75305   99.337
 6109.00    1.77161   1.75833   99.417
 6110.00    1.77526   1.76137   99.267
 6111.00    1.77709   1.76256   98.925
 6112.00    1.77706   1.76347   98.691
 6113.00    1.77440   1.76507   98.440
 6114.00    1.77507   1.76657   98.022
 6115.00    1.77685   1.76667   98.133
 6116.00    1.77282   1.76529   98.696
 6117.00    1.77132   1.76279   99.097
 6118.00    1.76982   1.75743   99.372
 6119.00    1.75615   1.74557  100.382
 6120.00    1.73606   1.72580  101.830
 6121.00    1.72048   1.70284  102.950
 6122.00    1.71601   1.68642   -1.000
 6123.00    1.72697   1.68417   -1.000
 6124.00    1.74065   1.69541   -1.000
 6125.00    1.74967   1.71255   -1.000
 6126.00    1.75098   1.72735  100.715
 6127.00    1.75212   1.73620  100.966
 6128.00    1.75742   1.74100  100.733
 6129.00    1.76222   1.74610  100.201
 6130.00    1.76713   1.75370   99.271
 6131.00    1.77372   1.76211   98.708
 6132.00    1.77147   1.76726   98.760
 6133.00    1.76062   1.76372   99.356
 6134.00    1.74128   1.74658  101.024
 6135.00    1.71055   1.71656  103.772
 6136.00    1.67796   1.68416  106.657
 6137.00    1.66356   1.66456  108.078
 6138.00    1.68117   1.66408  106.650
 6139.00    1.71016   1.67458   -1.000
 6140.00    1.72499   1.68594   -1.000
 6141.00    1.72505   1.69731   -1.000
 6142.00    1.72435   1.71228  101.518
 6143.00    1.73776   1.73019  101.054
 6144.00    1.75574   1.74551   99.849
 6145.00    1.76550   1.75321   99.189
 6146.00    1.76698   1.75281   99.428
 6147.00    1.76088   1.74728  100.011
 6148.00    1.75334   1.74024  100.702
 6149.00    1.74376   1.73457  101.365
 6150.00    1.73773   1.73231  101.644
 6151.00    1.73762   1.73415  101.413
 6152.00    1.74333   1.73803  100.844
 6153.00    1.75278   1.73965  100.416
 6154.00    1.74800   1.73668  100.843
 6155.00    1.73851   1.73122  101.593
 6156.00    1.73689   1.72660  101.848
 6157.00    1.73391   1.72284  102.074
 6158.00    1.72168   1.71557  102.870
 6159.00    1.69783   1.69871  104.457
 6160.00    1.67233   1.67004  107.117
 6161.00    1.64367   1.63640  110.387
 6162.00    1.62505   1.61177  112.470
 6163.00    1.62775   1.60725  111.971
 6164.00    1.64548   1.62179  109.384
 6165.00    1.66676   1.64412  106.979
 6166.00    1.67865   1.66178  106.058
 6167.00    1.67717   1.66724  106.050
 6168.00    1.66366   1.66118  106.943
 6169.00    1.65375   1.65330  108.259
 6170.00    1.65779   1.65480  108.339
 6171.00    1.67793   1.66780  106.725
 6172.00    1.69482   1.68559  104.877
 6173.00    1.69784   1.70115  104.274
 6174.00    1.69851   1.71164  104.475
 6175.00    1.69924   1.71755  104.363
 6176.00    1.70008   1.72110  104.113
 6177.00    1.70192   1.72439  103.880
 6178.00    1.70287   1.72797  103.469
 6179.00    1.70673   1.73145  103.011
 6180.00    1.71162   1.73515  102.675
 6181.00    1.71453   1.73967  102.270
 6182.00    1.71898   1.74412  101.894
 6183.00    1.72050   1.74612  101.894
 6184.00    1.71316   1.74407   -1.000
 6185.00    1.70772   1.73836   -1.000
 6186.00    1.70706   1.73058  103.833
 6187.00    1.70079   1.72204  104.958
 6188.00    1.68677   1.71243   -1.000
 6189.00    1.67207   1.70000   -1.000
 6190.00    1.66068   1.68570   -1.000
 6191.00    1.65483   1.67647   -1.000
 6192.00    1.66203   1.67955  108.679
 6193.00    1.67831   1.69378  106.545
 6194.00    1.69639   1.71133  104.275
 6195.00    1.70452   1.72586  103.211
 6196.00    1.70555   1.73492   -1.000
 6197.00    1.70677   1.73779   -1.000
 6198.00    1.70474   1.73499   -1.000
 6199.00    1.69556   1.72973   -1.000
 6200.00    1.68802   1.72722   -1.000
 6201.00    1.68653   1.73058   -1.000
 6202.00    1.68270   1.73849   -1.000
 6203.00    1.68699   1.74742   -1.000
 6204.00    1.69993   1.75472   -1.000
 6205.00    1.70801   1.75961   -1.000
 6206.00    1.71383   1.76254   -1.000
 6207.00    1.72358   1.76406   -1.000
 6208.00    1.72603   1.76385   -1.000
 6209.00    1.72062   1.76074   -1.000
 6210.00    1.71408   1.75336   -1.000
 6211.00    1.70747   1.74105   -1.000
 6212.00    1.69526   1.72518   -1.000
 6213.00    1.67508   1.70963   -1.000
 6214.00    1.66741   1.69894   -1.000
 6215.00    1.67167   1.69508   -1.000
 6216.00    1.67583   1.69599  108.561
 6217.00    1.67758   1.69743  107.475
 6218.00    1.67830   1.69672  107.745
 6219.00    1.68013   1.69540  108.028
 6220.00    1.68234   1.69712  107.303
 6221.00    1.68610   1.70313  107.248
 6222.00    1.68788   1.71069   -1.000
 6223.00    1.68618   1.71653   -1.000
 6224.00    1.68907   1.71981   -1.000
 6225.00    1.70179   1.72099  106.196
 6226.00    1.58238   1.71947   -1.000
 6227.00    1.44527   1.71305   -1.000
 6228.00    1.58388   1.69985   -1.000
 6229.00    1.68416   1.68173  109.577
 6230.00    1.65407   1.66549  111.201
 6231.00    1.65569   1.65905  111.609
 6232.00    1.66451   1.66567  110.404
 6233.00    1.68276   1.68161  108.489
 6234.00    1.69839   1.69879  106.555
 6235.00    1.70360   1.70982  105.487
 6236.00    1.70393   1.71174  105.703
 6237.00    1.69823   1.70660  106.680
 6238.00    1.68723   1.69907  107.780
 6239.00    1.68001   1.69295  108.900
 6240.00    1.67967   1.68918  109.706
 6241.00    1.67770   1.68597  109.849
 6242.00    1.67185   1.68076  110.211
 6243.00    1.66579   1.67273  111.052
 6244.00    1.65802   1.66380  111.354
 6245.00    1.65587   1.65792  110.897
 6246.00    1.66623   1.65947  109.947
 6247.00    1.68093   1.67021  108.672
 6248.00    1.69077   1.68632  107.395
 6249.00    1.69339   1.69943  106.812
 6250.00    1.69014   1.70221  107.335
 6251.00    1.67700   1.69350  108.911
 6252.00    1.66108   1.67866  110.658
 6253.00    1.65184   1.66529  111.650
 6254.00    1.64710   1.65779  112.148
 6255.00    1.64344   1.65557  112.249
 6256.00    1.64127   1.65564  112.719
 6257.00    1.64114   1.65643  113.823
 6258.00    1.64270   1.65917  114.062
 6259.00    1.65419   1.66611  112.837
 6260.00    1.67511   1.67802  111.064
 6261.00    1.69068   1.69288  109.491
 6262.00    1.69793   1.70665  107.907
 6263.00    1.70248   1.71557  106.788
 6264.00    1.69743   1.71920  107.038
 6265.00    1.69245   1.72075   -1.000
 6266.00    1.69614   1.72331   -1.000
 6267.00    1.68907   1.72623   -1.000
 6268.00    1.67880   1.72667   -1.000
 6269.00    1.67696   1.72403   -1.000
 6270.00    1.67708   1.72113   -1.000
 6271.00    1.68324   1.72043   -1.000
 6272.00    1.69490   1.72062   -1.000
 6273.00    1.69857   1.71739  107.212
 6274.00    1.69070   1.70751  107.783
 6275.00    1.67224   1.69207  108.643
 6276.00    1.64530   1.67542   -1.000
 6277.00    1.61611   1.66168   -1.000
 6278.00    1.58976   1.65284   -1.000
 6279.00    1.57415   1.64978   -1.000
 6280.00    1.57160   1.65375   -1.000
 6281.00    1.56998   1.66492   -1.000
 6282.00    1.56781   1.68089   -1.000
 6283.00    1.57883   1.69767   -1.000
 6284.00    1.59404   1.71192   -1.000
 6285.00    1.61738   1.72228   -1.000
 6286.00    1.64822   1.72897   -1.000
 6287.00    1.67234   1.73231   -1.000
 6288.00    1.68956   1.73175   -1.000
 6289.00    1.70306   1.72728  106.502
 6290.00    1.70313   1.72097  107.290
 6291.00    1.69507   1.71576  108.165
 6292.00    1.68997   1.71311  108.664
 6293.00    1.69197   1.71229  108.788
 6294.00    1.69763   1.71093  108.942
 6295.00    1.69105   1.70659  109.465
 6296.00    1.67502   1.69917   -1.000
 6297.00    1.66824   1.69148   -1.000
 6298.00    1.66564   1.68615  110.698
 6299.00    1.65621   1.68261   -1.000
 6300.00    1.64271   1.67900   -1.000
 6301.00    1.63548   1.67670   -1.000
 6302.00    1.64683   1.68022   -1.000
 6303.00    1.67208   1.69147  111.469
 6304.00    1.69445   1.70683  109.968
 6305.00    1.70759   1.72101  108.381
 6306.00    1.71771   1.73118  107.284
 6307.00    1.72267   1.73691  106.361
 6308.00    1.73140   1.73883  105.777
 6309.00    1.73587   1.73813  105.976
 6310.00    1.72375   1.73596  106.606
 6311.00    1.71556   1.73274  107.191
 6312.00    1.71299   1.72806  107.594
 6313.00    1.70528   1.72140  107.873
 6314.00    1.70030   1.71336  108.390
 6315.00    1.69580   1.70538  109.160
 6316.00    1.68606   1.69870  109.271
 6317.00    1.68233   1.69481  109.156
 6318.00    1.68222   1.69613  109.179
 6319.00    1.68820   1.70398  109.078
 6320.00    1.70481   1.71580  108.182
 6321.00    1.71016   1.72713  106.939
 6322.00    1.71354   1.73644  106.228
 6323.00    1.72362   1.74511  105.885
 6324.00    1.72849   1.75314  105.421
 6325.00    1.73190   1.75851  104.952
 6326.00    1.73692   1.76037  104.774
 6327.00    1.73528   1.76013  104.503
 6328.00    1.73669   1.75952  104.248
 6329.00    1.73735   1.75922  104.382
 6330.00    1.73599   1.75929  104.448
 6331.00    1.73581   1.75929  104.299
 6332.00    1.73829   1.75714  103.990
 6333.00    1.73835   1.74976  104.057
 6334.00    1.72711   1.73669  104.358
 6335.00    1.71230   1.72254  105.668
 6336.00    1.70656   1.71440  107.212
 6337.00    1.71085   1.71593  106.730
 6338.00    1.75446   1.72509  105.685
 6339.00    1.78572   1.73721   -1.000
 6340.00    1.75742   1.74795  103.712
 6341.00    1.74367   1.75403  103.248
 6342.00    1.74186   1.75420  103.020
 6343.00    1.73895   1.75014  103.553
 6344.00    1.73151   1.74518  104.163
 6345.00    1.72916   1.74235  104.042
 6346.00    1.73548   1.74373  103.598
 6347.00    1.73812   1.75019  102.940
 6348.00    1.73961   1.76042  102.368
 6349.00    1.74262   1.77082   -1.000
 6350.00    1.74409   1.77784   -1.000
 6351.00    1.74116   1.77976   -1.000
 6352.00    1.73297   1.77658   -1.000
 6353.00    1.72086   1.76967   -1.000
 6354.00    1.71526   1.76171   -1.000
 6355.00    1.71370   1.75514   -1.000
 6356.00    1.70989   1.75008   -1.000
 6357.00    1.70749   1.74497   -1.000
 6358.00    1.69930   1.73939   -1.000
 6359.00    1.69373   1.73447   -1.000
 6360.00    1.69551   1.73072   -1.000
 6361.00    1.69752   1.72773   -1.000
 6362.00    1.70067   1.72597   -1.000
 6363.00    1.70364   1.72688   -1.000
 6364.00    1.70971   1.73122  105.528
 6365.00    1.71748   1.73814  104.823
 6366.00    1.72049   1.74597  104.209
 6367.00    1.72642   1.75266  103.606
 6368.00    1.73484   1.75631  102.923
 6369.00    1.73800   1.75676  102.437
 6370.00    1.73761   1.75657  102.360
 6371.00    1.74151   1.75889  102.251
 6372.00    1.74601   1.76433  101.849
 6373.00    1.74457   1.77052  101.765
 6374.00    1.74009   1.77435   -1.000
 6375.00    1.74096   1.77427   -1.000
 6376.00    1.73797   1.77070   -1.000
 6377.00    1.72491   1.76532   -1.000
 6378.00    1.71537   1.75996   -1.000
 6379.00    1.71570   1.75581   -1.000
 6380.00    1.71720   1.75322   -1.000
 6381.00    1.71876   1.75207   -1.000
 6382.00    1.72033   1.75221   -1.000
 6383.00    1.72429   1.75373  104.343
 6384.00    1.72457   1.75697   -1.000
 6385.00    1.71960   1.76166   -1.000
 6386.00    1.71764   1.76634   -1.000
 6387.00    1.71782   1.76936   -1.000
 6388.00    1.70988   1.77023   -1.000
 6389.00    1.69610   1.76880   -1.000
 6390.00    1.68607   1.76366   -1.000
 6391.00    1.67384   1.75362   -1.000
 6392.00    1.65764   1.74127   -1.000
 6393.00    1.64459   1.73323   -1.000
 6394.00    1.64502   1.73478   -1.000
 6395.00    1.65504   1.74438   -1.000
 6396.00    1.65703   1.75403   -1.000
 6397.00    1.64700   1.75556   -1.000
 6398.00    1.63247   1.74730   -1.000
 6399.00    1.61319   1.73586   -1.000
 6400.00    1.59568   1.73092   -1.000
 6401.00    1.60281   1.73719   -1.000
 6402.00    1.61857   1.75106   -1.000
 6403.00    1.62784   1.76469   -1.000
 6404.00    1.63122   1.77171   -1.000
 6405.00    1.62612   1.77003   -1.000
 6406.00    1.60834   1.76216   -1.000
 6407.00    1.58468   1.75361   -1.000
 6408.00    1.57407   1.74891   -1.000
 6409.00    1.56896   1.74794   -1.000
 6410.00    1.55932   1.74782   -1.000
 6411.00    1.55133   1.74787   -1.000
 6412.00    1.54675   1.74998   -1.000
 6413.00    1.53729   1.75461   -1.000
 6414.00    1.53064   1.75973   -1.000
 6415.00    1.52899   1.76353   -1.000
 6416.00    1.52478   1.76530   -1.000
 6417.00    1.51536   1.76387   -1.000
 6418.00    1.49725   1.75799   -1.000
 6419.00    1.47357   1.74900   -1.000
 6420.00    1.45668   1.74189   -1.000
 6421.00    1.44617   1.74245   -1.000
 6422.00    1.44055   1.75225   -1.000
 6423.00    1.44195   1.76693   -1.000
 6424.00    1.43884   1.78066   -1.000
 6425.00    1.43031   1.79054   -1.000
 6426.00    1.42184   1.79559   -1.000
 6427.00    1.41029   1.79433   -1.000
 6428.00    1.39493   1.78541   -1.000
