###################################################################
## OUTPUT of StarlightChains_v04.for    [Cid@UFSC - 01/Apr/2007] ##
###################################################################

## Some input info
NGC6624_a_1.cxt                          [arq_obs]
Base.BC03.N                              [arq_base]
NGC6624_a_1.msk                          [arq_masks]
StCv04.C99.config                        [arq_config]
   45                                    [N_base]
    0                                    [N_YAV_components = # of components with extra extinction!]
    0                                    [i_FitPowerLaw (1/0 = Yes/No)]
-9.99                                    [alpha_PowerLaw]
CCM                                      [red_law_option]
 1.458241                                [q_norm = A(l_norm)/A(V)]

## (Re)Sampling Parameters
 3359.00                                 [l_ini (A)]
 6428.00                                 [l_fin (A)]
    1.00                                 [dl    (A)]     (OBS: dl_cushion =    50.00 A)

## Normalization info
 4020.00                                 [l_norm (A) - for base]
 4010.00                                 [llow_norm (A) - window for f_obs]
 4060.00                                 [lupp_norm (A) - window for f_obs]
1.685692E-14                             [fobs_norm (in input units)]

## S/N
 4730.00                                 [llow_SN (A) - window for S/N]
 4780.00                                 [lupp_SN (A) - window for S/N]
  42.348                                 [S/N in S/N window]
  28.608                                 [S/N in norm. window]
  94.289                                 [S/N_err in S/N window]
  63.698                                 [S/N_err in norm. window]
  1.0000                                 [fscale_chi2]

## etc...
  2147483597                             [idum_orig]
  3069                                   [NOl_eff]
  1102                                   [Nl_eff]
  1967    NSIGMA                         [Ntot_cliped & clip_method]
  1546300                                [Nglobal_steps]
   7                                     [N_chains]
  10                                     [NEX0s_base = N_base in EX0s-fits]
 0   0   1      375   2.0   1.181E+03    [Clip-Bug, RC-Crash & Burn-In warning-flags, n_censored_weights, wei_nsig_threshold & wei_limit]
    21     20.790     20.782      0.008  [idt_all, wdt_TotTime, wdt_UsrTime & wdt_SysTime (sec)]

## Synthesis Results - Best model ##

 2.66617E+00                             [chi2/Nl_eff]
     1.38377                             [adev (%)]

   103.29562                             [sum-of-x (%)]
 3.34250E-14                             [Flux_tot (units of input spectrum!)]
 1.17121E-09                             [Mini_tot (???)]
 6.14946E-10                             [Mcor_tot (???)]

   8.40                                  [v0_min  (km/s)]
  83.08                                  [vd_min  (km/s)]
 0.4855                                  [AV_min  (mag)]
 0.0000                                  [YAV_min (mag)]

# j     x_j(%)      Mini_j(%)     Mcor_j(%)     age_j(yr)     Z_j      (L/M)_j    YAV?  Mstars   component_j        a/Fe...       SSP_chi2r SSP_adev(%)   SSP_AV   SSP_x(%)
  1      0.0000     0.0000E+00    0.0000E+00    1.000000E+06  0.00400  1.114E-02    0   1.0000   age020_m42            0.0000     1.5428E+03    31.6401   4.0000    70.6946
  2      0.0000     0.0000E+00    0.0000E+00    3.160000E+06  0.00400  4.073E-02    0   0.9999   age045_m42            0.0000     3.8221E+02    10.6164   3.9424    82.9746
  3      0.0000     0.0000E+00    0.0000E+00    5.010000E+06  0.00400  2.534E-02    0   0.9488   age055_m42            0.0000     6.0614E+02    17.9142   4.0000    78.0230
  4      2.8287     6.1488E-03    1.0378E-02    1.000000E+07  0.00400  1.271E-02    0   0.8862   age070_m42            0.0000     4.5669E+02    14.1243   3.6113    78.5245
  5      0.0000     0.0000E+00    0.0000E+00    2.512000E+07  0.00400  5.070E-03    0   0.8174   age090_m42            0.0000     4.5647E+02    13.6955   3.4715    80.4028
  6      0.0000     0.0000E+00    0.0000E+00    4.000000E+07  0.00400  3.505E-03    0   0.7851   age104_m42            0.0000     4.3539E+02    12.1486   3.1350    84.2345
  7      0.0000     0.0000E+00    0.0000E+00    1.015200E+08  0.00400  2.268E-03    0   0.7207   age116_m42            0.0000     1.1722E+03     9.1879   3.0613    95.7716
  8      0.0000     0.0000E+00    0.0000E+00    2.861200E+08  0.00400  1.079E-03    0   0.6613   age125_m42            0.0000     1.1545E+03     8.5488   2.5145   100.1295
  9      0.0000     0.0000E+00    0.0000E+00    6.405400E+08  0.00400  5.077E-04    0   0.6197   age132_m42            0.0000     1.1379E+03     8.7134   2.1300   104.9482
 10      0.0000     0.0000E+00    0.0000E+00    9.047900E+08  0.00400  3.535E-04    0   0.6024   age135_m42            0.0000     7.9182E+02     7.6141   1.8846   104.7907
 11      0.0000     0.0000E+00    0.0000E+00    1.434000E+09  0.00400  1.910E-04    0   0.5716   age139_m42            0.0000     3.7228E+02     5.2732   1.3324   105.7047
 12      9.2252     2.5960E+00    2.7011E+00    2.500000E+09  0.00400  9.818E-05    0   0.5463   age150_m42            0.0000     8.7231E+01     3.0420   1.0524   101.9443
 13     18.5546     1.0865E+01    1.0819E+01    5.000000E+09  0.00400  4.718E-05    0   0.5228   age161_m42            0.0000     2.6744E+01     2.5525   0.8943    98.5494
 14     18.0450     2.2610E+01    2.1445E+01    1.100000E+10  0.00400  2.205E-05    0   0.4980   age185_m42            0.0000     9.8385E+00     2.1375   0.6047    98.1505
 15      0.0000     0.0000E+00    0.0000E+00    1.300000E+10  0.00400  1.883E-05    0   0.4927   age193_m42            0.0000     1.2541E+01     2.2367   0.5844    98.1807
 16      0.0000     0.0000E+00    0.0000E+00    1.000000E+06  0.02000  1.989E-02    0   1.0000   age020_m62            0.0000     1.4609E+03    30.6222   4.0000    71.6630
 17      0.0000     0.0000E+00    0.0000E+00    3.160000E+06  0.02000  3.772E-02    0   0.9858   age045_m62            0.0000     1.2100E+03    27.7902   4.0000    73.4625
 18      0.0000     0.0000E+00    0.0000E+00    5.010000E+06  0.02000  3.227E-02    0   0.9342   age055_m62            0.0000     5.3682E+02    14.7100   4.0000    80.1304
 19      0.0000     0.0000E+00    0.0000E+00    1.000000E+07  0.02000  1.011E-02    0   0.8751   age070_m62            0.0000     5.4531E+02    17.7436   3.6576    74.0918
 20      0.0000     0.0000E+00    0.0000E+00    2.512000E+07  0.02000  4.206E-03    0   0.8099   age090_m62            0.0000     5.2398E+02    16.0876   3.5765    75.6807
 21      0.0000     0.0000E+00    0.0000E+00    4.000000E+07  0.02000  3.373E-03    0   0.7799   age104_m62            0.0000     5.8170E+02    12.2595   3.3496    85.1848
 22      0.0000     0.0000E+00    0.0000E+00    1.015200E+08  0.02000  1.878E-03    0   0.7221   age116_m62            0.0000     1.1380E+03     9.9304   3.1116    94.8321
 23      0.0000     0.0000E+00    0.0000E+00    2.861200E+08  0.02000  8.869E-04    0   0.6700   age125_m62            0.0000     1.6274E+03     9.6327   2.4908   106.3496
 24      0.0000     0.0000E+00    0.0000E+00    6.405400E+08  0.02000  3.657E-04    0   0.6322   age132_m62            0.0000     9.0667E+02     7.9602   1.7110   115.3358
 25      0.0000     0.0000E+00    0.0000E+00    9.047900E+08  0.02000  2.312E-04    0   0.6152   age135_m62            0.0000     4.8796E+02     6.1193   1.3443   114.5872
 26      0.0000     0.0000E+00    0.0000E+00    1.434000E+09  0.02000  1.168E-04    0   0.5865   age139_m62            0.0000     1.1687E+02     3.3199   0.9601   107.8406
 27      2.4810     1.2452E+00    1.3304E+00    2.500000E+09  0.02000  5.505E-05    0   0.5610   age150_m62            0.0000     1.6609E+01     1.9049   0.5705   106.2844
 28     41.0638     4.3703E+01    4.4556E+01    5.000000E+09  0.02000  2.596E-05    0   0.5353   age161_m62            0.0000     2.3904E+01     2.8915   0.1853   109.4065
 29      0.0000     0.0000E+00    0.0000E+00    1.100000E+10  0.02000  1.169E-05    0   0.5103   age185_m62            0.0000     1.0680E+02     4.8237  -0.2448   114.6160
 30      0.0000     0.0000E+00    0.0000E+00    1.300000E+10  0.02000  9.691E-06    0   0.5047   age193_m62            0.0000     1.3121E+02     5.1375  -0.3021   115.5142
 31      0.0000     0.0000E+00    0.0000E+00    1.000000E+06  0.05000  2.651E-02    0   0.9998   age020_m72            0.0000     1.4510E+03    30.4138   4.0000    72.5952
 32      0.0000     0.0000E+00    0.0000E+00    3.160000E+06  0.05000  4.817E-02    0   0.9577   age045_m72            0.0000     9.3391E+02    23.8167   4.0000    76.7239
 33      0.0000     0.0000E+00    0.0000E+00    5.010000E+06  0.05000  3.101E-02    0   0.9147   age055_m72            0.0000     5.5139E+02    16.1442   4.0000    77.9621
 34      0.0000     0.0000E+00    0.0000E+00    1.000000E+07  0.05000  8.954E-03    0   0.8524   age070_m72            0.0000     7.8658E+02    20.6559   4.0000    78.2386
 35      0.0000     0.0000E+00    0.0000E+00    2.512000E+07  0.05000  4.207E-03    0   0.7902   age090_m72            0.0000     5.0166E+02    11.9041   4.0000    81.8842
 36      0.0000     0.0000E+00    0.0000E+00    4.000000E+07  0.05000  3.198E-03    0   0.7618   age104_m72            0.0000     8.4586E+02     9.7286   3.4952    90.5627
 37      0.0000     0.0000E+00    0.0000E+00    1.015200E+08  0.05000  1.716E-03    0   0.7092   age116_m72            0.0000     1.2335E+03     9.5743   3.1858    95.6472
 38      0.0000     0.0000E+00    0.0000E+00    2.861200E+08  0.05000  7.047E-04    0   0.6618   age125_m72            0.0000     1.4651E+03     8.7111   2.2528   108.7634
 39      0.0000     0.0000E+00    0.0000E+00    6.405400E+08  0.05000  2.633E-04    0   0.6253   age132_m72            0.0000     6.2643E+02     6.4338   1.3214   116.0539
 40      0.0000     0.0000E+00    0.0000E+00    9.047900E+08  0.05000  1.484E-04    0   0.6088   age135_m72            0.0000     1.6979E+02     4.1262   0.8435   111.3943
 41      0.0000     0.0000E+00    0.0000E+00    1.434000E+09  0.05000  7.827E-05    0   0.5847   age139_m72            0.0000     2.4498E+01     2.8676   0.4440   108.9495
 42      3.0059     2.2093E+00    2.3492E+00    2.500000E+09  0.05000  3.759E-05    0   0.5583   age150_m72            0.0000     3.2400E+01     3.4382   0.0940   109.8543
 43      7.2728     1.2980E+01    1.3152E+01    5.000000E+09  0.05000  1.548E-05    0   0.5320   age161_m72            0.0000     9.9871E+01     5.0594  -0.3750   112.6203
 44      0.4858     2.0546E+00    1.9840E+00    1.100000E+10  0.05000  6.532E-06    0   0.5070   age185_m72            0.0000     1.9421E+02     7.4789  -0.8421   117.2946
 45      0.3328     1.7297E+00    1.6531E+00    1.300000E+10  0.05000  5.316E-06    0   0.5018   age193_m72            0.0000     2.3780E+02     8.5286  -1.0000   119.5498


## Synthesis Results - Average & Chains ##

# j      x_j: min, <> & last-chain-values for 1 ...  7 chains
  1      0.0000      0.0356      0.0000      0.0000      0.0000      0.1200      0.0545      0.0000      0.0094
  2      0.0000      0.2847      0.2696      0.4293      0.4891      0.3734      0.2436      0.3432      0.4201
  3      0.0000      0.0529      0.1762      0.0298      0.0050      0.0000      0.0000      0.0000      0.0000
  4      2.8287      2.0047      2.1607      2.0132      1.8863      2.0698      1.9145      2.0148      1.9613
  5      0.0000      0.0379      0.0000      0.0000      0.0000      0.1358      0.1271      0.0000      0.0000
  6      0.0000      0.0194      0.0000      0.0000      0.0383      0.0108      0.0000      0.0019      0.0000
  7      0.0000      0.0106      0.0407      0.0000      0.0000      0.0137      0.0000      0.0000      0.0000
  8      0.0000      0.0041      0.0000      0.0000      0.0000      0.0000      0.0000      0.0000      0.0000
  9      0.0000      0.0096      0.0000      0.0000      0.0000      0.0000      0.0000      0.0187      0.0000
 10      0.0000      0.0181      0.0000      0.0000      0.0000      0.0000      0.0145      0.0000      0.0000
 11      0.0000      0.0365      0.0398      0.0000      0.0000      0.0000      0.0000      0.0000      0.0000
 12      9.2252     11.7713     11.4564     11.8689     11.9553     12.0053     12.2665     11.5367     11.0968
 13     18.5546     10.9921     11.5048     11.4651     11.2688     10.9710     11.8119     11.7430     12.1516
 14     18.0450     20.8904     20.8343     20.8066     21.1054     20.5935     20.3051     20.9749     20.5101
 15      0.0000      0.3834      0.1157      0.2949      0.4294      0.0000      0.1907      0.0000      0.3480
 16      0.0000      0.0136      0.0000      0.0000      0.0000      0.0000      0.0212      0.0000      0.0000
 17      0.0000      0.0513      0.0913      0.0259      0.0287      0.0471      0.0000      0.0000      0.0000
 18      0.0000      0.2320      0.2120      0.3474      0.3068      0.2675      0.2735      0.3095      0.4848
 19      0.0000      0.0444      0.0000      0.0000      0.0065      0.0000      0.0859      0.0757      0.1534
 20      0.0000      0.0125      0.0000      0.0000      0.0000      0.0000      0.0084      0.0000      0.0000
 21      0.0000      0.0088      0.0000      0.0027      0.0000      0.0000      0.0000      0.0000      0.0000
 22      0.0000      0.0048      0.0000      0.0000      0.0000      0.0000      0.0000      0.0000      0.0000
 23      0.0000      0.0024      0.0000      0.0000      0.0000      0.0000      0.0000      0.0000      0.0000
 24      0.0000      0.0064      0.0000      0.0000      0.0000      0.0000      0.0000      0.0000      0.0000
 25      0.0000      0.0270      0.0000      0.0000      0.0000      0.0000      0.0000      0.0000      0.0000
 26      0.0000      0.0678      0.2678      0.0000      0.0063      0.0687      0.0000      0.0000      0.0000
 27      2.4810      0.7639      0.8526      1.3160      1.0894      0.7154      0.7943      0.7838      1.4407
 28     41.0638     50.5196     47.6141     48.4345     48.9366     48.5409     49.4555     49.0681     48.6924
 29      0.0000      0.0739      0.0000      0.0000      0.0000      0.0000      0.0000      0.0000      0.0679
 30      0.0000      0.0527      0.0000      0.0000      0.0000      0.0000      0.0090      0.2896      0.0000
 31      0.0000      0.0117      0.0000      0.0000      0.0000      0.0107      0.0000      0.0000      0.0054
 32      0.0000      0.0594      0.1389      0.1275      0.1845      0.0000      0.1568      0.1802      0.0704
 33      0.0000      0.1058      0.0206      0.0583      0.1253      0.1019      0.0559      0.1261      0.0000
 34      0.0000      0.0082      0.0000      0.0000      0.0000      0.0000      0.0000      0.0000      0.0000
 35      0.0000      0.0084      0.0065      0.0000      0.0000      0.0000      0.0000      0.0000      0.0000
 36      0.0000      0.0073      0.0000      0.0000      0.0000      0.0000      0.0000      0.0000      0.0000
 37      0.0000      0.0075      0.0034      0.0000      0.0000      0.0000      0.0000      0.0000      0.0000
 38      0.0000      0.0041      0.0000      0.0000      0.0000      0.0000      0.0000      0.0000      0.0000
 39      0.0000      0.0212      0.0000      0.0000      0.0000      0.0000      0.0000      0.0000      0.0000
 40      0.0000      0.0643      0.0000      0.0181      0.0000      0.0000      0.0000      0.0000      0.0000
 41      0.0000      0.7210      1.1588      0.6799      0.7006      1.8315      1.0177      1.2864      0.9383
 42      3.0059      0.8862      2.4756      1.0158      1.0289      0.8374      0.3033      1.1876      1.2488
 43      7.2728      1.6672      2.8340      2.8293      2.0522      3.2666      2.2452      1.8926      2.4023
 44      0.4858      0.7274      0.6084      0.7648      1.0716      0.7720      0.8956      0.7732      0.6157
 45      0.3328      0.6682      0.4613      0.8490      0.5922      0.6586      1.1585      0.7645      0.7156

# j      m_j: min, <> & last-chain-values for 1 ...  7 chains
  1  0.0000E+00  1.6617E-04  0.0000E+00  0.0000E+00  0.0000E+00  5.6006E-04  2.4979E-04  0.0000E+00  4.4152E-05
  2  0.0000E+00  3.6379E-04  3.5009E-04  5.4321E-04  6.2223E-04  4.7681E-04  3.0518E-04  4.3713E-04  5.3888E-04
  3  0.0000E+00  1.0307E-04  3.4904E-04  5.7482E-05  9.6517E-06  0.0000E+00  0.0000E+00  0.0000E+00  0.0000E+00
  4  1.0378E-02  7.2759E-03  7.9688E-03  7.2355E-03  6.8152E-03  7.5060E-03  6.8125E-03  7.2880E-03  7.1447E-03
  5  0.0000E+00  3.1832E-04  0.0000E+00  0.0000E+00  0.0000E+00  1.1387E-03  1.0455E-03  0.0000E+00  0.0000E+00
  6  0.0000E+00  2.2628E-04  0.0000E+00  0.0000E+00  4.4504E-04  1.2615E-04  0.0000E+00  2.1773E-05  0.0000E+00
  7  0.0000E+00  1.7551E-04  6.8341E-04  0.0000E+00  0.0000E+00  2.2718E-04  0.0000E+00  0.0000E+00  0.0000E+00
  8  0.0000E+00  1.3020E-04  0.0000E+00  0.0000E+00  0.0000E+00  0.0000E+00  0.0000E+00  0.0000E+00  0.0000E+00
  9  0.0000E+00  6.0958E-04  0.0000E+00  0.0000E+00  0.0000E+00  0.0000E+00  0.0000E+00  1.1817E-03  0.0000E+00
 10  0.0000E+00  1.6036E-03  0.0000E+00  0.0000E+00  0.0000E+00  0.0000E+00  1.2635E-03  0.0000E+00  0.0000E+00
 11  0.0000E+00  5.6911E-03  6.2975E-03  0.0000E+00  0.0000E+00  0.0000E+00  0.0000E+00  0.0000E+00  0.0000E+00
 12  2.7011E+00  3.4094E+00  3.3719E+00  3.4042E+00  3.4471E+00  3.4743E+00  3.4834E+00  3.3303E+00  3.2259E+00
 13  1.0819E+01  6.3403E+00  6.7432E+00  6.5487E+00  6.4705E+00  6.3228E+00  6.6799E+00  6.7507E+00  7.0349E+00
 14  2.1445E+01  2.4559E+01  2.4889E+01  2.4223E+01  2.4700E+01  2.4190E+01  2.3404E+01  2.4576E+01  2.4201E+01
 15  0.0000E+00  5.2219E-01  1.6015E-01  3.9773E-01  5.8228E-01  0.0000E+00  2.5469E-01  0.0000E+00  4.7569E-01
 16  0.0000E+00  3.5583E-05  0.0000E+00  0.0000E+00  0.0000E+00  0.0000E+00  5.4413E-05  0.0000E+00  0.0000E+00
 17  0.0000E+00  6.9732E-05  1.2620E-04  3.4922E-05  3.8807E-05  6.4089E-05  0.0000E+00  0.0000E+00  0.0000E+00
 18  0.0000E+00  3.4958E-04  3.2462E-04  5.1833E-04  4.6030E-04  4.0276E-04  4.0409E-04  4.6490E-04  7.3321E-04
 19  0.0000E+00  1.9987E-04  0.0000E+00  0.0000E+00  2.9268E-05  0.0000E+00  3.7932E-04  3.3980E-04  6.9354E-04
 20  0.0000E+00  1.2548E-04  0.0000E+00  0.0000E+00  0.0000E+00  0.0000E+00  8.2823E-05  0.0000E+00  0.0000E+00
 21  0.0000E+00  1.0587E-04  0.0000E+00  3.2676E-05  0.0000E+00  0.0000E+00  0.0000E+00  0.0000E+00  0.0000E+00
 22  0.0000E+00  9.6754E-05  0.0000E+00  0.0000E+00  0.0000E+00  0.0000E+00  0.0000E+00  0.0000E+00  0.0000E+00
 23  0.0000E+00  9.4146E-05  0.0000E+00  0.0000E+00  0.0000E+00  0.0000E+00  0.0000E+00  0.0000E+00  0.0000E+00
 24  0.0000E+00  5.7285E-04  0.0000E+00  0.0000E+00  0.0000E+00  0.0000E+00  0.0000E+00  0.0000E+00  0.0000E+00
 25  0.0000E+00  3.7462E-03  0.0000E+00  0.0000E+00  0.0000E+00  0.0000E+00  0.0000E+00  0.0000E+00  0.0000E+00
 26  0.0000E+00  1.7731E-02  7.1132E-02  0.0000E+00  1.6462E-03  1.7948E-02  0.0000E+00  0.0000E+00  0.0000E+00
 27  1.3304E+00  4.0521E-01  4.5957E-01  6.9129E-01  5.7528E-01  3.7918E-01  4.1310E-01  4.1436E-01  7.6707E-01
 28  4.4556E+01  5.4225E+01  5.1933E+01  5.1481E+01  5.2289E+01  5.2058E+01  5.2045E+01  5.2491E+01  5.2457E+01
 29  0.0000E+00  1.6800E-01  0.0000E+00  0.0000E+00  0.0000E+00  0.0000E+00  0.0000E+00  0.0000E+00  1.5476E-01
 30  0.0000E+00  1.4292E-01  0.0000E+00  0.0000E+00  0.0000E+00  0.0000E+00  2.3949E-02  7.8233E-01  0.0000E+00
 31  0.0000E+00  2.2991E-05  0.0000E+00  0.0000E+00  0.0000E+00  2.0909E-05  0.0000E+00  0.0000E+00  1.0665E-05
 32  0.0000E+00  6.1430E-05  1.4612E-04  1.3068E-04  1.9013E-04  0.0000E+00  1.5911E-04  1.8590E-04  7.3112E-05
 33  0.0000E+00  1.6248E-04  3.2067E-05  8.8584E-05  1.9156E-04  1.5630E-04  8.4217E-05  1.9290E-04  0.0000E+00
 34  0.0000E+00  4.0620E-05  0.0000E+00  0.0000E+00  0.0000E+00  0.0000E+00  0.0000E+00  0.0000E+00  0.0000E+00
 35  0.0000E+00  8.2413E-05  6.4630E-05  0.0000E+00  0.0000E+00  0.0000E+00  0.0000E+00  0.0000E+00  0.0000E+00
 36  0.0000E+00  9.0406E-05  0.0000E+00  0.0000E+00  0.0000E+00  0.0000E+00  0.0000E+00  0.0000E+00  0.0000E+00
 37  0.0000E+00  1.6193E-04  7.4673E-05  0.0000E+00  0.0000E+00  0.0000E+00  0.0000E+00  0.0000E+00  0.0000E+00
 38  0.0000E+00  1.9871E-04  0.0000E+00  0.0000E+00  0.0000E+00  0.0000E+00  0.0000E+00  0.0000E+00  0.0000E+00
 39  0.0000E+00  2.6202E-03  0.0000E+00  0.0000E+00  0.0000E+00  0.0000E+00  0.0000E+00  0.0000E+00  0.0000E+00
 40  0.0000E+00  1.3730E-02  0.0000E+00  3.8328E-03  0.0000E+00  0.0000E+00  0.0000E+00  0.0000E+00  0.0000E+00
 41  0.0000E+00  2.8036E-01  4.5790E-01  2.6180E-01  2.7121E-01  7.1159E-01  3.8798E-01  4.9856E-01  3.6622E-01
 42  2.3492E+00  6.8510E-01  1.9448E+00  7.7769E-01  7.9187E-01  6.4685E-01  2.2988E-01  9.1508E-01  9.6900E-01
 43  1.3152E+01  2.9826E+00  5.1517E+00  5.0120E+00  3.6547E+00  5.8389E+00  3.9380E+00  3.3743E+00  4.3133E+00
 44  1.9840E+00  2.9391E+00  2.4978E+00  3.0600E+00  4.3102E+00  3.1164E+00  3.5477E+00  3.1135E+00  2.4969E+00
 45  1.6531E+00  3.2832E+00  2.3032E+00  4.1308E+00  2.8968E+00  3.2332E+00  5.5811E+00  3.7440E+00  3.5289E+00

# AV, chi2 & Mass for <> & i_chain = 1 ...  7 solutions
AV       0.4855      0.5011      0.5014      0.4950      0.5016      0.4945      0.4929      0.4995      0.5007
chi2 2.6662E+00  2.7418E+00  2.7190E+00  2.7131E+00  2.7234E+00  2.7185E+00  2.7229E+00  2.7262E+00  2.7192E+00
Mass 6.1495E-10  6.3477E-10  6.2489E-10  6.3577E-10  6.3809E-10  6.2971E-10  6.4035E-10  6.3555E-10  6.3212E-10
   8.29                                  [v0_min (km/s) before EX0s...]
  82.83                                  [vd_min (km/s) before EX0s...]


## Synthetic spectrum (Best Model) ##l_obs f_obs f_syn wei
 3070    [Nl_obs]
 3359.00    0.05591   0.39717   -1.000
 3360.00    0.20115   0.36304   -1.000
 3361.00    0.19641   0.35896   -1.000
 3362.00    0.21342   0.38680   -1.000
 3363.00    0.23314   0.42989   -1.000
 3364.00    0.24673   0.46395   -1.000
 3365.00    0.25663   0.47215   -1.000
 3366.00    0.25514   0.45444   -1.000
 3367.00    0.25327   0.42435   -1.000
 3368.00    0.25142   0.39656   -1.000
 3369.00    0.24957   0.37849   -1.000
 3370.00    0.23791   0.36952   -1.000
 3371.00    0.22961   0.36735   -1.000
 3372.00    0.23964   0.37444   -1.000
 3373.00    0.24594   0.39519   -1.000
 3374.00    0.25362   0.42851   -1.000
 3375.00    0.27821   0.46504   -1.000
 3376.00    0.30379   0.48879   -1.000
 3377.00    0.31665   0.48713   -1.000
 3378.00    0.31172   0.46251   -1.000
 3379.00    0.29381   0.43205   -1.000
 3380.00    0.28970   0.41463   -1.000
 3381.00    0.29620   0.41797   -1.000
 3382.00    0.30524   0.43610   -1.000
 3383.00    0.31109   0.45731   -1.000
 3384.00    0.31134   0.47495   -1.000
 3385.00    0.31705   0.48878   -1.000
 3386.00    0.32403   0.49744   -1.000
 3387.00    0.32744   0.49912   -1.000
 3388.00    0.33020   0.49619   -1.000
 3389.00    0.33743   0.49095   -1.000
 3390.00    0.34924   0.48157   -1.000
 3391.00    0.34791   0.46658   -1.000
 3392.00    0.33951   0.45062   -1.000
 3393.00    0.33917   0.44418   -1.000
 3394.00    0.34546   0.45453   -1.000
 3395.00    0.36156   0.47866   -1.000
 3396.00    0.38294   0.50714   -1.000
 3397.00    0.39674   0.53255   -1.000
 3398.00    0.41309   0.55030   -1.000
 3399.00    0.43459   0.55704   -1.000
 3400.00    0.44186   0.55214   -1.000
 3401.00    0.43634   0.53816   -1.000
 3402.00    0.42944   0.51930   -1.000
 3403.00    0.41555   0.50130   -1.000
 3404.00    0.41362   0.48870   -1.000
 3405.00    0.40571   0.48061   -1.000
 3406.00    0.39484   0.47327   -1.000
 3407.00    0.38745   0.46648   -1.000
 3408.00    0.38592   0.46423   -1.000
 3409.00    0.38538   0.46922   -1.000
 3410.00    0.38730   0.47734   -1.000
 3411.00    0.38905   0.47890   -1.000
 3412.00    0.38591   0.46847   -1.000
 3413.00    0.38365   0.45170   -1.000
 3414.00    0.37592   0.44076   -1.000
 3415.00    0.37276   0.44413   -1.000
 3416.00    0.38496   0.46163   -1.000
 3417.00    0.39816   0.48706   -1.000
 3418.00    0.40963   0.51306   -1.000
 3419.00    0.43495   0.53327   -1.000
 3420.00    0.44918   0.54152   -1.000
 3421.00    0.45058   0.53532   -1.000
 3422.00    0.44229   0.52024   -1.000
 3423.00    0.43121   0.50645   -1.000
 3424.00    0.42730   0.50029   -1.000
 3425.00    0.43051   0.50149   -1.000
 3426.00    0.44323   0.50761   -1.000
 3427.00    0.45009   0.51993   -1.000
 3428.00    0.45355   0.53983   -1.000
 3429.00    0.46672   0.55923   -1.000
 3430.00    0.48626   0.56419   -1.000
 3431.00    0.47633   0.54967   -1.000
 3432.00    0.46164   0.52621   -1.000
 3433.00    0.44765   0.51063   -1.000
 3434.00    0.45425   0.50999   -1.000
 3435.00    0.46623   0.51665   -1.000
 3436.00    0.45938   0.51767   -1.000
 3437.00    0.44400   0.50528   -1.000
 3438.00    0.42306   0.47846   -1.000
 3439.00    0.40270   0.44115   -1.000
 3440.00    0.38796   0.40217  206.620
 3441.00    0.37133   0.37367  212.611
 3442.00    0.36568   0.36485  212.535
 3443.00    0.36935   0.37484  209.416
 3444.00    0.37834   0.39530   -1.000
 3445.00    0.39760   0.41895   -1.000
 3446.00    0.42178   0.44429   -1.000
 3447.00    0.43701   0.47214   -1.000
 3448.00    0.45277   0.50058   -1.000
 3449.00    0.47057   0.52232   -1.000
 3450.00    0.48471   0.52833   -1.000
 3451.00    0.48416   0.51734   -1.000
 3452.00    0.47103   0.50036   -1.000
 3453.00    0.47139   0.49201   -1.000
 3454.00    0.47193   0.49643   -1.000
 3455.00    0.48331   0.50405   -1.000
 3456.00    0.48447   0.50230   -1.000
 3457.00    0.47981   0.48686   -1.000
 3458.00    0.46583   0.46435  479.640
 3459.00    0.45690   0.44469  171.530
 3460.00    0.44341   0.43381  172.877
 3461.00    0.44192   0.43640  230.072
 3462.00    0.45206   0.45340 1180.796
 3463.00    0.46764   0.47512   -1.000
 3464.00    0.48838   0.48845 1180.796
 3465.00    0.49669   0.49072   -1.000
 3466.00    0.49650   0.49037   -1.000
 3467.00    0.49578   0.49655 1180.796
 3468.00    0.50426   0.50986   -1.000
 3469.00    0.51708   0.52339   -1.000
 3470.00    0.52754   0.52924 1180.796
 3471.00    0.52844   0.52266   -1.000
 3472.00    0.51458   0.50293   -1.000
 3473.00    0.49182   0.47346   -1.000
 3474.00    0.45937   0.44230   -1.000
 3475.00    0.43526   0.42130  174.104
 3476.00    0.42518   0.42066  177.687
 3477.00    0.43551   0.43988  233.758
 3478.00    0.46215   0.46757   -1.000
 3479.00    0.48838   0.49057 1180.796
 3480.00    0.51464   0.50163   -1.000
 3481.00    0.52135   0.50039   -1.000
 3482.00    0.51714   0.49147   -1.000
 3483.00    0.51396   0.48259   -1.000
 3484.00    0.51171   0.48252   -1.000
 3485.00    0.52364   0.49538   -1.000
 3486.00    0.53679   0.51359   -1.000
 3487.00    0.55210   0.52095   -1.000
 3488.00    0.54564   0.50788   -1.000
 3489.00    0.51361   0.48109   -1.000
 3490.00    0.47852   0.45716   -1.000
 3491.00    0.46037   0.44818   -1.000
 3492.00    0.46308   0.45317   -1.000
 3493.00    0.48278   0.46221   -1.000
 3494.00    0.49366   0.46541   -1.000
 3495.00    0.48860   0.46040   -1.000
 3496.00    0.48157   0.45553   -1.000
 3497.00    0.48595   0.46392   -1.000
 3498.00    0.50000   0.48899   -1.000
 3499.00    0.52700   0.51835   -1.000
 3500.00    0.54896   0.53872   -1.000
 3501.00    0.55745   0.54971   -1.000
 3502.00    0.57122   0.55677   -1.000
 3503.00    0.58073   0.56007   -1.000
 3504.00    0.57797   0.55582   -1.000
 3505.00    0.56439   0.54546   -1.000
 3506.00    0.55924   0.53576   -1.000
 3507.00    0.56055   0.53036   -1.000
 3508.00    0.55934   0.52587   -1.000
 3509.00    0.55134   0.51716   -1.000
 3510.00    0.53415   0.50411   -1.000
 3511.00    0.52284   0.48982   -1.000
 3512.00    0.50890   0.47616   -1.000
 3513.00    0.49365   0.46595   -1.000
 3514.00    0.48963   0.46680   -1.000
 3515.00    0.49849   0.48531   -1.000
 3516.00    0.52468   0.51726   -1.000
 3517.00    0.55987   0.54732   -1.000
 3518.00    0.57538   0.55983   -1.000
 3519.00    0.56849   0.54980   -1.000
 3520.00    0.53779   0.52373   -1.000
 3521.00    0.50744   0.49324   -1.000
 3522.00    0.49129   0.46587   -1.000
 3523.00    0.46587   0.44200   -1.000
 3524.00    0.45502   0.42344   -1.000
 3525.00    0.44653   0.41748   -1.000
 3526.00    0.44826   0.43085   -1.000
 3527.00    0.46814   0.46165   -1.000
 3528.00    0.49915   0.49795 1180.796
 3529.00    0.52888   0.52512   -1.000
 3530.00    0.54939   0.53587   -1.000
 3531.00    0.54576   0.53470   -1.000
 3532.00    0.53626   0.53301   -1.000
 3533.00    0.54116   0.53861   -1.000
 3534.00    0.55381   0.54981   -1.000
 3535.00    0.56375   0.56004   -1.000
 3536.00    0.55955   0.56698   -1.000
 3537.00    0.56762   0.57420   -1.000
 3538.00    0.56971   0.58352   -1.000
 3539.00    0.57617   0.58975   -1.000
 3540.00    0.57160   0.58724   -1.000
 3541.00    0.56502   0.57969   -1.000
 3542.00    0.56149   0.57677   -1.000
 3543.00    0.56502   0.58204   -1.000
 3544.00    0.56367   0.59033   -1.000
 3545.00    0.55951   0.59392   -1.000
 3546.00    0.55937   0.59049   -1.000
 3547.00    0.55618   0.58476   -1.000
 3548.00    0.55013   0.58215   -1.000
 3549.00    0.55202   0.58306   -1.000
 3550.00    0.55227   0.58266   -1.000
 3551.00    0.54529   0.57586   -1.000
 3552.00    0.53338   0.56261   -1.000
 3553.00    0.52534   0.54928   -1.000
 3554.00    0.51642   0.54312   -1.000
 3555.00    0.51207   0.54537   -1.000
 3556.00    0.51845   0.55031   -1.000
 3557.00    0.52753   0.55109   -1.000
 3558.00    0.52099   0.54730   -1.000
 3559.00    0.51125   0.54546   -1.000
 3560.00    0.51063   0.55169   -1.000
 3561.00    0.51767   0.56395   -1.000
 3562.00    0.52692   0.57023   -1.000
 3563.00    0.52941   0.55542   -1.000
 3564.00    0.50862   0.51700  469.680
 3565.00    0.47073   0.47412  174.553
 3566.00    0.44157   0.44894  179.021
 3567.00    0.43444   0.44232  177.195
 3568.00    0.43731   0.43895  178.244
 3569.00    0.42775   0.42946  183.596
 3570.00    0.41796   0.42105  184.202
 3571.00    0.43159   0.42514  177.596
 3572.00    0.44938   0.44104  232.454
 3573.00    0.46556   0.45930   -1.000
 3574.00    0.47988   0.47332   -1.000
 3575.00    0.48491   0.48169   -1.000
 3576.00    0.48832   0.48386   -1.000
 3577.00    0.48000   0.47710   -1.000
 3578.00    0.47053   0.45825   -1.000
 3579.00    0.44811   0.42870   -1.000
 3580.00    0.41673   0.39822   -1.000
 3581.00    0.39224   0.37882  203.513
 3582.00    0.38178   0.37454  204.609
 3583.00    0.38884   0.37766  206.709
 3584.00    0.38658   0.37641  212.449
 3585.00    0.37399   0.36888  218.315
 3586.00    0.36364   0.36448  217.033
 3587.00    0.37291   0.37237  205.751
 3588.00    0.39223   0.39509  195.083
 3589.00    0.41304   0.42923  183.122
 3590.00    0.44669   0.46667   -1.000
 3591.00    0.48567   0.49719   -1.000
 3592.00    0.51221   0.51472 1180.796
 3593.00    0.51778   0.52325   -1.000
 3594.00    0.52058   0.53326   -1.000
 3595.00    0.53550   0.55067   -1.000
 3596.00    0.55471   0.57163   -1.000
 3597.00    0.57352   0.58983   -1.000
 3598.00    0.58906   0.60332   -1.000
 3599.00    0.60414   0.61014   -1.000
 3600.00    0.60828   0.60446   -1.000
 3601.00    0.59321   0.58245   -1.000
 3602.00    0.56988   0.54966   -1.000
 3603.00    0.53630   0.51864   -1.000
 3604.00    0.51187   0.49962   -1.000
 3605.00    0.50717   0.49295   -1.000
 3606.00    0.51182   0.48958   -1.000
 3607.00    0.50883   0.48060   -1.000
 3608.00    0.50023   0.46698   -1.000
 3609.00    0.47760   0.45984   -1.000
 3610.00    0.47238   0.46814   -1.000
 3611.00    0.48993   0.48724   -1.000
 3612.00    0.51192   0.50656   -1.000
 3613.00    0.52584   0.52326 1180.796
 3614.00    0.53188   0.53900   -1.000
 3615.00    0.54852   0.54851 1180.796
 3616.00    0.55435   0.53857   -1.000
 3617.00    0.52821   0.50484   -1.000
 3618.00    0.47920   0.46692   -1.000
 3619.00    0.45743   0.45282  230.626
 3620.00    0.47636   0.47120   -1.000
 3621.00    0.52039   0.50811   -1.000
 3622.00    0.55936   0.54454   -1.000
 3623.00    0.57645   0.57307   -1.000
 3624.00    0.57599   0.59914   -1.000
 3625.00    0.58396   0.62912   -1.000
 3626.00    0.62628   0.65869   -1.000
 3627.00    0.64898   0.67411   -1.000
 3628.00    0.63493   0.66122   -1.000
 3629.00    0.59841   0.61663   -1.000
 3630.00    0.54712   0.55612   -1.000
 3631.00    0.49982   0.50749   -1.000
 3632.00    0.47941   0.48935   -1.000
 3633.00    0.49408   0.49927   -1.000
 3634.00    0.51002   0.52157   -1.000
 3635.00    0.52736   0.54334   -1.000
 3636.00    0.55121   0.56251   -1.000
 3637.00    0.57676   0.58436   -1.000
 3638.00    0.59569   0.61055   -1.000
 3639.00    0.61639   0.63395   -1.000
 3640.00    0.62992   0.64411   -1.000
 3641.00    0.61856   0.63552   -1.000
 3642.00    0.59720   0.61233   -1.000
 3643.00    0.57236   0.58457   -1.000
 3644.00    0.54781   0.56027   -1.000
 3645.00    0.53765   0.54137   -1.000
 3646.00    0.53248   0.52626   -1.000
 3647.00    0.51675   0.51568 1180.796
 3648.00    0.51464   0.51431 1180.796
 3649.00    0.52523   0.52613 1180.796
 3650.00    0.54797   0.55106   -1.000
 3651.00    0.57467   0.58430   -1.000
 3652.00    0.60112   0.61713   -1.000
 3653.00    0.61983   0.64154   -1.000
 3654.00    0.62934   0.65643   -1.000
 3655.00    0.63800   0.66744   -1.000
 3656.00    0.64586   0.68048   -1.000
 3657.00    0.65743   0.69541   -1.000
 3658.00    0.67216   0.70720   -1.000
 3659.00    0.67567   0.71231   -1.000
 3660.00    0.67691   0.70927   -1.000
 3661.00    0.67695   0.69791   -1.000
 3662.00    0.65743   0.68171   -1.000
 3663.00    0.64419   0.66745   -1.000
 3664.00    0.63702   0.66018   -1.000
 3665.00    0.63542   0.65898   -1.000
 3666.00    0.63857   0.65738   -1.000
 3667.00    0.63536   0.64921   -1.000
 3668.00    0.62257   0.63580   -1.000
 3669.00    0.60943   0.62735   -1.000
 3670.00    0.61026   0.63318   -1.000
 3671.00    0.62934   0.65110   -1.000
 3672.00    0.65199   0.66977   -1.000
 3673.00    0.66271   0.67947   -1.000
 3674.00    0.65721   0.67729   -1.000
 3675.00    0.65247   0.66397   -1.000
 3676.00    0.64282   0.64178 1180.796
 3677.00    0.61395   0.61529   -1.000
 3678.00    0.58925   0.59088   -1.000
 3679.00    0.58163   0.57574   -1.000
 3680.00    0.58222   0.57469   -1.000
 3681.00    0.59656   0.58633   -1.000
 3682.00    0.61263   0.60222   -1.000
 3683.00    0.61627   0.61070   -1.000
 3684.00    0.61739   0.60332   -1.000
 3685.00    0.59660   0.58074   -1.000
 3686.00    0.56952   0.55534   -1.000
 3687.00    0.55414   0.54435   -1.000
 3688.00    0.56786   0.55749   -1.000
 3689.00    0.59355   0.59136 1180.796
 3690.00    0.62573   0.63161   -1.000
 3691.00    0.65143   0.66006   -1.000
 3692.00    0.66092   0.66685   -1.000
 3693.00    0.65569   0.65782   -1.000
 3694.00    0.64205   0.64605   -1.000
 3695.00    0.63982   0.64033 1180.796
 3696.00    0.64365   0.64457   -1.000
 3697.00    0.65475   0.66013   -1.000
 3698.00    0.67876   0.68366   -1.000
 3699.00    0.70421   0.70503   -1.000
 3700.00    0.71894   0.71202   -1.000
 3701.00    0.70879   0.69640   -1.000
 3702.00    0.67396   0.65717   -1.000
 3703.00    0.61969   0.60288   -1.000
 3704.00    0.56342   0.54954   -1.000
 3705.00    0.53774   0.51256   -1.000
 3706.00    0.53401   0.49828   -1.000
 3707.00    0.53986   0.50151   -1.000
 3708.00    0.54983   0.51445   -1.000
 3709.00    0.56078   0.53479   -1.000
 3710.00    0.58245   0.56376   -1.000
 3711.00    0.61121   0.60123   -1.000
 3712.00    0.65242   0.64318   -1.000
 3713.00    0.69046   0.68023   -1.000
 3714.00    0.71449   0.70187   -1.000
 3715.00    0.72073   0.70282   -1.000
 3716.00    0.70565   0.68216   -1.000
 3717.00    0.67587   0.64037   -1.000
 3718.00    0.62323   0.58053   -1.000
 3719.00    0.55522   0.51281   -1.000
 3720.00    0.49070   0.45795   -1.000
 3721.00    0.46131   0.43740   -1.000
 3722.00    0.47907   0.45754   -1.000
 3723.00    0.53385   0.50643   -1.000
 3724.00    0.59677   0.56030   -1.000
 3725.00    0.63585   0.59523   -1.000
 3726.00    0.63883   0.60356   -1.000
 3727.00    0.61883   0.59874   -1.000
 3728.00    0.60936   0.59638   -1.000
 3729.00    0.61474   0.59604   -1.000
 3730.00    0.61497   0.58490   -1.000
 3731.00    0.58850   0.55192   -1.000
 3732.00    0.54589   0.49879   -1.000
 3733.00    0.48673   0.44001   -1.000
 3734.00    0.43215   0.39336   -1.000
 3735.00    0.40601   0.37336   -1.000
 3736.00    0.41432   0.38696   -1.000
 3737.00    0.45126   0.43026   -1.000
 3738.00    0.50587   0.49072   -1.000
 3739.00    0.57157   0.55074   -1.000
 3740.00    0.61107   0.59163   -1.000
 3741.00    0.62035   0.60227   -1.000
 3742.00    0.60720   0.58454   -1.000
 3743.00    0.58013   0.54964   -1.000
 3744.00    0.54521   0.51128   -1.000
 3745.00    0.51065   0.47841   -1.000
 3746.00    0.48883   0.45030   -1.000
 3747.00    0.46709   0.42285   -1.000
 3748.00    0.44021   0.40039   -1.000
 3749.00    0.42739   0.39755   -1.000
 3750.00    0.45473   0.42595   -1.000
 3751.00    0.51680   0.48121   -1.000
 3752.00    0.58110   0.54714   -1.000
 3753.00    0.63907   0.60807   -1.000
 3754.00    0.68385   0.65095   -1.000
 3755.00    0.69851   0.66223   -1.000
 3756.00    0.67477   0.63655   -1.000
 3757.00    0.61339   0.58812   -1.000
 3758.00    0.55259   0.54488   -1.000
 3759.00    0.52962   0.52785 1180.796
 3760.00    0.54870   0.53620   -1.000
 3761.00    0.58223   0.55293   -1.000
 3762.00    0.59983   0.56442   -1.000
 3763.00    0.60217   0.56907   -1.000
 3764.00    0.60417   0.56897   -1.000
 3765.00    0.60982   0.56428   -1.000
 3766.00    0.60233   0.55632   -1.000
 3767.00    0.59230   0.54887   -1.000
 3768.00    0.59209   0.54484   -1.000
 3769.00    0.59652   0.54548   -1.000
 3770.00    0.59917   0.55342   -1.000
 3771.00    0.61107   0.57234   -1.000
 3772.00    0.63493   0.60034   -1.000
 3773.00    0.66593   0.62779   -1.000
 3774.00    0.68241   0.64629   -1.000
 3775.00    0.68572   0.65640   -1.000
 3776.00    0.68644   0.66408   -1.000
 3777.00    0.68514   0.67468   -1.000
 3778.00    0.69092   0.69044 1143.617
 3779.00    0.70489   0.70939   -1.000
 3780.00    0.72873   0.72717 1088.618
 3781.00    0.74175   0.74034 1081.783
 3782.00    0.73761   0.74693   -1.000
 3783.00    0.73946   0.74352   -1.000
 3784.00    0.72820   0.72463   -1.000
 3785.00    0.70211   0.68934   -1.000
 3786.00    0.65711   0.64684   -1.000
 3787.00    0.62278   0.61024   -1.000
 3788.00    0.60523   0.58801   -1.000
 3789.00    0.59638   0.58172   -1.000
 3790.00    0.60073   0.58565   -1.000
 3791.00    0.61300   0.58926   -1.000
 3792.00    0.61580   0.58354   -1.000
 3793.00    0.60252   0.56672   -1.000
 3794.00    0.57642   0.54374   -1.000
 3795.00    0.55203   0.51925   -1.000
 3796.00    0.53173   0.49433   -1.000
 3797.00    0.50953   0.47219   -1.000
 3798.00    0.49522   0.46454   -1.000
 3799.00    0.51533   0.48391   -1.000
 3800.00    0.56069   0.52864   -1.000
 3801.00    0.60575   0.58376   -1.000
 3802.00    0.64108   0.63288   -1.000
 3803.00    0.66597   0.66456 1180.796
 3804.00    0.67915   0.67446   -1.000
 3805.00    0.67241   0.66601   -1.000
 3806.00    0.64728   0.65106   -1.000
 3807.00    0.62944   0.64593   -1.000
 3808.00    0.63776   0.65827   -1.000
 3809.00    0.66202   0.67944   -1.000
 3810.00    0.67749   0.69200   -1.000
 3811.00    0.67409   0.68290   -1.000
 3812.00    0.65174   0.65154 1180.796
 3813.00    0.61077   0.60849 1180.796
 3814.00    0.57230   0.56909 1180.796
 3815.00    0.54305   0.54693   -1.000
 3816.00    0.54216   0.54479   -1.000
 3817.00    0.56565   0.54969   -1.000
 3818.00    0.56687   0.54426   -1.000
 3819.00    0.52905   0.52492   -1.000
 3820.00    0.49958   0.50575   -1.000
 3821.00    0.50099   0.50127 1180.796
 3822.00    0.52167   0.50638   -1.000
 3823.00    0.53037   0.50297   -1.000
 3824.00    0.49967   0.48315   -1.000
 3825.00    0.45978   0.45674  179.655
 3826.00    0.44450   0.43844  181.750
 3827.00    0.44651   0.43376  179.654
 3828.00    0.45550   0.43804   -1.000
 3829.00    0.45827   0.44235   -1.000
 3830.00    0.45696   0.43841   -1.000
 3831.00    0.44362   0.42287   -1.000
 3832.00    0.41180   0.39977  202.199
 3833.00    0.39458   0.37868   -1.000
 3834.00    0.39644   0.36845   -1.000
 3835.00    0.41105   0.37075   -1.000
 3836.00    0.42055   0.37884   -1.000
 3837.00    0.41686   0.38520   -1.000
 3838.00    0.40939   0.38989   -1.000
 3839.00    0.41053   0.40120  191.070
 3840.00    0.43102   0.42782  254.043
 3841.00    0.47685   0.47015   -1.000
 3842.00    0.52637   0.51895   -1.000
 3843.00    0.56864   0.56170   -1.000
 3844.00    0.58221   0.59085   -1.000
 3845.00    0.58305   0.60791   -1.000
 3846.00    0.58746   0.61860   -1.000
 3847.00    0.59552   0.62410   -1.000
 3848.00    0.58680   0.62179   -1.000
 3849.00    0.56554   0.61463   -1.000
 3850.00    0.55582   0.61152   -1.000
 3851.00    0.56293   0.61687   -1.000
 3852.00    0.57245   0.62517   -1.000
 3853.00    0.57532   0.62611   -1.000
 3854.00    0.56808   0.61538   -1.000
 3855.00    0.55191   0.59737   -1.000
 3856.00    0.54000   0.57633   -1.000
 3857.00    0.51871   0.55247   -1.000
 3858.00    0.49388   0.52904   -1.000
 3859.00    0.47130   0.51697   -1.000
 3860.00    0.47115   0.52792   -1.000
 3861.00    0.51042   0.56135   -1.000
 3862.00    0.56359   0.60167   -1.000
 3863.00    0.59720   0.62965   -1.000
 3864.00    0.60770   0.63765   -1.000
 3865.00    0.60238   0.63325   -1.000
 3866.00    0.59054   0.62672   -1.000
 3867.00    0.57971   0.62089   -1.000
 3868.00    0.56111   0.61211   -1.000
 3869.00    0.53877   0.59544   -1.000
 3870.00    0.51242   0.57151   -1.000
 3871.00    0.49239   0.54987   -1.000
 3872.00    0.50002   0.54389   -1.000
 3873.00    0.53364   0.55969   -1.000
 3874.00    0.57779   0.58878   -1.000
 3875.00    0.60795   0.61080 1180.796
 3876.00    0.60332   0.60949   -1.000
 3877.00    0.56936   0.58897   -1.000
 3878.00    0.53517   0.56766   -1.000
 3879.00    0.52327   0.55830   -1.000
 3880.00    0.52426   0.55921   -1.000
 3881.00    0.51273   0.56298   -1.000
 3882.00    0.51351   0.56660   -1.000
 3883.00    0.54847   0.56825   -1.000
 3884.00    0.58835   0.56138   -1.000
 3885.00    0.58818   0.53995   -1.000
 3886.00    0.56419   0.50863   -1.000
 3887.00    0.55445   0.48277   -1.000
 3888.00    0.55327   0.47747   -1.000
 3889.00    0.56292   0.49868   -1.000
 3890.00    0.60194   0.54092   -1.000
 3891.00    0.65678   0.58919   -1.000
 3892.00    0.69110   0.62605   -1.000
 3893.00    0.70066   0.64270   -1.000
 3894.00    0.69659   0.64564   -1.000
 3895.00    0.69673   0.64818   -1.000
 3896.00    0.70684   0.65629   -1.000
 3897.00    0.71889   0.66547   -1.000
 3898.00    0.72012   0.67036   -1.000
 3899.00    0.71035   0.67289   -1.000
 3900.00    0.71076   0.67692   -1.000
 3901.00    0.72081   0.67991   -1.000
 3902.00    0.71263   0.67554   -1.000
 3903.00    0.69833   0.66200   -1.000
 3904.00    0.68576   0.64577   -1.000
 3905.00    0.65695   0.63831   -1.000
 3906.00    0.65279   0.64825   -1.000
 3907.00    0.69663   0.67537   -1.000
 3908.00    0.73569   0.71059   -1.000
 3909.00    0.76380   0.74189   -1.000
 3910.00    0.78418   0.76283   -1.000
 3911.00    0.78903   0.77442   -1.000
 3912.00    0.78925   0.77874   -1.000
 3913.00    0.77726   0.77605 1050.170
 3914.00    0.76589   0.76737   -1.000
 3915.00    0.75657   0.75475 1094.775
 3916.00    0.74638   0.73998   -1.000
 3917.00    0.73062   0.72258   -1.000
 3918.00    0.71901   0.70038   -1.000
 3919.00    0.69201   0.67406   -1.000
 3920.00    0.65580   0.64980   -1.000
 3921.00    0.63144   0.63583   -1.000
 3922.00    0.63384   0.63492 1180.796
 3923.00    0.64842   0.63955   -1.000
 3924.00    0.64370   0.63655   -1.000
 3925.00    0.62000   0.61634   -1.000
 3926.00    0.58185   0.57715   -1.000
 3927.00    0.52265   0.52369  474.793
 3928.00    0.45478   0.46352  198.303
 3929.00    0.39962   0.40291  232.388
 3930.00    0.34198   0.34484  272.789
 3931.00    0.28562   0.29166  321.832
 3932.00    0.24178   0.24898  368.793
 3933.00    0.21456   0.22516  386.013
 3934.00    0.21849   0.22732  356.918
 3935.00    0.24843   0.25654  304.050
 3936.00    0.29781   0.30699  250.627
 3937.00    0.35856   0.36976  207.548
 3938.00    0.42155   0.43525  258.542
 3939.00    0.48148   0.49369   -1.000
 3940.00    0.52561   0.53775   -1.000
 3941.00    0.54903   0.56443   -1.000
 3942.00    0.55802   0.57696   -1.000
 3943.00    0.56187   0.58584   -1.000
 3944.00    0.57855   0.60199   -1.000
 3945.00    0.61943   0.62779   -1.000
 3946.00    0.66834   0.65575   -1.000
 3947.00    0.69372   0.67792   -1.000
 3948.00    0.70723   0.69511   -1.000
 3949.00    0.72720   0.71181   -1.000
 3950.00    0.75266   0.72621   -1.000
 3951.00    0.76041   0.73401   -1.000
 3952.00    0.74775   0.73751   -1.000
 3953.00    0.75455   0.74217   -1.000
 3954.00    0.77339   0.74694   -1.000
 3955.00    0.77091   0.74563   -1.000
 3956.00    0.74546   0.73744   -1.000
 3957.00    0.73631   0.72836   -1.000
 3958.00    0.74040   0.71800   -1.000
 3959.00    0.73013   0.69476   -1.000
 3960.00    0.68118   0.65053   -1.000
 3961.00    0.60652   0.59305   -1.000
 3962.00    0.54229   0.53862   -1.000
 3963.00    0.50405   0.49473   -1.000
 3964.00    0.46325   0.45366  186.732
 3965.00    0.40583   0.40325  222.503
 3966.00    0.33887   0.34262  274.118
 3967.00    0.27508   0.28598  325.354
 3968.00    0.23656   0.25264   -1.000
 3969.00    0.24034   0.25340   -1.000
 3970.00    0.28350   0.28648  247.816
 3971.00    0.34546   0.34188  204.946
 3972.00    0.41271   0.40803  255.239
 3973.00    0.48478   0.47666   -1.000
 3974.00    0.55536   0.54329   -1.000
 3975.00    0.61864   0.60520  121.893
 3976.00    0.67900   0.66121  113.179
 3977.00    0.73068   0.71218  106.794
 3978.00    0.77477   0.75793  101.144
 3979.00    0.81890   0.79456   97.104
 3980.00    0.84438   0.81619   96.621
 3981.00    0.84564   0.82183   97.727
 3982.00    0.83028   0.81901   98.782
 3983.00    0.82285   0.81829   97.564
 3984.00    0.84117   0.82547   95.538
 3985.00    0.85884   0.83976   93.769
 3986.00    0.87426   0.85790   92.162
 3987.00    0.89307   0.87612   90.681
 3988.00    0.90692   0.89024   90.229
 3989.00    0.91082   0.89890   90.283
 3990.00    0.90837   0.90566   89.172
 3991.00    0.92041   0.91484   87.034
 3992.00    0.94050   0.92530   85.964
 3993.00    0.94622   0.93002   87.412
 3994.00    0.93803   0.92349   89.522
 3995.00    0.91491   0.90789   91.469
 3996.00    0.88473   0.89248   92.890
 3997.00    0.87476   0.88839   92.672
 3998.00    0.89111   0.90100   89.767
 3999.00    0.92542   0.92627   85.958
 4000.00    0.95994   0.95400   83.586
 4001.00    0.98210   0.97332   82.327
 4002.00    0.99949   0.97491   82.082
 4003.00    0.99093   0.95419   85.054
 4004.00    0.93790   0.91785   90.520
 4005.00    0.88133   0.88550   93.360
 4006.00    0.87105   0.87811   90.883
 4007.00    0.90965   0.89993   86.090
 4008.00    0.95492   0.93542   83.485
 4009.00    0.98410   0.96594   82.496
 4010.00    0.99832   0.98426   81.815
 4011.00    1.00370   0.99336   81.844
 4012.00    0.99940   0.99890   82.406
 4013.00    1.00254   1.00420   82.491
 4014.00    1.00772   1.00870   81.659
 4015.00    1.00951   1.00988   81.108
 4016.00    1.00245   1.00788   81.955
 4017.00    0.99598   1.00716   82.504
 4018.00    0.99463   1.01174   81.773
 4019.00    1.00682   1.01983   80.974
 4020.00    1.01114   1.02524   81.536
 4021.00    1.00535   1.02429   82.520
 4022.00    1.00462   1.01849   83.007
 4023.00    0.99430   1.01215   83.589
 4024.00    0.98572   1.01016   83.308
 4025.00    0.99722   1.01726   80.863
 4026.00    1.02975   1.03319   78.378
 4027.00    1.05947   1.04731   77.588
 4028.00    1.06001   1.04225   79.170
 4029.00    1.02096   1.00861   83.221
 4030.00    0.95932   0.95625   88.286
 4031.00    0.91499   0.90717   91.066
 4032.00    0.90061   0.87915   91.335
 4033.00    0.90902   0.87866   89.492
 4034.00    0.93733   0.90399   85.992
 4035.00    0.97483   0.94937   81.702
 4036.00    1.02144   1.00377   78.067
 4037.00    1.06460   1.05058   76.174
 4038.00    1.08796   1.07464   76.578
 4039.00    1.07423   1.07344   78.325
 4040.00    1.04537   1.05875   79.863
 4041.00    1.03654   1.04046   80.547
 4042.00    1.03139   1.01284   82.083
 4043.00    0.99144   0.96448   87.461
 4044.00    0.91292   0.90154   95.598
 4045.00    0.83707   0.85453   99.020
 4046.00    0.84015   0.85413   92.701
 4047.00    0.91776   0.90040   84.756
 4048.00    0.99577   0.96545   80.609
 4049.00    1.03666   1.01928   78.825
 4050.00    1.05431   1.04728   78.434
 4051.00    1.04639   1.05026   79.552
 4052.00    1.02166   1.03582   81.746
 4053.00    1.00000   1.01343   83.578
 4054.00    0.98417   0.99152   84.644
 4055.00    0.96451   0.97343   85.270
 4056.00    0.95619   0.95928   85.954
 4057.00    0.94575   0.95264   86.206
 4058.00    0.94998   0.95914   84.403
 4059.00    0.98237   0.97583   81.764
 4060.00    1.01634   0.98585   81.193
 4061.00    1.01516   0.97085   -1.000
 4062.00    0.95699   0.93218   90.376
 4063.00    0.89126   0.89304   94.004
 4064.00    0.87765   0.87628   91.250
 4065.00    0.90539   0.88638   87.458
 4066.00    0.93806   0.91265   85.291
 4067.00    0.97192   0.94291   82.817
 4068.00    1.01028   0.96697   -1.000
 4069.00    1.03199   0.97368   -1.000
 4070.00    1.00759   0.95957   -1.000
 4071.00    0.96217   0.93836   86.960
 4072.00    0.94835   0.92992   85.326
 4073.00    0.97391   0.93730   83.036
 4074.00    0.99618   0.94185   -1.000
 4075.00    0.96440   0.92561   -1.000
 4076.00    0.90571   0.89463   95.471
 4077.00    0.85721   0.87401   96.133
 4078.00    0.86761   0.88413   91.589
 4079.00    0.92480   0.92459   85.203
 4080.00    0.98712   0.97488   80.469
 4081.00    1.03194   1.00956   79.382
 4082.00    1.02608   1.01609   81.284
 4083.00    0.99963   1.00274   83.595
 4084.00    0.97575   0.99028   83.964
 4085.00    0.97838   0.99552   82.095
 4086.00    1.01596   1.02066   79.140
 4087.00    1.06088   1.05418   76.256
 4088.00    1.09297   1.08025   74.769
 4089.00    1.10517   1.08821   75.585
 4090.00    1.08959   1.07857   77.136
 4091.00    1.06224   1.06102   78.381
 4092.00    1.04898   1.04431   78.972
 4093.00    1.05193   1.02795   79.496
 4094.00    1.03886   1.00587   81.739
 4095.00    1.00061   0.97611   85.227
 4096.00    0.96590   0.94337   87.291
 4097.00    0.94783   0.91197   -1.000
 4098.00    0.92732   0.87801   -1.000
 4099.00    0.89358   0.83507   -1.000
 4100.00    0.83026   0.78788   -1.000
 4101.00    0.77106   0.75523  109.377
 4102.00    0.76562   0.75664  104.354
 4103.00    0.81745   0.79529   95.637
 4104.00    0.89106   0.85539   89.013
 4105.00    0.94982   0.91414   84.995
 4106.00    0.99256   0.95592   83.194
 4107.00    1.00263   0.97750   83.248
 4108.00    0.99829   0.98333   84.362
 4109.00    0.98353   0.98115   85.903
 4110.00    0.96890   0.97961   86.349
 4111.00    0.96397   0.98478   84.907
 4112.00    0.98276   0.99819   83.122
 4113.00    1.00984   1.01765   81.757
 4114.00    1.02825   1.03791   80.662
 4115.00    1.03619   1.05142   80.295
 4116.00    1.03863   1.05194   81.175
 4117.00    1.02530   1.03961   83.296
 4118.00    0.99963   1.02210   85.518
 4119.00    0.97955   1.00933   85.749
 4120.00    0.98486   1.00611   84.689
 4121.00    0.99486   1.01021   84.150
 4122.00    0.99496   1.01725   83.914
 4123.00    1.00108   1.02553   82.777
 4124.00    1.01604   1.03417   81.703
 4125.00    1.02884   1.03901   81.932
 4126.00    1.02832   1.03554   83.308
 4127.00    1.00942   1.02501   84.747
 4128.00    0.98651   1.01261   85.325
 4129.00    0.97909   0.99972   85.973
 4130.00    0.96684   0.98263   87.637
 4131.00    0.94726   0.96039   90.460
 4132.00    0.92908   0.94170   92.414
 4133.00    0.91720   0.93995   91.422
 4134.00    0.93040   0.96132   87.745
 4135.00    0.97084   0.99888   83.823
 4136.00    1.01135   1.03869   81.613
 4137.00    1.03245   1.07007   -1.000
 4138.00    1.05125   1.08871   -1.000
 4139.00    1.06491   1.09166   79.793
 4140.00    1.05317   1.07323   82.359
 4141.00    1.01177   1.03183   87.670
 4142.00    0.93925   0.98070   -1.000
 4143.00    0.88371   0.94464   -1.000
 4144.00    0.89014   0.94198   -1.000
 4145.00    0.94450   0.96923   86.779
 4146.00    0.99545   1.00434   84.407
 4147.00    1.00634   1.02638   84.445
 4148.00    0.99379   1.03051   -1.000
 4149.00    0.98026   1.02523   -1.000
 4150.00    0.96825   1.01965   -1.000
 4151.00    0.96338   1.01508   -1.000
 4152.00    0.96326   1.00789   -1.000
 4153.00    0.95718   0.99699   -1.000
 4154.00    0.94803   0.98676   -1.000
 4155.00    0.94121   0.98417   -1.000
 4156.00    0.97008   0.99322   87.532
 4157.00    0.99952   1.01261   86.929
 4158.00    0.96863   1.03758   -1.000
 4159.00    0.96550   1.06239   -1.000
 4160.00    0.99931   1.08298   -1.000
 4161.00    1.01166   1.09884   -1.000
 4162.00    1.03904   1.11040   -1.000
 4163.00    1.04963   1.11529   -1.000
 4164.00    1.03574   1.10960   -1.000
 4165.00    1.01384   1.09288   -1.000
 4166.00    0.98721   1.07193   -1.000
 4167.00    0.97916   1.05680   -1.000
 4168.00    0.98661   1.05058   -1.000
 4169.00    0.99748   1.04450   -1.000
 4170.00    0.99500   1.02605   88.009
 4171.00    0.95958   0.99337   -1.000
 4172.00    0.90568   0.96018   -1.000
 4173.00    0.87636   0.94447   -1.000
 4174.00    0.89387   0.95184   -1.000
 4175.00    0.93151   0.97170   -1.000
 4176.00    0.94471   0.99051   -1.000
 4177.00    0.93803   1.00470   -1.000
 4178.00    0.93750   1.01765   -1.000
 4179.00    0.95355   1.02889   -1.000
 4180.00    0.96654   1.03331   -1.000
 4181.00    0.96294   1.03082   -1.000
 4182.00    0.96638   1.02998   -1.000
 4183.00    0.97721   1.03771   -1.000
 4184.00    1.00593   1.04861   -1.000
 4185.00    1.01857   1.05025   85.132
 4186.00    0.99374   1.03904   -1.000
 4187.00    0.95975   1.02542   -1.000
 4188.00    0.94995   1.02209   -1.000
 4189.00    0.97361   1.03162   -1.000
 4190.00    0.99338   1.04772   -1.000
 4191.00    0.99714   1.06444   -1.000
 4192.00    1.01463   1.07822   -1.000
 4193.00    1.03329   1.08261   -1.000
 4194.00    1.02158   1.06983   -1.000
 4195.00    0.98110   1.03982   -1.000
 4196.00    0.93856   1.00294   -1.000
 4197.00    0.92120   0.97205   -1.000
 4198.00    0.91563   0.95389   -1.000
 4199.00    0.92280   0.94796   92.116
 4200.00    0.93633   0.95079   91.059
 4201.00    0.94210   0.95949   90.727
 4202.00    0.94176   0.97353   -1.000
 4203.00    0.95123   0.99435   -1.000
 4204.00    0.96842   1.02192   -1.000
 4205.00    0.98808   1.05245   -1.000
 4206.00    1.00854   1.08005   -1.000
 4207.00    1.03351   1.09972   -1.000
 4208.00    1.04842   1.10923   -1.000
 4209.00    1.04945   1.11087   -1.000
 4210.00    1.04667   1.11045   -1.000
 4211.00    1.04469   1.11077   -1.000
 4212.00    1.04484   1.10636   -1.000
 4213.00    1.02459   1.08930   -1.000
 4214.00    0.97762   1.06216   -1.000
 4215.00    0.94212   1.04101   -1.000
 4216.00    0.95628   1.04266   -1.000
 4217.00    1.01776   1.06953   -1.000
 4218.00    1.07789   1.10806   78.179
 4219.00    1.10947   1.13982   76.520
 4220.00    1.12296   1.15147   76.275
 4221.00    1.11778   1.13638   77.876
 4222.00    1.09115   1.09217   81.966
 4223.00    1.03460   1.02069   88.627
 4224.00    0.95332   0.93305   98.576
 4225.00    0.84939   0.85349  110.216
 4226.00    0.76572   0.81296   -1.000
 4227.00    0.77118   0.83143   -1.000
 4228.00    0.87883   0.90126   -1.000
 4229.00    1.00677   0.98762   82.206
 4230.00    1.07214   1.05300   79.348
 4231.00    1.08850   1.08142   79.690
 4232.00    1.07920   1.07913   81.677
 4233.00    1.05865   1.06114   83.357
 4234.00    1.03658   1.04052   84.544
 4235.00    1.01512   1.02504   86.418
 4236.00    0.99657   1.01843   87.168
 4237.00    0.99237   1.02259   -1.000
 4238.00    1.00792   1.03739   84.164
 4239.00    1.02812   1.05932   82.838
 4240.00    1.04888   1.08350   -1.000
 4241.00    1.07003   1.10683   -1.000
 4242.00    1.08140   1.12865   -1.000
 4243.00    1.09587   1.14811   -1.000
 4244.00    1.11670   1.15994   -1.000
 4245.00    1.11429   1.15540   -1.000
 4246.00    1.07484   1.13027   -1.000
 4247.00    1.03788   1.09143   -1.000
 4248.00    1.00910   1.05380   -1.000
 4249.00    0.98422   1.03128   -1.000
 4250.00    0.98188   1.02873   -1.000
 4251.00    1.00956   1.03942   84.259
 4252.00    1.04062   1.04974   82.918
 4253.00    1.04096   1.05060   84.137
 4254.00    1.02334   1.04749   85.265
 4255.00    1.02152   1.05344   83.206
 4256.00    1.04810   1.06841   80.810
 4257.00    1.06829   1.07468   81.580
 4258.00    1.04877   1.05774   85.358
 4259.00    0.99924   1.02693   89.262
 4260.00    0.96047   1.01037   -1.000
 4261.00    0.97461   1.02878   -1.000
 4262.00    1.02884   1.07765   -1.000
 4263.00    1.09166   1.13313   -1.000
 4264.00    1.13327   1.17185   -1.000
 4265.00    1.14526   1.18459   -1.000
 4266.00    1.13461   1.17375   -1.000
 4267.00    1.10436   1.14399   -1.000
 4268.00    1.06712   1.09837   83.301
 4269.00    1.03009   1.04125   87.354
 4270.00    0.97592   0.98217   93.108
 4271.00    0.91407   0.93553   97.119
 4272.00    0.88848   0.91375   96.788
 4273.00    0.90248   0.92009   94.414
 4274.00    0.92948   0.95004   91.331
 4275.00    0.96588   0.99715   -1.000
 4276.00    1.01585   1.05187   -1.000
 4277.00    1.07199   1.09805   79.007
 4278.00    1.09423   1.11989   80.366
 4279.00    1.06723   1.11528   -1.000
 4280.00    1.02425   1.09847   -1.000
 4281.00    1.00938   1.08646   -1.000
 4282.00    1.02440   1.08365   -1.000
 4283.00    1.04232   1.08198   -1.000
 4284.00    1.03890   1.07343   -1.000
 4285.00    1.00942   1.05765   -1.000
 4286.00    0.98142   1.03708   -1.000
 4287.00    0.96565   1.01105   -1.000
 4288.00    0.93683   0.97924   -1.000
 4289.00    0.89619   0.95003   -1.000
 4290.00    0.87999   0.93931   -1.000
 4291.00    0.91180   0.95523   -1.000
 4292.00    0.97103   0.98655   87.484
 4293.00    1.00792   1.01195   86.861
 4294.00    1.00936   1.01764   87.982
 4295.00    0.99186   1.00265   89.665
 4296.00    0.96441   0.97075   92.635
 4297.00    0.92703   0.92454   98.625
 4298.00    0.86760   0.87032  106.938
 4299.00    0.79945   0.82216  112.446
 4300.00    0.76590   0.79424   -1.000
 4301.00    0.77877   0.78981  108.953
 4302.00    0.80086   0.80041  107.356
 4303.00    0.81690   0.81418  105.846
 4304.00    0.83410   0.82187  105.216
 4305.00    0.83786   0.81657  106.894
 4306.00    0.81921   0.79631  111.492
 4307.00    0.78010   0.76987  116.437
 4308.00    0.74730   0.75444  117.263
 4309.00    0.75165   0.76396  113.215
 4310.00    0.78870   0.79971  106.468
 4311.00    0.83476   0.85266  100.062
 4312.00    0.88155   0.91454   -1.000
 4313.00    0.92607   0.98428   -1.000
 4314.00    0.97773   1.06309   -1.000
 4315.00    1.06005   1.14631   -1.000
 4316.00    1.15461   1.22078   -1.000
 4317.00    1.21722   1.27038   -1.000
 4318.00    1.23333   1.28699   -1.000
 4319.00    1.22177   1.27543   -1.000
 4320.00    1.19281   1.24433   -1.000
 4321.00    1.15246   1.19538   -1.000
 4322.00    1.10664   1.12693   82.826
 4323.00    1.03820   1.04671   89.532
 4324.00    0.95052   0.97887   -1.000
 4325.00    0.89390   0.95361   -1.000
 4326.00    0.91874   0.98528   -1.000
 4327.00    1.01998   1.05916   -1.000
 4328.00    1.12482   1.13996   75.446
 4329.00    1.17400   1.19724   74.803
 4330.00    1.17117   1.22455   -1.000
 4331.00    1.16427   1.23505   -1.000
 4332.00    1.16884   1.24272   -1.000
 4333.00    1.18658   1.24871   -1.000
 4334.00    1.19797   1.24227   -1.000
 4335.00    1.18342   1.20987   75.432
 4336.00    1.13537   1.14475   81.347
 4337.00    1.05136   1.05491   89.280
 4338.00    0.95734   0.96426   97.240
 4339.00    0.87873   0.90216  103.156
 4340.00    0.83990   0.88830   -1.000
 4341.00    0.87616   0.92332   -1.000
 4342.00    0.96388   0.98941   84.720
 4343.00    1.04317   1.06074   80.598
 4344.00    1.08965   1.11978   78.276
 4345.00    1.12556   1.16452   -1.000
 4346.00    1.15187   1.19994   -1.000
 4347.00    1.16254   1.22735   -1.000
 4348.00    1.19057   1.24036   -1.000
 4349.00    1.20022   1.22849   75.417
 4350.00    1.14845   1.18979   -1.000
 4351.00    1.06614   1.14186   -1.000
 4352.00    1.02153   1.11321   -1.000
 4353.00    1.05218   1.11970   -1.000
 4354.00    1.10816   1.15331   -1.000
 4355.00    1.14831   1.19274   -1.000
 4356.00    1.17806   1.22060   -1.000
 4357.00    1.19056   1.23203   -1.000
 4358.00    1.17909   1.23323   -1.000
 4359.00    1.15559   1.23566   -1.000
 4360.00    1.16589   1.24822   -1.000
 4361.00    1.20601   1.27045   -1.000
 4362.00    1.23377   1.29435   -1.000
 4363.00    1.24070   1.31281   -1.000
 4364.00    1.24976   1.32196   -1.000
 4365.00    1.25325   1.31712   -1.000
 4366.00    1.22531   1.29618   -1.000
 4367.00    1.17834   1.26668   -1.000
 4368.00    1.15285   1.24127   -1.000
 4369.00    1.15747   1.22618   -1.000
 4370.00    1.16927   1.21696   -1.000
 4371.00    1.16681   1.20381   -1.000
 4372.00    1.15281   1.18038   77.169
 4373.00    1.12040   1.14986   80.417
 4374.00    1.07954   1.12522   -1.000
 4375.00    1.07261   1.12188   -1.000
 4376.00    1.10978   1.14470   -1.000
 4377.00    1.16551   1.18058   74.267
 4378.00    1.19512   1.20706   73.722
 4379.00    1.19853   1.20630   74.566
 4380.00    1.18301   1.16984   76.756
 4381.00    1.14362   1.09976   -1.000
 4382.00    1.05092   1.01386   91.747
 4383.00    0.93574   0.94562   98.599
 4384.00    0.88670   0.92737   -1.000
 4385.00    0.94470   0.96464   85.918
 4386.00    1.04607   1.02967   79.859
 4387.00    1.10697   1.08546   78.472
 4388.00    1.11793   1.11440   78.932
 4389.00    1.10401   1.12365   79.595
 4390.00    1.09735   1.12932   79.124
 4391.00    1.11939   1.14012   77.415
 4392.00    1.14746   1.15392   76.524
 4393.00    1.15058   1.16539   77.596
 4394.00    1.13372   1.17589   -1.000
 4395.00    1.13215   1.19269   -1.000
 4396.00    1.16589   1.21689   -1.000
 4397.00    1.20802   1.23650   72.872
 4398.00    1.20998   1.23751   74.671
 4399.00    1.17341   1.22032   -1.000
 4400.00    1.13616   1.19768   -1.000
 4401.00    1.13689   1.17764   -1.000
 4402.00    1.15121   1.15538   77.227
 4403.00    1.13334   1.12390   80.827
 4404.00    1.07754   1.09017   84.105
 4405.00    1.04752   1.07229   83.223
 4406.00    1.07335   1.08020   80.895
 4407.00    1.09609   1.10874   79.969
 4408.00    1.09708   1.14908   -1.000
 4409.00    1.12702   1.19735   -1.000
 4410.00    1.19344   1.24787   -1.000
 4411.00    1.24827   1.28492   70.323
 4412.00    1.26664   1.29109   70.597
 4413.00    1.24586   1.26381   73.452
 4414.00    1.18527   1.22005   -1.000
 4415.00    1.12466   1.18707   -1.000
 4416.00    1.11389   1.18615   -1.000
 4417.00    1.14872   1.21884   -1.000
 4418.00    1.19649   1.26650   -1.000
 4419.00    1.23240   1.30389   -1.000
 4420.00    1.23666   1.31504   -1.000
 4421.00    1.21140   1.30163   -1.000
 4422.00    1.18088   1.27912   -1.000
 4423.00    1.16534   1.26353   -1.000
 4424.00    1.17326   1.26010   -1.000
 4425.00    1.18176   1.26349   -1.000
 4426.00    1.17788   1.26777   -1.000
 4427.00    1.18168   1.27170   -1.000
 4428.00    1.19354   1.27463   -1.000
 4429.00    1.19526   1.27488   -1.000
 4430.00    1.18181   1.27229   -1.000
 4431.00    1.17731   1.26694   -1.000
 4432.00    1.18524   1.25557   -1.000
 4433.00    1.17027   1.23473   -1.000
 4434.00    1.13256   1.21148   -1.000
 4435.00    1.10836   1.20487   -1.000
 4436.00    1.13926   1.22908   -1.000
 4437.00    1.20742   1.27651   -1.000
 4438.00    1.26772   1.32122   -1.000
 4439.00    1.28996   1.33828   -1.000
 4440.00    1.26598   1.32105   -1.000
 4441.00    1.21215   1.28428   -1.000
 4442.00    1.16104   1.25437   -1.000
 4443.00    1.14512   1.25239   -1.000
 4444.00    1.17654   1.28017   -1.000
 4445.00    1.23168   1.32063   -1.000
 4446.00    1.26757   1.35312   -1.000
 4447.00    1.27572   1.36872   -1.000
 4448.00    1.27851   1.37124   -1.000
 4449.00    1.27233   1.36743   -1.000
 4450.00    1.25766   1.35925   -1.000
 4451.00    1.25297   1.34339   -1.000
 4452.00    1.25520   1.31492   -1.000
 4453.00    1.22406   1.27307   -1.000
 4454.00    1.17008   1.22706   -1.000
 4455.00    1.13867   1.19262   -1.000
 4456.00    1.14134   1.17914   -1.000
 4457.00    1.15739   1.18169   76.502
 4458.00    1.16452   1.18817   76.749
 4459.00    1.15584   1.19194   -1.000
 4460.00    1.14745   1.19586   -1.000
 4461.00    1.14247   1.20697   -1.000
 4462.00    1.15506   1.22941   -1.000
 4463.00    1.19592   1.25981   -1.000
 4464.00    1.23189   1.28801   -1.000
 4465.00    1.24932   1.30449   -1.000
 4466.00    1.24804   1.30697   -1.000
 4467.00    1.23159   1.30036   -1.000
 4468.00    1.21608   1.29294   -1.000
 4469.00    1.20782   1.29360   -1.000
 4470.00    1.21993   1.30886   -1.000
 4471.00    1.25130   1.33851   -1.000
 4472.00    1.29266   1.37434   -1.000
 4473.00    1.32987   1.40556   -1.000
 4474.00    1.35382   1.42643   -1.000
 4475.00    1.36290   1.43861   -1.000
 4476.00    1.36546   1.44491   -1.000
 4477.00    1.37563   1.44167   -1.000
 4478.00    1.37372   1.42099   -1.000
 4479.00    1.33545   1.38211   -1.000
 4480.00    1.26776   1.33863   -1.000
 4481.00    1.22240   1.31239   -1.000
 4482.00    1.23061   1.31787   -1.000
 4483.00    1.27591   1.35223   -1.000
 4484.00    1.32910   1.39819   -1.000
 4485.00    1.36543   1.43414   -1.000
 4486.00    1.37896   1.44459   -1.000
 4487.00    1.35997   1.42757   -1.000
 4488.00    1.30754   1.39564   -1.000
 4489.00    1.26899   1.36859   -1.000
 4490.00    1.27016   1.36020   -1.000
 4491.00    1.29577   1.36821   -1.000
 4492.00    1.32425   1.37739   -1.000
 4493.00    1.31697   1.37454   -1.000
 4494.00    1.28141   1.36148   -1.000
 4495.00    1.25511   1.35262   -1.000
 4496.00    1.25939   1.35973   -1.000
 4497.00    1.29793   1.38111   -1.000
 4498.00    1.34044   1.40514   -1.000
 4499.00    1.35810   1.42172   -1.000
 4500.00    1.34653   1.43038   -1.000
 4501.00    1.32931   1.43955   -1.000
 4502.00    1.34482   1.45789   -1.000
 4503.00    1.39545   1.48530   -1.000
 4504.00    1.43730   1.51272   -1.000
 4505.00    1.44453   1.52923   -1.000
 4506.00    1.43342   1.53042   -1.000
 4507.00    1.41612   1.52170   -1.000
 4508.00    1.40691   1.51262   -1.000
 4509.00    1.41221   1.50816   -1.000
 4510.00    1.41490   1.50559   -1.000
 4511.00    1.40535   1.49841   -1.000
 4512.00    1.38709   1.48324   -1.000
 4513.00    1.36788   1.46351   -1.000
 4514.00    1.35161   1.44631   -1.000
 4515.00    1.35217   1.43629   -1.000
 4516.00    1.35607   1.43292   -1.000
 4517.00    1.34930   1.43301   -1.000
 4518.00    1.33933   1.43557   -1.000
 4519.00    1.34602   1.44238   -1.000
 4520.00    1.37346   1.45237   -1.000
 4521.00    1.38296   1.45869   -1.000
 4522.00    1.36204   1.45364   -1.000
 4523.00    1.33629   1.43519   -1.000
 4524.00    1.31916   1.40688   -1.000
 4525.00    1.29838   1.37225   -1.000
 4526.00    1.26952   1.33328   -1.000
 4527.00    1.23141   1.29459   -1.000
 4528.00    1.20536   1.26524   -1.000
 4529.00    1.20807   1.25365   -1.000
 4530.00    1.22515   1.26056   73.512
 4531.00    1.24879   1.27701   72.555
 4532.00    1.26414   1.28991   73.168
 4533.00    1.24528   1.29236   -1.000
 4534.00    1.20536   1.29041   -1.000
 4535.00    1.20058   1.29884   -1.000
 4536.00    1.25386   1.32816   -1.000
 4537.00    1.33457   1.37348   66.511
 4538.00    1.38747   1.41652   65.759
 4539.00    1.39250   1.44039   -1.000
 4540.00    1.36814   1.44298   -1.000
 4541.00    1.35247   1.43567   -1.000
 4542.00    1.35549   1.43008   -1.000
 4543.00    1.36030   1.42786   -1.000
 4544.00    1.33916   1.42358   -1.000
 4545.00    0.89673   1.41398   -1.000
 4546.00    0.12535   1.40109   -1.000
 4547.00   -0.01775   1.38771    0.000
 4548.00    0.37996   1.37512   -1.000
 4549.00    0.71594   1.36621   -1.000
 4550.00    0.54184   1.36534   -1.000
 4551.00    1.10648   1.37192   -1.000
 4552.00    1.34582   1.37834   70.692
 4553.00    1.29632   1.37813   -1.000
 4554.00    1.28723   1.37461   -1.000
 4555.00    1.29334   1.37867   -1.000
 4556.00    1.33026   1.39861   -1.000
 4557.00    1.38377   1.43220   -1.000
 4558.00    1.41832   1.46810   -1.000
 4559.00    1.42719   1.49507   -1.000
 4560.00    1.42642   1.50839   -1.000
 4561.00    1.42256   1.50798   -1.000
 4562.00    1.40270   1.49481   -1.000
 4563.00    1.36411   1.47202   -1.000
 4564.00    1.33218   1.44824   -1.000
 4565.00    1.32576   1.43580   -1.000
 4566.00    1.35581   1.44265   -1.000
 4567.00    1.40146   1.46469   -1.000
 4568.00    1.42841   1.48723   -1.000
 4569.00    1.42048   1.49575   -1.000
 4570.00    1.38600   1.48711   -1.000
 4571.00    1.35451   1.47119   -1.000
 4572.00    1.35476   1.46267   -1.000
 4573.00    1.38646   1.46909   -1.000
 4574.00    1.42174   1.48513   -1.000
 4575.00    1.42763   1.49887   -1.000
 4576.00    1.41389   1.50185   -1.000
 4577.00    1.40608   1.49175   -1.000
 4578.00    1.39081   1.46951   -1.000
 4579.00    1.35566   1.43928   -1.000
 4580.00    1.31882   1.40987   -1.000
 4581.00    1.30591   1.39119   -1.000
 4582.00    1.31837   1.38697   -1.000
 4583.00    1.33574   1.39224   -1.000
 4584.00    1.33863   1.39892   -1.000
 4585.00    1.33414   1.40438   -1.000
 4586.00    1.34041   1.41353   -1.000
 4587.00    1.36839   1.43137   -1.000
 4588.00    1.40118   1.45486   -1.000
 4589.00    1.41715   1.47360   -1.000
 4590.00    1.41795   1.47808   -1.000
 4591.00    1.39522   1.46707   -1.000
 4592.00    1.35955   1.44813   -1.000
 4593.00    1.34721   1.43134   -1.000
 4594.00    1.35506   1.42232   -1.000
 4595.00    1.35995   1.42085   -1.000
 4596.00    1.36103   1.42438   -1.000
 4597.00    1.36877   1.43054   -1.000
 4598.00    1.37872   1.43651   -1.000
 4599.00    1.37949   1.43930   -1.000
 4600.00    1.36487   1.43822   -1.000
 4601.00    1.35891   1.43582   -1.000
 4602.00    1.36875   1.43510   -1.000
 4603.00    1.38268   1.43684   -1.000
 4604.00    1.39225   1.44076   -1.000
 4605.00    1.39468   1.44844   -1.000
 4606.00    1.40275   1.46315   -1.000
 4607.00    1.43028   1.48624   -1.000
 4608.00    1.46471   1.51376   -1.000
 4609.00    1.48290   1.53660   -1.000
 4610.00    1.47789   1.54594   -1.000
 4611.00    1.45662   1.54067   -1.000
 4612.00    1.43869   1.52838   -1.000
 4613.00    1.43260   1.51859   -1.000
 4614.00    1.44047   1.51625   -1.000
 4615.00    1.44953   1.52018   -1.000
 4616.00    1.44974   1.52571   -1.000
 4617.00    1.44270   1.52893   -1.000
 4618.00    1.43689   1.52955   -1.000
 4619.00    1.43809   1.53032   -1.000
 4620.00    1.44870   1.53411   -1.000
 4621.00    1.46263   1.54073   -1.000
 4622.00    1.46907   1.54647   -1.000
 4623.00    1.47094   1.54761   -1.000
 4624.00    1.47171   1.54391   -1.000
 4625.00    1.46141   1.53794   -1.000
 4626.00    1.45688   1.53238   -1.000
 4627.00    1.46306   1.52892   -1.000
 4628.00    1.45882   1.52821   -1.000
 4629.00    1.44661   1.53007   -1.000
 4630.00    1.45836   1.53350   -1.000
 4631.00    1.48241   1.53624   -1.000
 4632.00    1.47637   1.53472   -1.000
 4633.00    1.45426   1.52656   -1.000
 4634.00    1.44046   1.51346   -1.000
 4635.00    1.43003   1.49932   -1.000
 4636.00    1.41532   1.48603   -1.000
 4637.00    1.40003   1.47342   -1.000
 4638.00    1.39520   1.46273   -1.000
 4639.00    1.39276   1.45755   -1.000
 4640.00    1.40556   1.46108   -1.000
 4641.00    1.44340   1.47202   63.429
 4642.00    1.47287   1.48308   63.036
 4643.00    1.47504   1.48461   63.702
 4644.00    1.45154   1.47103   65.171
 4645.00    1.41786   1.44478   67.024
 4646.00    1.38431   1.41527   68.250
 4647.00    1.36139   1.39526   67.871
 4648.00    1.36991   1.39468   66.456
 4649.00    1.40066   1.41410   65.147
 4650.00    1.42776   1.44403   64.592
 4651.00    1.44034   1.47142   64.499
 4652.00    1.44451   1.48700   64.724
 4653.00    1.44000   1.48807   -1.000
 4654.00    1.41607   1.47854   -1.000
 4655.00    1.38885   1.46835   -1.000
 4656.00    1.38786   1.46959   -1.000
 4657.00    1.41549   1.48912   -1.000
 4658.00    1.46746   1.52315   -1.000
 4659.00    1.51650   1.55814   60.804
 4660.00    1.52854   1.57845   61.119
 4661.00    1.51090   1.57611   -1.000
 4662.00    1.47668   1.55424   -1.000
 4663.00    1.45162   1.52158   -1.000
 4664.00    1.44036   1.48448   64.917
 4665.00    1.42152   1.44445   66.708
 4666.00    1.36742   1.40332   69.622
 4667.00    1.31129   1.36959   -1.000
 4668.00    1.29067   1.35631   -1.000
 4669.00    1.32342   1.37039   -1.000
 4670.00    1.38569   1.40489   65.379
 4671.00    1.43513   1.44346   64.207
 4672.00    1.45647   1.47244   64.051
 4673.00    1.45222   1.48899   64.069
 4674.00    1.44591   1.49900   -1.000
 4675.00    1.46085   1.50795   -1.000
 4676.00    1.48606   1.51406   62.328
 4677.00    1.49336   1.51066   63.110
 4678.00    1.46650   1.49470   64.477
 4679.00    1.43594   1.47119   65.663
 4680.00    1.41020   1.44978   66.559
 4681.00    1.39332   1.43851   66.584
 4682.00    1.40494   1.44029   65.346
 4683.00    1.43885   1.45241   63.986
 4684.00    1.46579   1.46815   63.606
 4685.00    1.47059   1.48054   63.786
 4686.00    1.46525   1.48609   63.940
 4687.00    1.46247   1.48544   64.173
 4688.00    1.46039   1.48152   64.162
 4689.00    1.45719   1.47720   64.355
 4690.00    1.45182   1.47414   64.704
 4691.00    1.44681   1.47342   64.455
 4692.00    1.45295   1.47671   63.575
 4693.00    1.47309   1.48528   62.425
 4694.00    1.49556   1.49730   61.258
 4695.00    1.51476   1.50744   60.939
 4696.00    1.52032   1.50926   61.868
 4697.00    1.49757   1.49873   63.752
 4698.00    1.45543   1.47737   65.205
 4699.00    1.42810   1.45197   65.391
 4700.00    1.42575   1.42957   65.229
 4701.00    1.42221   1.41347   66.031
 4702.00    1.40426   1.40481   66.894
 4703.00    1.39120   1.40497   66.541
 4704.00    1.40830   1.41344   65.332
 4705.00    1.43575   1.42457   65.139
 4706.00    1.43241   1.43022   66.286
 4707.00    1.40824   1.42759   67.354
 4708.00    1.39044   1.42277   67.566
 4709.00    1.38703   1.42481   66.494
 4710.00    1.40908   1.43691   64.527
 4711.00    1.45168   1.45390   63.228
 4712.00    1.48230   1.46715   63.145
 4713.00    1.47419   1.47191   64.038
 4714.00    1.44474   1.47196   64.782
 4715.00    1.44219   1.47660   64.202
 4716.00    1.47419   1.49209   62.895
 4717.00    1.50526   1.51632   62.025
 4718.00    1.51453   1.54150   61.740
 4719.00    1.51424   1.56056   61.529
 4720.00    1.51999   1.57071   -1.000
 4721.00    1.51331   1.57326   -1.000
 4722.00    1.50094   1.57212   -1.000
 4723.00    1.50688   1.57101   -1.000
 4724.00    1.52168   1.56939   61.351
 4725.00    1.51775   1.56108   62.042
 4726.00    1.49118   1.53941   63.954
 4727.00    1.44524   1.50497   -1.000
 4728.00    1.41032   1.46815   -1.000
 4729.00    1.40421   1.44257   66.264
 4730.00    1.41228   1.43547   65.635
 4731.00    1.42508   1.44461   65.011
 4732.00    1.43804   1.46237   64.306
 4733.00    1.45520   1.48067   63.836
 4734.00    1.47140   1.49385   63.483
 4735.00    1.48228   1.50042   63.553
 4736.00    1.47183   1.50321   64.032
 4737.00    1.46183   1.50680   63.711
 4738.00    1.48133   1.51362   63.201
 4739.00    1.49432   1.52210   63.403
 4740.00    1.48470   1.52870   63.668
 4741.00    1.47933   1.53226   -1.000
 4742.00    1.48434   1.53499   -1.000
 4743.00    1.49335   1.53910   62.525
 4744.00    1.50267   1.54475   62.655
 4745.00    1.50624   1.55144   62.490
 4746.00    1.51087   1.55931   -1.000
 4747.00    1.52068   1.56841   61.503
 4748.00    1.52616   1.57779   -1.000
 4749.00    1.52729   1.58559   -1.000
 4750.00    1.52194   1.58943   -1.000
 4751.00    1.51525   1.58669   -1.000
 4752.00    1.50539   1.57602   -1.000
 4753.00    1.48703   1.55968   -1.000
 4754.00    1.47542   1.54339   -1.000
 4755.00    1.46995   1.53299   -1.000
 4756.00    1.46333   1.53115   -1.000
 4757.00    1.46085   1.53684   -1.000
 4758.00    1.46588   1.54674   -1.000
 4759.00    1.47999   1.55579   -1.000
 4760.00    1.48828   1.55744   -1.000
 4761.00    1.47056   1.54649   -1.000
 4762.00    1.43600   1.52332   -1.000
 4763.00    1.41152   1.49474   -1.000
 4764.00    1.40431   1.46956   -1.000
 4765.00    1.40344   1.45373   -1.000
 4766.00    1.41236   1.45043   66.301
 4767.00    1.43877   1.46191   65.118
 4768.00    1.46894   1.48687   63.855
 4769.00    1.49385   1.51688   63.399
 4770.00    1.50307   1.54016   63.721
 4771.00    1.49107   1.55121   -1.000
 4772.00    1.47524   1.55525   -1.000
 4773.00    1.48670   1.56196   -1.000
 4774.00    1.51851   1.57576   -1.000
 4775.00    1.53086   1.59281   -1.000
 4776.00    1.53088   1.60639   -1.000
 4777.00    1.52887   1.61295   -1.000
 4778.00    1.51871   1.61260   -1.000
 4779.00    1.50816   1.60671   -1.000
 4780.00    1.49877   1.59655   -1.000
 4781.00    1.49662   1.58318   -1.000
 4782.00    1.49168   1.56776   -1.000
 4783.00    1.47630   1.55244   -1.000
 4784.00    1.47505   1.53988   -1.000
 4785.00    1.47461   1.53114   -1.000
 4786.00    1.46133   1.52535   -1.000
 4787.00    1.45313   1.52179   -1.000
 4788.00    1.45290   1.52093   -1.000
 4789.00    1.45526   1.52407   -1.000
 4790.00    1.46175   1.53293   -1.000
 4791.00    1.47160   1.54951   -1.000
 4792.00    1.49348   1.57449   -1.000
 4793.00    1.51977   1.60536   -1.000
 4794.00    1.54546   1.63557   -1.000
 4795.00    1.56369   1.65635   -1.000
 4796.00    1.55950   1.66050   -1.000
 4797.00    1.53367   1.64700   -1.000
 4798.00    1.49973   1.62287   -1.000
 4799.00    1.47588   1.60015   -1.000
 4800.00    1.47958   1.58980   -1.000
 4801.00    1.50880   1.59578   -1.000
 4802.00    1.53546   1.61206   -1.000
 4803.00    1.53898   1.62606   -1.000
 4804.00    1.52502   1.62779   -1.000
 4805.00    1.50620   1.61662   -1.000
 4806.00    1.49001   1.59960   -1.000
 4807.00    1.48599   1.58499   -1.000
 4808.00    1.49088   1.57818   -1.000
 4809.00    1.49828   1.58080   -1.000
 4810.00    1.50981   1.59049   -1.000
 4811.00    1.51722   1.60213   -1.000
 4812.00    1.52336   1.61154   -1.000
 4813.00    1.53396   1.61821   -1.000
 4814.00    1.53888   1.62465   -1.000
 4815.00    1.53998   1.63352   -1.000
 4816.00    1.54823   1.64533   -1.000
 4817.00    1.56021   1.65820   -1.000
 4818.00    1.56835   1.66921   -1.000
 4819.00    1.57222   1.67544   -1.000
 4820.00    1.57381   1.67359   -1.000
 4821.00    1.56096   1.66036   -1.000
 4822.00    1.53170   1.63585   -1.000
 4823.00    1.49733   1.60718   -1.000
 4824.00    1.48676   1.58647   -1.000
 4825.00    1.50922   1.58218   -1.000
 4826.00    1.53984   1.59142   -1.000
 4827.00    1.54457   1.60276   -1.000
 4828.00    1.52403   1.60703   -1.000
 4829.00    1.50765   1.60318   -1.000
 4830.00    1.50596   1.59454   -1.000
 4831.00    1.49744   1.58431   -1.000
 4832.00    1.49846   1.57633   -1.000
 4833.00    1.51108   1.57548   -1.000
 4834.00    1.52722   1.58359   -1.000
 4835.00    1.53909   1.59640   -1.000
 4836.00    1.54418   1.60612   -1.000
 4837.00    1.53501   1.60680   -1.000
 4838.00    1.51591   1.59734   -1.000
 4839.00    1.49221   1.58143   -1.000
 4840.00    1.47882   1.56548   -1.000
 4841.00    1.47923   1.55505   -1.000
 4842.00    1.49093   1.55225   -1.000
 4843.00    1.50109   1.55655   -1.000
 4844.00    1.51626   1.56702   -1.000
 4845.00    1.53865   1.58139   61.602
 4846.00    1.54833   1.59371   -1.000
 4847.00    1.53634   1.59729   -1.000
 4848.00    1.50489   1.59175   -1.000
 4849.00    1.49419   1.58418   -1.000
 4850.00    1.50801   1.58115   -1.000
 4851.00    1.52289   1.58138   -1.000
 4852.00    1.52758   1.57693   -1.000
 4853.00    1.50912   1.56032   -1.000
 4854.00    1.47383   1.53103   -1.000
 4855.00    1.43718   1.49664   -1.000
 4856.00    1.42095   1.46668   -1.000
 4857.00    1.42645   1.44166   67.142
 4858.00    1.40752   1.40841   70.641
 4859.00    1.32473   1.35221   77.780
 4860.00    1.19734   1.27732   -1.000
 4861.00    1.10783   1.21255   -1.000
 4862.00    1.12705   1.19098   -1.000
 4863.00    1.22795   1.22286   72.291
 4864.00    1.32550   1.29002   68.807
 4865.00    1.38330   1.36429   66.828
 4866.00    1.42028   1.42628   65.776
 4867.00    1.44348   1.46887   65.330
 4868.00    1.45289   1.49049   65.410
 4869.00    1.45096   1.49006   66.530
 4870.00    1.41852   1.46963   -1.000
 4871.00    1.37599   1.44052   -1.000
 4872.00    1.36974   1.42198   -1.000
 4873.00    1.39920   1.42815   66.179
 4874.00    1.43206   1.45641   65.318
 4875.00    1.44778   1.49134   64.891
 4876.00    1.45728   1.52002   -1.000
 4877.00    1.46471   1.54114   -1.000
 4878.00    1.48158   1.55990   -1.000
 4879.00    1.50497   1.57794   -1.000
 4880.00    1.50892   1.59041   -1.000
 4881.00    1.48901   1.59222   -1.000
 4882.00    1.47110   1.58419   -1.000
 4883.00    1.46786   1.57070   -1.000
 4884.00    1.46618   1.55388   -1.000
 4885.00    1.45106   1.53430   -1.000
 4886.00    1.43806   1.51520   -1.000
 4887.00    1.43866   1.50076   -1.000
 4888.00    1.44455   1.48997   -1.000
 4889.00    1.43537   1.47712   67.526
 4890.00    1.40780   1.46173   -1.000
 4891.00    1.39722   1.45537   -1.000
 4892.00    1.43558   1.47457   63.830
 4893.00    1.51208   1.52479   61.302
 4894.00    1.57947   1.59244   59.796
 4895.00    1.61196   1.65421   59.035
 4896.00    1.62431   1.69345   -1.000
 4897.00    1.62125   1.70718   -1.000
 4898.00    1.60196   1.70146   -1.000
 4899.00    1.56991   1.68494   -1.000
 4900.00    1.54136   1.66550   -1.000
 4901.00    1.53663   1.64808   -1.000
 4902.00    1.53986   1.63407   -1.000
 4903.00    1.53223   1.62473   -1.000
 4904.00    1.53626   1.62419   -1.000
 4905.00    1.56094   1.63488   -1.000
 4906.00    1.58174   1.65012   -1.000
 4907.00    1.58086   1.65591   -1.000
 4908.00    1.55007   1.64233   -1.000
 4909.00    1.50319   1.61269   -1.000
 4910.00    1.47445   1.58173   -1.000
 4911.00    1.47705   1.56555   -1.000
 4912.00    1.49713   1.57134   -1.000
 4913.00    1.52576   1.59457   -1.000
 4914.00    1.55752   1.62336   -1.000
 4915.00    1.58134   1.64365   -1.000
 4916.00    1.58043   1.64161   -1.000
 4917.00    1.54058   1.60781   -1.000
 4918.00    1.47381   1.54479   -1.000
 4919.00    1.40168   1.47192   -1.000
 4920.00    1.36342   1.41760   -1.000
 4921.00    1.38426   1.40175   67.444
 4922.00    1.43069   1.42303   65.592
 4923.00    1.46915   1.46310   65.028
 4924.00    1.48268   1.50351   64.665
 4925.00    1.49299   1.53869   63.454
 4926.00    1.52051   1.57302   -1.000
 4927.00    1.54888   1.60999   -1.000
 4928.00    1.57383   1.64672   -1.000
 4929.00    1.59442   1.67628   -1.000
 4930.00    1.60438   1.69154   -1.000
 4931.00    1.60106   1.68759   -1.000
 4932.00    1.56808   1.66482   -1.000
 4933.00    1.52300   1.63182   -1.000
 4934.00    1.50162   1.60194   -1.000
 4935.00    1.51061   1.58278   -1.000
 4936.00    1.51831   1.56895   -1.000
 4937.00    1.49312   1.55012   -1.000
 4938.00    1.45422   1.52713   -1.000
 4939.00    1.44332   1.51529   -1.000
 4940.00    1.48633   1.52981   63.417
 4941.00    1.54675   1.56956   61.746
 4942.00    1.58698   1.61775   60.863
 4943.00    1.60719   1.65585   60.567
 4944.00    1.61304   1.67526   -1.000
 4945.00    1.60105   1.67909   -1.000
 4946.00    1.58156   1.67735   -1.000
 4947.00    1.58763   1.67973   -1.000
 4948.00    1.61250   1.68951   -1.000
 4949.00    1.62608   1.70271   -1.000
 4950.00    1.63204   1.71279   -1.000
 4951.00    1.63094   1.71550   -1.000
 4952.00    1.61493   1.70982   -1.000
 4953.00    1.59990   1.69557   -1.000
 4954.00    1.59325   1.66980   -1.000
 4955.00    1.57089   1.62725   -1.000
 4956.00    1.51144   1.56869   -1.000
 4957.00    1.44103   1.51108   -1.000
 4958.00    1.43432   1.48222   -1.000
 4959.00    1.50473   1.49864   62.976
 4960.00    1.57962   1.54908   61.538
 4961.00    1.60928   1.60440   61.412
 4962.00    1.60238   1.64063   61.800
 4963.00    1.59302   1.65038   -1.000
 4964.00    1.57770   1.63833   -1.000
 4965.00    1.54859   1.61406   -1.000
 4966.00    1.52295   1.58826   -1.000
 4967.00    1.51588   1.56972   -1.000
 4968.00    1.51908   1.56276   -1.000
 4969.00    1.52528   1.56747   -1.000
 4970.00    1.53634   1.58151   -1.000
 4971.00    1.55312   1.60188   -1.000
 4972.00    1.57866   1.62472   -1.000
 4973.00    1.59841   1.64534   -1.000
 4974.00    1.60649   1.65904   -1.000
 4975.00    1.60011   1.66265   -1.000
 4976.00    1.58687   1.65519   -1.000
 4977.00    1.55915   1.63814   -1.000
 4978.00    1.53510   1.61464   -1.000
 4979.00    1.51736   1.58717   -1.000
 4980.00    1.49926   1.55477   -1.000
 4981.00    1.46440   1.51472   -1.000
 4982.00    1.41712   1.47024   -1.000
 4983.00    1.39466   1.43427   -1.000
 4984.00    1.41118   1.42264   68.292
 4985.00    1.44770   1.44197   66.253
 4986.00    1.49471   1.48426   64.336
 4987.00    1.53703   1.53207   63.439
 4988.00    1.55202   1.56819   63.892
 4989.00    1.54274   1.58432   64.736
 4990.00    1.52660   1.58403   -1.000
 4991.00    1.52130   1.57810   -1.000
 4992.00    1.53342   1.57572   64.426
 4993.00    1.54584   1.57943   64.262
 4994.00    1.54355   1.58693   64.109
 4995.00    1.54621   1.59528   -1.000
 4996.00    1.55444   1.60125   -1.000
 4997.00    1.54993   1.59978   -1.000
 4998.00    1.53560   1.58588   -1.000
 4999.00    1.50919   1.55971   -1.000
 5000.00    1.48316   1.52876   -1.000
 5001.00    1.48203   1.50364   66.771
 5002.00    1.49727   1.48994   66.205
 5003.00    1.50738   1.48356   66.350
 5004.00    1.49875   1.47503   67.640
 5005.00    1.46941   1.46001   68.822
 5006.00    1.44442   1.44640   68.300
 5007.00    1.45765   1.44791   66.411
 5008.00    1.50308   1.46928   64.931
 5009.00    1.53360   1.49901   64.906
 5010.00    1.52860   1.51720   66.244
 5011.00    1.49659   1.51069   68.468
 5012.00    1.45159   1.48161   70.651
 5013.00    1.40640   1.44530   -1.000
 5014.00    1.38939   1.41943   70.533
 5015.00    1.40960   1.41246   68.982
 5016.00    1.44517   1.42052   68.025
 5017.00    1.45860   1.43435   67.887
 5018.00    1.45886   1.44838   67.572
 5019.00    1.47589   1.46188   66.879
 5020.00    1.49754   1.47410   66.691
 5021.00    1.49814   1.48308   66.941
 5022.00    1.48816   1.48929   66.861
 5023.00    1.49267   1.49752   66.329
 5024.00    1.51172   1.51115   65.729
 5025.00    1.52660   1.52604   65.610
 5026.00    1.52297   1.53454   65.940
 5027.00    1.51163   1.53530   65.866
 5028.00    1.51449   1.53575   64.971
 5029.00    1.53769   1.54508   63.860
 5030.00    1.56272   1.56621   62.900
 5031.00    1.58355   1.59450   62.000
 5032.00    1.60186   1.62082   61.636
 5033.00    1.60961   1.63439   62.534
 5034.00    1.58490   1.62716   64.787
 5035.00    1.53055   1.60033   -1.000
 5036.00    1.48731   1.56451   -1.000
 5037.00    1.47593   1.53033   -1.000
 5038.00    1.46992   1.49810   69.546
 5039.00    1.43294   1.46116   72.373
 5040.00    1.37602   1.42168   -1.000
 5041.00    1.34978   1.39705   -1.000
 5042.00    1.39072   1.40752   68.481
 5043.00    1.47827   1.45705   64.849
 5044.00    1.55640   1.52821   62.780
 5045.00    1.61795   1.59394   61.009
 5046.00    1.57809   1.63289   -1.000
 5047.00    1.24293   1.63717   -1.000
 5048.00    0.68237   1.61255   -1.000
 5049.00    0.34361   1.57420   -1.000
 5050.00    0.81270   1.54019   -1.000
 5051.00    1.49213   1.52363   65.866
 5052.00    1.53488   1.52880   64.279
 5053.00    1.55954   1.55181   62.845
 5054.00    1.59952   1.58302   61.943
 5055.00    1.62627   1.61241   61.531
 5056.00    1.63396   1.63455   61.474
 5057.00    1.63476   1.64966   61.594
 5058.00    1.63035   1.66137   61.649
 5059.00    1.62551   1.67266   -1.000
 5060.00    1.62896   1.68324   -1.000
 5061.00    1.63714   1.68873   -1.000
 5062.00    1.63366   1.68153   -1.000
 5063.00    1.59766   1.65634   -1.000
 5064.00    1.54523   1.61755   -1.000
 5065.00    1.50880   1.57873   -1.000
 5066.00    1.51220   1.55346   -1.000
 5067.00    1.53310   1.54575   65.011
 5068.00    1.54456   1.55065   64.778
 5069.00    1.55800   1.56065   64.416
 5070.00    1.57388   1.56935   64.392
 5071.00    1.56990   1.57244   64.932
 5072.00    1.55307   1.57011   64.877
 5073.00    1.55243   1.56723   64.173
 5074.00    1.56798   1.56831   63.857
 5075.00    1.57706   1.57274   63.796
 5076.00    1.57442   1.57426   64.034
 5077.00    1.56436   1.56462   65.357
 5078.00    1.53122   1.53873   68.038
 5079.00    1.47010   1.50170   70.261
 5080.00    1.43468   1.46833   70.014
 5081.00    1.44968   1.45269   68.476
 5082.00    1.47937   1.45856   67.248
 5083.00    1.50286   1.47981   66.196
 5084.00    1.53236   1.50823   64.985
 5085.00    1.56425   1.53820   64.155
 5086.00    1.58160   1.56542   63.872
 5087.00    1.59053   1.58666   63.691
 5088.00    1.59685   1.60119   63.303
 5089.00    1.60021   1.61133   62.888
 5090.00    1.60274   1.62093   62.553
 5091.00    1.61064   1.63290   62.056
 5092.00    1.62726   1.64701   61.397
 5093.00    1.64318   1.65840   61.328
 5094.00    1.65288   1.65890   62.228
 5095.00    1.62996   1.64205   63.569
 5096.00    1.58151   1.60870   65.017
 5097.00    1.54267   1.56724   66.509
 5098.00    1.50741   1.53083   67.388
 5099.00    1.49382   1.51233   66.749
 5100.00    1.52082   1.51799   64.931
 5101.00    1.56806   1.54221   63.612
 5102.00    1.59612   1.57003   63.491
 5103.00    1.59040   1.58731   64.089
 5104.00    1.57176   1.58874   64.933
 5105.00    1.55689   1.57720   65.742
 5106.00    1.54232   1.55859   66.557
 5107.00    1.52283   1.53856   66.986
 5108.00    1.51517   1.52253   66.716
 5109.00    1.51805   1.51572   66.257
 5110.00    1.52770   1.52140   65.570
 5111.00    1.54788   1.53903   64.674
 5112.00    1.57535   1.56360   63.888
 5113.00    1.59587   1.58899   63.197
 5114.00    1.60526   1.61173   62.734
 5115.00    1.61611   1.63161   62.260
 5116.00    1.63312   1.64909   61.652
 5117.00    1.65004   1.66263   61.444
 5118.00    1.65547   1.66850   61.916
 5119.00    1.64291   1.66281   62.798
 5120.00    1.61669   1.64454   63.788
 5121.00    1.58445   1.61565   65.100
 5122.00    1.55279   1.58034   66.922
 5123.00    1.51943   1.54432   68.276
 5124.00    1.49384   1.51465   68.232
 5125.00    1.49226   1.49703   67.716
 5126.00    1.50647   1.49211   67.361
 5127.00    1.51405   1.49511   67.174
 5128.00    1.51117   1.50093   67.217
 5129.00    1.51096   1.50822   66.791
 5130.00    1.52261   1.51901   65.776
 5131.00    1.54349   1.53468   64.905
 5132.00    1.56325   1.55330   64.354
 5133.00    1.58291   1.57140   63.757
 5134.00    1.59998   1.58571   63.371
 5135.00    1.60685   1.59275   63.787
 5136.00    1.59904   1.58833   65.154
 5137.00    1.56559   1.57152   66.517
 5138.00    1.52392   1.54804   67.136
 5139.00    1.50368   1.52754   66.893
 5140.00    1.51288   1.51588   66.753
 5141.00    1.52224   1.51217   67.543
 5142.00    1.51360   1.51267   68.004
 5143.00    1.50903   1.51554   67.229
 5144.00    1.51936   1.51961   66.471
 5145.00    1.52738   1.52152   66.642
 5146.00    1.52583   1.51850   67.090
 5147.00    1.51852   1.51321   66.801
 5148.00    1.52463   1.51138   66.147
 5149.00    1.54014   1.51402   66.312
 5150.00    1.53680   1.51631   67.343
 5151.00    1.51782   1.51364   68.241
 5152.00    1.50158   1.50690   68.314
 5153.00    1.49966   1.50232   67.516
 5154.00    1.51664   1.50718   66.004
 5155.00    1.55024   1.52565   64.313
 5156.00    1.58964   1.55542   62.870
 5157.00    1.62240   1.58875   62.022
 5158.00    1.63866   1.61678   61.783
 5159.00    1.64396   1.63388   61.882
 5160.00    1.64433   1.63801   62.162
 5161.00    1.64184   1.62907   62.676
 5162.00    1.62812   1.60685   63.512
 5163.00    1.60306   1.57038   65.133
 5164.00    1.56351   1.51699   -1.000
 5165.00    1.47482   1.44257   75.357
 5166.00    1.34106   1.35287   82.113
 5167.00    1.23495   1.26946   -1.000
 5168.00    1.22330   1.21946   80.953
 5169.00    1.29048   1.20962   -1.000
 5170.00    1.33941   1.21699   -1.000
 5171.00    1.29414   1.21398   -1.000
 5172.00    1.20020   1.19928   86.521
 5173.00    1.19392   1.20075   79.929
 5174.00    1.31127   1.24461   -1.000
 5175.00    1.45391   1.32639   -1.000
 5176.00    1.54666   1.41638   -1.000
 5177.00    1.58455   1.48547   -1.000
 5178.00    1.59319   1.52094   -1.000
 5179.00    1.58698   1.52208   -1.000
 5180.00    1.55182   1.48811   -1.000
 5181.00    1.46329   1.41898   77.212
 5182.00    1.32781   1.32664   85.089
 5183.00    1.20209   1.24379   -1.000
 5184.00    1.18741   1.21005   79.734
 5185.00    1.30914   1.24355   -1.000
 5186.00    1.46144   1.32671   -1.000
 5187.00    1.54821   1.42042   -1.000
 5188.00    1.58023   1.49203   -1.000
 5189.00    1.59265   1.52911   -1.000
 5190.00    1.58254   1.53357   67.072
 5191.00    1.54016   1.51455   69.136
 5192.00    1.49350   1.48691   69.942
 5193.00    1.48593   1.46706   69.025
 5194.00    1.50534   1.46437   67.891
 5195.00    1.53242   1.47792   -1.000
 5196.00    1.55942   1.50179   -1.000
 5197.00    1.58728   1.53107   -1.000
 5198.00    1.61411   1.56178   -1.000
 5199.00    1.63100   1.58882   63.380
 5200.00    1.63609   1.60583   63.590
 5201.00    1.63021   1.60726   64.409
 5202.00    1.61445   1.59032   65.739
 5203.00    1.58586   1.55519   67.508
 5204.00    1.54182   1.50664   69.638
 5205.00    1.49875   1.45494   70.931
 5206.00    1.47596   1.41191   -1.000
 5207.00    1.46661   1.38564   -1.000
 5208.00    1.45844   1.37934   -1.000
 5209.00    1.46715   1.39443   -1.000
 5210.00    1.50423   1.43087   -1.000
 5211.00    1.56686   1.48430   -1.000
 5212.00    1.63237   1.54187   -1.000
 5213.00    1.66952   1.58613   -1.000
 5214.00    1.66192   1.60477   -1.000
 5215.00    1.63096   1.59974   64.388
 5216.00    1.60708   1.58680   64.546
 5217.00    1.60384   1.58417   63.570
 5218.00    1.63112   1.60034   62.353
 5219.00    1.66956   1.62975   61.634
 5220.00    1.69412   1.65934   61.279
 5221.00    1.70421   1.67620   61.508
 5222.00    1.68956   1.67194   62.829
 5223.00    1.64601   1.64322   65.093
 5224.00    1.58917   1.59220   67.974
 5225.00    1.52556   1.52902   70.598
 5226.00    1.47535   1.47391   70.919
 5227.00    1.47479   1.44944   68.147
 5228.00    1.53363   1.46693   -1.000
 5229.00    1.61043   1.51505   -1.000
 5230.00    1.66259   1.56658   -1.000
 5231.00    1.67018   1.59725   -1.000
 5232.00    1.64499   1.60052   -1.000
 5233.00    1.62010   1.58890   64.563
 5234.00    1.61400   1.58282   63.756
 5235.00    1.63101   1.59554   62.217
 5236.00    1.66988   1.62618   61.089
 5237.00    1.70369   1.66285   60.719
 5238.00    1.71958   1.69225   60.799
 5239.00    1.71945   1.70796   60.864
 5240.00    1.71856   1.71132   60.628
 5241.00    1.72112   1.70826   60.466
 5242.00    1.72320   1.70511   60.477
 5243.00    1.72547   1.70506   60.356
 5244.00    1.72552   1.70501   60.854
 5245.00    1.71359   1.69703   62.442
 5246.00    1.67107   1.67615   64.202
 5247.00    1.62708   1.64613   65.068
 5248.00    1.61559   1.61722   65.162
 5249.00    1.61749   1.59765   65.420
 5250.00    1.60761   1.58975   65.518
 5251.00    1.60508   1.59201   64.901
 5252.00    1.62396   1.60054   64.096
 5253.00    1.63914   1.61068   63.768
 5254.00    1.63906   1.62041   63.587
 5255.00    1.64778   1.63353   62.631
 5256.00    1.68050   1.65559   61.021
 5257.00    1.72497   1.68550   59.875
 5258.00    1.75365   1.71226   59.886
 5259.00    1.74837   1.72091   60.980
 5260.00    1.71310   1.70138   63.111
 5261.00    1.65179   1.65354   65.978
 5262.00    1.58033   1.58638   68.751
 5263.00    1.52152   1.51434   70.659
 5264.00    1.48012   1.45223   71.500
 5265.00    1.45979   1.41124   -1.000
 5266.00    1.47215   1.39362   -1.000
 5267.00    1.50617   1.38938   -1.000
 5268.00    1.50427   1.38392   -1.000
 5269.00    1.45653   1.37319   -1.000
 5270.00    1.44128   1.37114   -1.000
 5271.00    1.50589   1.39504   -1.000
 5272.00    1.59052   1.44431   -1.000
 5273.00    1.62794   1.49962   -1.000
 5274.00    1.62917   1.54376   -1.000
 5275.00    1.62829   1.57583   -1.000
 5276.00    1.65216   1.60710   61.880
 5277.00    1.70612   1.64419   -1.000
 5278.00    1.75318   1.67941   -1.000
 5279.00    1.76266   1.69786   -1.000
 5280.00    1.73091   1.69127   62.251
 5281.00    1.68107   1.66448   63.656
 5282.00    1.64503   1.63246   64.409
 5283.00    1.63054   1.61315   63.937
 5284.00    1.65009   1.61974   62.269
 5285.00    1.71112   1.65311   -1.000
 5286.00    1.77547   1.70067   -1.000
 5287.00    1.79570   1.74426   -1.000
 5288.00    1.78407   1.77275   59.234
 5289.00    1.78037   1.78670   59.053
 5290.00    1.79024   1.79214   58.796
 5291.00    1.79618   1.79288   58.898
 5292.00    1.79035   1.78894   59.361
 5293.00    1.77804   1.77850   60.036
 5294.00    1.76443   1.75866   61.225
 5295.00    1.72751   1.72587   63.243
 5296.00    1.66722   1.68048   65.371
 5297.00    1.61138   1.63302   66.088
 5298.00    1.59145   1.60056   64.993
 5299.00    1.61897   1.59410   63.503
 5300.00    1.65965   1.61088   -1.000
 5301.00    1.68426   1.63967   62.158
 5302.00    1.70418   1.67235   60.946
 5303.00    1.74018   1.70716   59.510
 5304.00    1.78535   1.74151   58.876
 5305.00    1.80582   1.76862   59.097
 5306.00    1.78966   1.78291   59.675
 5307.00    1.77420   1.78628   59.765
 5308.00    1.78432   1.78735   59.226
 5309.00    1.80309   1.79273   58.710
 5310.00    1.81684   1.80131   58.547
 5311.00    1.81654   1.80710   58.749
 5312.00    1.80813   1.80521   59.055
 5313.00    1.79999   1.79493   59.387
 5314.00    1.79145   1.77892   59.900
 5315.00    1.77505   1.76073   60.472
 5316.00    1.75217   1.74477   60.764
 5317.00    1.74821   1.73562   60.542
 5318.00    1.76104   1.73495   60.163
 5319.00    1.77403   1.73954   60.138
 5320.00    1.77985   1.74247   60.474
 5321.00    1.76797   1.73731   61.041
 5322.00    1.74993   1.72055   61.937
 5323.00    1.72662   1.69370   62.801
 5324.00    1.70322   1.66124   63.076
 5325.00    1.68896   1.62466   -1.000
 5326.00    1.65942   1.58088   -1.000
 5327.00    1.58629   1.53113   -1.000
 5328.00    1.51482   1.49072   69.951
 5329.00    1.53177   1.48238   -1.000
 5330.00    1.61785   1.51568   -1.000
 5331.00    1.69055   1.57552   -1.000
 5332.00    1.72102   1.63659   -1.000
 5333.00    1.73374   1.68355   -1.000
 5334.00    1.75508   1.71568   60.150
 5335.00    1.77827   1.73724   60.212
 5336.00    1.77944   1.74799   60.628
 5337.00    1.76494   1.74435   61.146
 5338.00    1.74475   1.72441   62.237
 5339.00    1.71118   1.69245   63.630
 5340.00    1.67601   1.66049   63.949
 5341.00    1.67376   1.64361   62.778
 5342.00    1.71151   1.64928   -1.000
 5343.00    1.74803   1.67039   -1.000
 5344.00    1.75516   1.69156   -1.000
 5345.00    1.75089   1.70105   -1.000
 5346.00    1.74879   1.69718   -1.000
 5347.00    1.74472   1.68614   -1.000
 5348.00    1.72944   1.67597   -1.000
 5349.00    1.71534   1.67418   62.135
 5350.00    1.72875   1.68562   60.895
 5351.00    1.75932   1.70965   -1.000
 5352.00    1.78064   1.74022   59.318
 5353.00    1.79195   1.76995   59.019
 5354.00    1.80929   1.79576   58.401
 5355.00    1.83351   1.81730   57.788
 5356.00    1.84859   1.83394   57.597
 5357.00    1.85080   1.84416   57.687
 5358.00    1.85538   1.84648   57.834
 5359.00    1.85140   1.84066   58.271
 5360.00    1.83432   1.82707   59.116
 5361.00    1.81111   1.80704   60.063
 5362.00    1.78084   1.78328   60.721
 5363.00    1.75370   1.75899   61.093
 5364.00    1.74239   1.73719   61.452
 5365.00    1.73329   1.72000   61.557
 5366.00    1.73391   1.70764   61.431
 5367.00    1.74554   1.69646   -1.000
 5368.00    1.73667   1.67896   -1.000
 5369.00    1.70305   1.65031   -1.000
 5370.00    1.66060   1.61623   -1.000
 5371.00    1.63739   1.59327   64.597
 5372.00    1.66577   1.59836   -1.000
 5373.00    1.73642   1.63491   -1.000
 5374.00    1.80253   1.68878   -1.000
 5375.00    1.82997   1.73869   -1.000
 5376.00    1.83324   1.77079   -1.000
 5377.00    1.82832   1.78449   58.760
 5378.00    1.82290   1.78672   58.988
 5379.00    1.81196   1.78335   59.456
 5380.00    1.79599   1.77591   60.055
 5381.00    1.78442   1.76469   60.505
 5382.00    1.77250   1.75252   60.626
 5383.00    1.77020   1.74453   60.453
 5384.00    1.78264   1.74494   59.981
 5385.00    1.80293   1.75331   -1.000
 5386.00    1.81528   1.76338   -1.000
 5387.00    1.80828   1.76695   60.098
 5388.00    1.79131   1.75898   60.857
 5389.00    1.76828   1.74034   61.688
 5390.00    1.74829   1.71699   62.167
 5391.00    1.73649   1.69589   62.307
 5392.00    1.73003   1.68085   -1.000
 5393.00    1.72701   1.67128   -1.000
 5394.00    1.72388   1.66248   -1.000
 5395.00    1.71173   1.64919   -1.000
 5396.00    1.67829   1.63180   -1.000
 5397.00    1.65510   1.61821   64.197
 5398.00    1.68025   1.61916   -1.000
 5399.00    1.73006   1.63743   -1.000
 5400.00    1.75872   1.66425   -1.000
 5401.00    1.75669   1.68523   -1.000
 5402.00    1.74544   1.68741   -1.000
 5403.00    1.71639   1.66579   -1.000
 5404.00    1.66544   1.62665   66.145
 5405.00    1.62629   1.58675   66.256
 5406.00    1.63008   1.56425   -1.000
 5407.00    1.66532   1.56547   -1.000
 5408.00    1.68807   1.58180   -1.000
 5409.00    1.68182   1.60057   -1.000
 5410.00    1.68229   1.61866   -1.000
 5411.00    1.71629   1.64134   -1.000
 5412.00    1.76487   1.67110   -1.000
 5413.00    1.78918   1.70259   -1.000
 5414.00    1.78890   1.72834   -1.000
 5415.00    1.78918   1.74722   60.195
 5416.00    1.80006   1.76235   59.752
 5417.00    1.81198   1.77466   59.680
 5418.00    1.81100   1.78125   60.126
 5419.00    1.79601   1.77958   60.626
 5420.00    1.78382   1.77142   60.680
 5421.00    1.78840   1.76096   60.406
 5422.00    1.79501   1.75048   -1.000
 5423.00    1.78107   1.74111   -1.000
 5424.00    1.75805   1.73636   61.406
 5425.00    1.75901   1.74045   60.502
 5426.00    1.78790   1.75111   60.050
 5427.00    1.80471   1.75587   -1.000
 5428.00    1.77556   1.74272   62.910
 5429.00    1.72398   1.71353   64.015
 5430.00    1.70132   1.68366   63.408
 5431.00    1.72022   1.66674   -1.000
 5432.00    1.73793   1.66165   -1.000
 5433.00    1.72454   1.65830   -1.000
 5434.00    1.69936   1.65247   -1.000
 5435.00    1.69106   1.65123   63.551
 5436.00    1.71145   1.66572   -1.000
 5437.00    1.75448   1.69920   -1.000
 5438.00    1.80416   1.74383   -1.000
 5439.00    1.83466   1.78695   -1.000
 5440.00    1.85318   1.81911   58.499
 5441.00    1.86547   1.83710   58.465
 5442.00    1.86038   1.84034   58.768
 5443.00    1.84409   1.82713   59.881
 5444.00    1.80467   1.79504   61.955
 5445.00    1.74002   1.74741   64.320
 5446.00    1.68230   1.69818   65.142
 5447.00    1.67387   1.66663   63.726
 5448.00    1.72056   1.66562   -1.000
 5449.00    1.78195   1.69086   -1.000
 5450.00    1.81360   1.72425   -1.000
 5451.00    1.81852   1.74704   -1.000
 5452.00    1.81174   1.74855   -1.000
 5453.00    1.78932   1.72837   -1.000
 5454.00    1.73952   1.69518   64.890
 5455.00    1.69064   1.66473   65.114
 5456.00    1.69909   1.65457   63.394
 5457.00    1.75847   1.67209   -1.000
 5458.00    1.81348   1.70725   -1.000
 5459.00    1.83195   1.73950   -1.000
 5460.00    1.81237   1.75205   -1.000
 5461.00    1.77494   1.74237   62.612
 5462.00    1.75494   1.72130   63.193
 5463.00    1.74835   1.70400   62.954
 5464.00    1.75961   1.70020   -1.000
 5465.00    1.78571   1.71027   -1.000
 5466.00    1.80195   1.72761   -1.000
 5467.00    1.80680   1.74424   -1.000
 5468.00    1.81564   1.75499   -1.000
 5469.00    1.81423   1.75775   -1.000
 5470.00    1.79852   1.75315   -1.000
 5471.00    1.79243   1.74345   -1.000
 5472.00    1.78488   1.73041   -1.000
 5473.00    1.76733   1.71368   -1.000
 5474.00    1.74732   1.69160   -1.000
 5475.00    1.71864   1.66496   -1.000
 5476.00    1.68553   1.64084   -1.000
 5477.00    1.67635   1.63039   -1.000
 5478.00    1.71549   1.63868   -1.000
 5479.00    1.76432   1.65827   -1.000
 5480.00    1.76716   1.67560   -1.000
 5481.00    1.73942   1.68422   -1.000
 5482.00    1.73219   1.69024   62.999
 5483.00    1.75380   1.70355   -1.000
 5484.00    1.78484   1.72515   -1.000
 5485.00    1.80725   1.74560   -1.000
 5486.00    1.80578   1.75409   -1.000
 5487.00    1.78473   1.74892   62.337
 5488.00    1.76748   1.73831   62.495
 5489.00    1.76811   1.73246   62.264
 5490.00    1.78441   1.73519   -1.000
 5491.00    1.79937   1.74280   -1.000
 5492.00    1.80493   1.74961   -1.000
 5493.00    1.80670   1.75243   -1.000
 5494.00    1.80923   1.75179   -1.000
 5495.00    1.81163   1.74877   -1.000
 5496.00    1.79863   1.74424   -1.000
 5497.00    1.78509   1.74036   62.257
 5498.00    1.79686   1.73932   -1.000
 5499.00    1.81684   1.74009   -1.000
 5500.00    1.81226   1.73795   -1.000
 5501.00    1.78743   1.72933   -1.000
 5502.00    1.77367   1.71707   -1.000
 5503.00    1.78094   1.70676   -1.000
 5504.00    1.79203   1.70021   -1.000
 5505.00    1.77995   1.69540   -1.000
 5506.00    1.75567   1.69106   -1.000
 5507.00    1.75668   1.69082   -1.000
 5508.00    1.78465   1.69751   -1.000
 5509.00    1.80256   1.70707   -1.000
 5510.00    1.79340   1.71066   -1.000
 5511.00    1.76814   1.70223   -1.000
 5512.00    1.73934   1.68484   -1.000
 5513.00    1.71898   1.66850   -1.000
 5514.00    1.72509   1.66289   -1.000
 5515.00    1.75440   1.67138   -1.000
 5516.00    1.78530   1.69188   -1.000
 5517.00    1.81652   1.71932   -1.000
 5518.00    1.84564   1.74794   -1.000
 5519.00    1.85823   1.77225   -1.000
 5520.00    1.85666   1.78809   -1.000
 5521.00    1.85316   1.79497   -1.000
 5522.00    1.84860   1.79539   -1.000
 5523.00    1.84164   1.79130   -1.000
 5524.00    1.83530   1.78163   -1.000
 5525.00    1.81890   1.76306   -1.000
 5526.00    1.78317   1.73495   -1.000
 5527.00    1.73966   1.70355   65.035
 5528.00    1.71420   1.68135   64.431
 5529.00    1.73225   1.67923   -1.000
 5530.00    1.77908   1.69734   -1.000
 5531.00    1.80908   1.72425   -1.000
 5532.00    1.81166   1.74569   -1.000
 5533.00    1.80472   1.75413   -1.000
 5534.00    1.79834   1.75194   -1.000
 5535.00    1.79561   1.74659   -1.000
 5536.00    1.80048   1.74467   -1.000
 5537.00    1.81385   1.74877   -1.000
 5538.00    1.82413   1.75790   -1.000
 5539.00    1.83998   1.77002   -1.000
 5540.00    1.86355   1.78197   -1.000
 5541.00    1.86820   1.78953   -1.000
 5542.00    1.85141   1.78987   -1.000
 5543.00    1.83026   1.78376   -1.000
 5544.00    1.82055   1.77583   -1.000
 5545.00    1.82206   1.77165   -1.000
 5546.00    1.83164   1.77413   -1.000
 5547.00    1.84591   1.78349   -1.000
 5548.00    1.86739   1.79769   -1.000
 5549.00    1.88658   1.81226   -1.000
 5550.00    1.89325   1.82237   -1.000
 5551.00    1.88422   1.82448   -1.000
 5552.00    1.86593   1.81796   -1.000
 5553.00    1.84726   1.80618   61.216
 5554.00    1.83664   1.79432   61.292
 5555.00    1.83887   1.78660   -1.000
 5556.00    1.84508   1.78409   -1.000
 5557.00    1.84842   1.78492   -1.000
 5558.00    1.85012   1.78671   -1.000
 5559.00    1.84993   1.78750   -1.000
 5560.00    1.84885   1.78549   -1.000
 5561.00    1.84254   1.77938   -1.000
 5562.00    1.82934   1.76982   -1.000
 5563.00    1.81409   1.75940   -1.000
 5564.00    1.79850   1.75059   -1.000
 5565.00    1.79146   1.74403   -1.000
 5566.00    1.79146   1.73902   -1.000
 5567.00    1.79360   1.73519   -1.000
 5568.00    1.79746   1.73294   -1.000
 5569.00    1.79640   1.73263   -1.000
 5570.00    1.79598   1.73343   -1.000
 5571.00    1.80126   1.73364   -1.000
 5572.00    1.80034   1.73275   -1.000
 5573.00    1.78917   1.73292   -1.000
 5574.00    1.77894   1.73762   61.489
 5575.00    1.77221   1.74724   60.787
 5576.00    1.79894   1.75870   59.811
 5577.00    1.79440   1.76940   59.824
 5578.00    1.76276   1.77808   61.502
 5579.00    1.80994   1.78444   62.961
 5580.00    1.85159   1.78789   -1.000
 5581.00    1.85155   1.78731   -1.000
 5582.00    1.84044   1.78244   -1.000
 5583.00    1.83732   1.77317   -1.000
 5584.00    1.83052   1.75688   -1.000
 5585.00    1.80397   1.73039   -1.000
 5586.00    1.75956   1.69426   -1.000
 5587.00    1.71340   1.65621   -1.000
 5588.00    1.69077   1.62849   -1.000
 5589.00    1.70153   1.61977   -1.000
 5590.00    1.72958   1.63014   -1.000
 5591.00    1.75599   1.65143   -1.000
 5592.00    1.76806   1.67371   -1.000
 5593.00    1.76807   1.69194   -1.000
 5594.00    1.77057   1.70725   -1.000
 5595.00    1.79308   1.72181   -1.000
 5596.00    1.82375   1.73356   -1.000
 5597.00    1.82216   1.73632   -1.000
 5598.00    1.79043   1.72633   -1.000
 5599.00    1.76900   1.70704   -1.000
 5600.00    1.75768   1.68612   -1.000
 5601.00    1.74287   1.67118   -1.000
 5602.00    1.73589   1.66861   -1.000
 5603.00    1.75528   1.68273   -1.000
 5604.00    1.80000   1.71335   -1.000
 5605.00    1.84671   1.75347   -1.000
 5606.00    1.87665   1.79177   -1.000
 5607.00    1.88550   1.81944   -1.000
 5608.00    1.88732   1.83447   -1.000
 5609.00    1.89120   1.84061   -1.000
 5610.00    1.89113   1.84252   -1.000
 5611.00    1.89230   1.84085   -1.000
 5612.00    1.89066   1.83058   -1.000
 5613.00    1.86350   1.80514   -1.000
 5614.00    1.80535   1.76488   64.717
 5615.00    1.75513   1.72164   65.124
 5616.00    1.75308   1.69308   -1.000
 5617.00    1.78707   1.68938   -1.000
 5618.00    1.81794   1.70577   -1.000
 5619.00    1.83458   1.72949   -1.000
 5620.00    1.84501   1.74979   -1.000
 5621.00    1.85058   1.76150   -1.000
 5622.00    1.84717   1.76206   -1.000
 5623.00    1.82495   1.75117   -1.000
 5624.00    1.79462   1.73385   -1.000
 5625.00    1.78220   1.72086   -1.000
 5626.00    1.80319   1.72165   -1.000
 5627.00    1.83422   1.73713   -1.000
 5628.00    1.85990   1.76064   -1.000
 5629.00    1.87829   1.78355   -1.000
 5630.00    1.88674   1.80040   -1.000
 5631.00    1.89359   1.80929   -1.000
 5632.00    1.88843   1.81026   -1.000
 5633.00    1.87498   1.80422   -1.000
 5634.00    1.86247   1.79273   -1.000
 5635.00    1.84755   1.77820   -1.000
 5636.00    1.83440   1.76387   -1.000
 5637.00    1.82424   1.75282   -1.000
 5638.00    1.82708   1.74665   -1.000
 5639.00    1.82902   1.74426   -1.000
 5640.00    1.82392   1.74285   -1.000
 5641.00    1.81800   1.74110   -1.000
 5642.00    1.81854   1.74072   -1.000
 5643.00    1.83212   1.74382   -1.000
 5644.00    1.83915   1.75056   -1.000
 5645.00    1.84384   1.75915   -1.000
 5646.00    1.85038   1.76681   -1.000
 5647.00    1.85432   1.77167   -1.000
 5648.00    1.85898   1.77355   -1.000
 5649.00    1.85912   1.77392   -1.000
 5650.00    1.86050   1.77548   -1.000
 5651.00    1.87062   1.77929   -1.000
 5652.00    1.87836   1.78274   -1.000
 5653.00    1.87033   1.78177   -1.000
 5654.00    1.84796   1.77398   -1.000
 5655.00    1.83040   1.75948   -1.000
 5656.00    1.81122   1.73919   -1.000
 5657.00    1.76716   1.71493   -1.000
 5658.00    1.72634   1.69203   65.951
 5659.00    1.73119   1.67880   -1.000
 5660.00    1.77080   1.67955   -1.000
 5661.00    1.79908   1.69079   -1.000
 5662.00    1.79977   1.70599   -1.000
 5663.00    1.80359   1.72154   -1.000
 5664.00    1.82369   1.73697   -1.000
 5665.00    1.83908   1.75062   -1.000
 5666.00    1.83932   1.75888   -1.000
 5667.00    1.83040   1.76032   -1.000
 5668.00    1.82011   1.75836   -1.000
 5669.00    1.82037   1.75846   -1.000
 5670.00    1.83104   1.76417   -1.000
 5671.00    1.84751   1.77579   -1.000
 5672.00    1.86845   1.79080   -1.000
 5673.00    1.88406   1.80523   -1.000
 5674.00    1.89275   1.81584   -1.000
 5675.00    1.88799   1.82152   -1.000
 5676.00    1.88424   1.82356   -1.000
 5677.00    1.88943   1.82338   -1.000
 5678.00    1.89370   1.82043   -1.000
 5679.00    1.89009   1.81298   -1.000
 5680.00    1.87637   1.80005   -1.000
 5681.00    1.85829   1.78268   -1.000
 5682.00    1.83129   1.76477   -1.000
 5683.00    1.81155   1.75163   -1.000
 5684.00    1.81534   1.74614   -1.000
 5685.00    1.82517   1.74627   -1.000
 5686.00    1.82137   1.74700   -1.000
 5687.00    1.81141   1.74595   -1.000
 5688.00    1.80725   1.74590   -1.000
 5689.00    1.81628   1.75196   -1.000
 5690.00    1.83837   1.76615   -1.000
 5691.00    1.86336   1.78533   -1.000
 5692.00    1.88095   1.80364   -1.000
 5693.00    1.89023   1.81617   -1.000
 5694.00    1.88965   1.82148   -1.000
 5695.00    1.88394   1.82061   -1.000
 5696.00    1.87954   1.81500   -1.000
 5697.00    1.86997   1.80534   -1.000
 5698.00    1.85076   1.79193   -1.000
 5699.00    1.83034   1.77625   -1.000
 5700.00    1.81322   1.76101   -1.000
 5701.00    1.79900   1.74956   -1.000
 5702.00    1.79409   1.74476   -1.000
 5703.00    1.80328   1.74593   -1.000
 5704.00    1.81511   1.74848   -1.000
 5705.00    1.81090   1.74590   -1.000
 5706.00    1.78959   1.73409   -1.000
 5707.00    1.76445   1.71457   -1.000
 5708.00    1.73854   1.69277   -1.000
 5709.00    1.71813   1.67544   -1.000
 5710.00    1.71581   1.66860   -1.000
 5711.00    1.73161   1.67518   -1.000
 5712.00    1.77004   1.69504   -1.000
 5713.00    1.81969   1.72424   -1.000
 5714.00    1.85035   1.75561   -1.000
 5715.00    1.86245   1.78257   -1.000
 5716.00    1.86969   1.80184   -1.000
 5717.00    1.87318   1.81453   -1.000
 5718.00    1.87759   1.82417   -1.000
 5719.00    1.89056   1.83392   -1.000
 5720.00    1.90759   1.84491   -1.000
 5721.00    1.91762   1.85621   -1.000
 5722.00    1.92614   1.86578   -1.000
 5723.00    1.92668   1.87109   -1.000
 5724.00    1.91800   1.87008   -1.000
 5725.00    1.90375   1.86218   60.754
 5726.00    1.88319   1.84982   61.319
 5727.00    1.87198   1.83820   61.356
 5728.00    1.87425   1.83169   60.949
 5729.00    1.88089   1.83043   -1.000
 5730.00    1.87879   1.83112   -1.000
 5731.00    1.86972   1.83162   61.182
 5732.00    1.86950   1.83356   60.715
 5733.00    1.88419   1.83964   -1.000
 5734.00    1.90172   1.84887   -1.000
 5735.00    1.90601   1.85678   -1.000
 5736.00    1.90174   1.85974   -1.000
 5737.00    1.89743   1.85794   60.420
 5738.00    1.89461   1.85463   60.500
 5739.00    1.89200   1.85233   60.618
 5740.00    1.89344   1.85124   -1.000
 5741.00    1.89083   1.85050   60.720
 5742.00    1.88149   1.85021   60.601
 5743.00    1.89022   1.85189   60.342
 5744.00    1.90914   1.85585   -1.000
 5745.00    1.91145   1.85966   -1.000
 5746.00    1.89820   1.85958   60.490
 5747.00    1.88462   1.85474   60.908
 5748.00    1.87792   1.84881   60.792
 5749.00    1.87971   1.84544   60.489
 5750.00    1.89177   1.84337   -1.000
 5751.00    1.89207   1.83704   -1.000
 5752.00    1.86337   1.82341   -1.000
 5753.00    1.83353   1.80769   62.300
 5754.00    1.82808   1.80008   61.820
 5755.00    1.85025   1.80757   -1.000
 5756.00    1.88826   1.82735   -1.000
 5757.00    1.91606   1.84879   -1.000
 5758.00    1.92158   1.86070   -1.000
 5759.00    1.90711   1.85736   -1.000
 5760.00    1.88243   1.84098   -1.000
 5761.00    1.85867   1.81987   62.313
 5762.00    1.84373   1.80489   62.053
 5763.00    1.84896   1.80456   -1.000
 5764.00    1.87553   1.82015   -1.000
 5765.00    1.90259   1.84481   -1.000
 5766.00    1.91504   1.86831   -1.000
 5767.00    1.92123   1.88362   59.577
 5768.00    1.92335   1.88921   59.592
 5769.00    1.91750   1.88756   59.771
 5770.00    1.90461   1.88162   60.046
 5771.00    1.89070   1.87348   60.411
 5772.00    1.88524   1.86463   60.667
 5773.00    1.88009   1.85687   60.761
 5774.00    1.87327   1.85196   60.723
 5775.00    1.86830   1.85083   60.486
 5776.00    1.86374   1.85217   60.304
 5777.00    1.85253   1.85165   60.399
 5778.00    1.82678   1.84365   60.974
 5779.00    1.78956   1.82478   62.175
 5780.00    1.75750   1.79716   63.294
 5781.00    1.75097   1.76812   63.569
 5782.00    1.76669   1.74593   63.327
 5783.00    1.78359   1.73462   -1.000
 5784.00    1.79828   1.73340   -1.000
 5785.00    1.81328   1.74038   -1.000
 5786.00    1.82940   1.75469   -1.000
 5787.00    1.84880   1.77459   -1.000
 5788.00    1.87139   1.79526   -1.000
 5789.00    1.88485   1.81077   -1.000
 5790.00    1.87851   1.81895   -1.000
 5791.00    1.87207   1.82348   -1.000
 5792.00    1.87647   1.83043   -1.000
 5793.00    1.88564   1.84266   -1.000
 5794.00    1.89382   1.85713   59.696
 5795.00    1.89389   1.86770   59.890
 5796.00    1.88647   1.87038   60.286
 5797.00    1.88057   1.86741   60.309
 5798.00    1.88445   1.86590   59.717
 5799.00    1.90468   1.87191   58.897
 5800.00    1.93351   1.88509   -1.000
 5801.00    1.94615   1.89846   -1.000
 5802.00    1.93800   1.90419   59.200
 5803.00    1.92454   1.89918   59.667
 5804.00    1.91135   1.88685   60.039
 5805.00    1.89674   1.87421   60.073
 5806.00    1.89389   1.86694   59.863
 5807.00    1.90063   1.86673   59.660
 5808.00    1.90664   1.87163   59.580
 5809.00    1.91635   1.87852   59.558
 5810.00    1.92324   1.88486   59.405
 5811.00    1.93433   1.88850   -1.000
 5812.00    1.94108   1.88764   -1.000
 5813.00    1.93489   1.88121   -1.000
 5814.00    1.92616   1.87032   -1.000
 5815.00    1.91518   1.85895   -1.000
 5816.00    1.90943   1.85314   -1.000
 5817.00    1.91831   1.85726   -1.000
 5818.00    1.93798   1.87035   -1.000
 5819.00    1.95252   1.88626   -1.000
 5820.00    1.95615   1.89808   -1.000
 5821.00    1.95637   1.90281   -1.000
 5822.00    1.95520   1.90197   -1.000
 5823.00    1.95155   1.89929   -1.000
 5824.00    1.94989   1.89764   -1.000
 5825.00    1.95201   1.89803   -1.000
 5826.00    1.95547   1.90010   -1.000
 5827.00    1.95937   1.90301   -1.000
 5828.00    1.95809   1.90613   -1.000
 5829.00    1.95452   1.90878   -1.000
 5830.00    1.95614   1.91012   -1.000
 5831.00    1.95660   1.90933   -1.000
 5832.00    1.95507   1.90608   -1.000
 5833.00    1.95742   1.90085   -1.000
 5834.00    1.95248   1.89510   -1.000
 5835.00    1.94306   1.89076   -1.000
 5836.00    1.94348   1.88906   -1.000
 5837.00    1.95353   1.88982   -1.000
 5838.00    1.95676   1.89245   -1.000
 5839.00    1.95441   1.89702   -1.000
 5840.00    1.95780   1.90360   -1.000
 5841.00    1.96132   1.91086   -1.000
 5842.00    1.95914   1.91578   -1.000
 5843.00    1.95769   1.91559   -1.000
 5844.00    1.95687   1.90941   -1.000
 5845.00    1.94905   1.89854   -1.000
 5846.00    1.93483   1.88587   -1.000
 5847.00    1.92307   1.87466   -1.000
 5848.00    1.91874   1.86692   -1.000
 5849.00    1.92285   1.86188   -1.000
 5850.00    1.92649   1.85638   -1.000
 5851.00    1.91564   1.84755   -1.000
 5852.00    1.89297   1.83546   -1.000
 5853.00    1.87890   1.82266   -1.000
 5854.00    1.87862   1.81092   -1.000
 5855.00    1.87674   1.79897   -1.000
 5856.00    1.86243   1.78475   -1.000
 5857.00    1.84557   1.77026   -1.000
 5858.00    1.84327   1.76212   -1.000
 5859.00    1.86260   1.76597   -1.000
 5860.00    1.89010   1.78057   -1.000
 5861.00    1.90346   1.79887   -1.000
 5862.00    1.90300   1.81392   -1.000
 5863.00    1.90389   1.82310   -1.000
 5864.00    1.91045   1.82698   -1.000
 5865.00    1.90863   1.82690   -1.000
 5866.00    1.89483   1.82508   -1.000
 5867.00    1.89120   1.82522   -1.000
 5868.00    1.90654   1.83069   -1.000
 5869.00    1.92985   1.84124   -1.000
 5870.00    1.94409   1.85278   -1.000
 5871.00    1.94372   1.86060   -1.000
 5872.00    1.94514   1.86292   -1.000
 5873.00    1.94619   1.86136   -1.000
 5874.00    1.94306   1.85838   -1.000
 5875.00    1.93516   1.85487   -1.000
 5876.00    1.92816   1.84958   -1.000
 5877.00    1.92668   1.84108   -1.000
 5878.00    1.91817   1.82954   -1.000
 5879.00    1.90348   1.81715   -1.000
 5880.00    1.89379   1.80675   -1.000
 5881.00    1.89821   1.79987   -1.000
 5882.00    1.90893   1.79564   -1.000
 5883.00    1.90546   1.79145   -1.000
 5884.00    1.88437   1.78400   -1.000
 5885.00    1.86067   1.76810   -1.000
 5886.00    1.81557   1.73515   -1.000
 5887.00    1.69456   1.67619   66.727
 5888.00    1.52006   1.59179   -1.000
 5889.00    1.39899   1.49986   -1.000
 5890.00    1.41446   1.43043   73.252
 5891.00    1.53144   1.40582   -1.000
 5892.00    1.62551   1.42203   -1.000
 5893.00    1.62850   1.45256   -1.000
 5894.00    1.56100   1.47085   -1.000
 5895.00    1.50163   1.47195   70.798
 5896.00    1.52858   1.47338   -1.000
 5897.00    1.63485   1.49587   -1.000
 5898.00    1.74570   1.54454   -1.000
 5899.00    1.81737   1.60751   -1.000
 5900.00    1.85787   1.66838   -1.000
 5901.00    1.88239   1.71712   -1.000
 5902.00    1.89770   1.75142   -1.000
 5903.00    1.90102   1.77280   -1.000
 5904.00    1.89598   1.78440   -1.000
 5905.00    1.89336   1.79018   -1.000
 5906.00    1.89304   1.79415   -1.000
 5907.00    1.89428   1.79903   -1.000
 5908.00    1.89813   1.80537   -1.000
 5909.00    1.89919   1.81192   -1.000
 5910.00    1.90164   1.81634   -1.000
 5911.00    1.90216   1.81596   -1.000
 5912.00    1.88812   1.80877   -1.000
 5913.00    1.86510   1.79538   -1.000
 5914.00    1.84634   1.78025   -1.000
 5915.00    1.84190   1.76995   -1.000
 5916.00    1.85571   1.76902   -1.000
 5917.00    1.87061   1.77740   -1.000
 5918.00    1.87588   1.79094   -1.000
 5919.00    1.88358   1.80415   -1.000
 5920.00    1.88829   1.81304   -1.000
 5921.00    1.88540   1.81662   -1.000
 5922.00    1.88980   1.81698   -1.000
 5923.00    1.89627   1.81751   -1.000
 5924.00    1.89970   1.82039   -1.000
 5925.00    1.90414   1.82482   -1.000
 5926.00    1.90796   1.82746   -1.000
 5927.00    1.90488   1.82501   -1.000
 5928.00    1.89235   1.81725   -1.000
 5929.00    1.88256   1.80794   -1.000
 5930.00    1.87853   1.80232   -1.000
 5931.00    1.88423   1.80281   -1.000
 5932.00    1.89367   1.80707   -1.000
 5933.00    1.89398   1.81087   -1.000
 5934.00    1.88797   1.81280   -1.000
 5935.00    1.88398   1.81537   -1.000
 5936.00    1.88959   1.82116   -1.000
 5937.00    1.89881   1.82902   -1.000
 5938.00    1.90270   1.83476   -1.000
 5939.00    1.90317   1.83475   -1.000
 5940.00    1.89446   1.82893   -1.000
 5941.00    1.87840   1.82100   -1.000
 5942.00    1.87582   1.81608   -1.000
 5943.00    1.88959   1.81717   -1.000
 5944.00    1.90141   1.82304   -1.000
 5945.00    1.90032   1.82905   -1.000
 5946.00    1.89498   1.83048   -1.000
 5947.00    1.88913   1.82578   -1.000
 5948.00    1.87248   1.81762   -1.000
 5949.00    1.86708   1.81064   -1.000
 5950.00    1.87996   1.80746   -1.000
 5951.00    1.88095   1.80694   -1.000
 5952.00    1.87139   1.80657   -1.000
 5953.00    1.86860   1.80566   -1.000
 5954.00    1.87217   1.80495   -1.000
 5955.00    1.87468   1.80440   -1.000
 5956.00    1.86890   1.80342   -1.000
 5957.00    1.86456   1.80323   -1.000
 5958.00    1.87598   1.80683   -1.000
 5959.00    1.89506   1.81597   -1.000
 5960.00    1.91043   1.82881   -1.000
 5961.00    1.92258   1.84108   -1.000
 5962.00    1.92758   1.84886   -1.000
 5963.00    1.92155   1.85070   -1.000
 5964.00    1.91172   1.84779   -1.000
 5965.00    1.90098   1.84323   -1.000
 5966.00    1.89621   1.84059   -1.000
 5967.00    1.90229   1.84209   -1.000
 5968.00    1.91159   1.84751   -1.000
 5969.00    1.92053   1.85489   -1.000
 5970.00    1.92733   1.86186   -1.000
 5971.00    1.92604   1.86641   -1.000
 5972.00    1.91880   1.86679   -1.000
 5973.00    1.91547   1.86172   -1.000
 5974.00    1.91253   1.85103   -1.000
 5975.00    1.89189   1.83653   -1.000
 5976.00    1.86401   1.82224   62.533
 5977.00    1.85682   1.81297   62.480
 5978.00    1.86677   1.81168   -1.000
 5979.00    1.88165   1.81733   -1.000
 5980.00    1.89835   1.82485   -1.000
 5981.00    1.90383   1.82767   -1.000
 5982.00    1.88910   1.82188   -1.000
 5983.00    1.86460   1.80947   -1.000
 5984.00    1.84894   1.79746   -1.000
 5985.00    1.85379   1.79295   -1.000
 5986.00    1.87344   1.79813   -1.000
 5987.00    1.89148   1.80963   -1.000
 5988.00    1.89930   1.82216   -1.000
 5989.00    1.90459   1.83224   -1.000
 5990.00    1.90044   1.83929   -1.000
 5991.00    1.89126   1.84494   -1.000
 5992.00    1.89714   1.85135   -1.000
 5993.00    1.91188   1.85864   -1.000
 5994.00    1.91687   1.86388   -1.000
 5995.00    1.91181   1.86316   -1.000
 5996.00    1.90088   1.85560   -1.000
 5997.00    1.88365   1.84490   61.777
 5998.00    1.87754   1.83647   -1.000
 5999.00    1.88619   1.83317   -1.000
 6000.00    1.89445   1.83358   -1.000
 6001.00    1.88759   1.83422   -1.000
 6002.00    1.87262   1.83314   62.339
 6003.00    1.86580   1.83072   62.217
 6004.00    1.86873   1.82750   62.160
 6005.00    1.87260   1.82225   -1.000
 6006.00    1.85907   1.81358   -1.000
 6007.00    1.83530   1.80377   63.312
 6008.00    1.82893   1.79859   62.841
 6009.00    1.84283   1.80205   62.116
 6010.00    1.86801   1.81180   -1.000
 6011.00    1.87859   1.82069   -1.000
 6012.00    1.86685   1.82340   -1.000
 6013.00    1.86290   1.82046   -1.000
 6014.00    1.86977   1.81582   -1.000
 6015.00    1.87112   1.81237   -1.000
 6016.00    1.86728   1.81021   -1.000
 6017.00    1.86343   1.80803   -1.000
 6018.00    1.85928   1.80483   -1.000
 6019.00    1.85182   1.80053   -1.000
 6020.00    1.84149   1.79640   -1.000
 6021.00    1.84166   1.79492   -1.000
 6022.00    1.84869   1.79802   -1.000
 6023.00    1.85021   1.80575   -1.000
 6024.00    1.85536   1.81675   62.128
 6025.00    1.86452   1.82935   61.842
 6026.00    1.87853   1.84217   61.555
 6027.00    1.89086   1.85422   61.217
 6028.00    1.89324   1.86498   61.067
 6029.00    1.89980   1.87424   61.052
 6030.00    1.91071   1.88186   61.147
 6031.00    1.90978   1.88827   61.152
 6032.00    1.91027   1.89467   60.927
 6033.00    1.92109   1.90185   60.715
 6034.00    1.92101   1.90905   60.644
 6035.00    1.91411   1.91413   60.575
 6036.00    1.91304   1.91497   60.557
 6037.00    1.91281   1.91122   60.800
 6038.00    1.90952   1.90434   61.037
 6039.00    1.90358   1.89679   61.182
 6040.00    1.90039   1.89122   61.197
 6041.00    1.89842   1.88961   61.069
 6042.00    1.89783   1.89254   60.860
 6043.00    1.90690   1.89866   60.428
 6044.00    1.91605   1.90572   60.235
 6045.00    1.91804   1.91176   60.297
 6046.00    1.91991   1.91620   60.237
 6047.00    1.92076   1.91941   60.223
 6048.00    1.91825   1.92170   60.383
 6049.00    1.91453   1.92283   60.560
 6050.00    1.91734   1.92189   60.642
 6051.00    1.92180   1.91779   60.727
 6052.00    1.92229   1.91004   60.926
 6053.00    1.92011   1.89931   61.148
 6054.00    1.90877   1.88757   61.417
 6055.00    1.89323   1.87756   61.682
 6056.00    1.88832   1.87188   61.687
 6057.00    1.89115   1.87203   61.435
 6058.00    1.89488   1.87720   61.102
 6059.00    1.89788   1.88420   61.013
 6060.00    1.92423   1.88873   61.151
 6061.00    1.80421   1.88722   -1.000
 6062.00    1.33717   1.87850   -1.000
 6063.00    1.44989   1.86474   -1.000
 6064.00    1.86110   1.85145   77.247
 6065.00    1.51487   1.84548   -1.000
 6066.00    0.80310   1.85115   -1.000
 6067.00    0.84414   1.86737   -1.000
 6068.00    1.60361   1.88788   -1.000
 6069.00    1.92885   1.90615   60.258
 6070.00    1.91517   1.91897   59.009
 6071.00    1.79760   1.92641   -1.000
 6072.00    1.80215   1.92980   -1.000
 6073.00    1.91641   1.92990   60.518
 6074.00    1.92819   1.92664   60.649
 6075.00    1.91505   1.91963   60.930
 6076.00    1.90520   1.90887   61.271
 6077.00    1.89520   1.89555   61.696
 6078.00    1.88079   1.88192   62.127
 6079.00    1.86953   1.87017   62.299
 6080.00    1.87023   1.86134   62.324
 6081.00    1.86625   1.85533   62.457
 6082.00    1.85860   1.85170   62.539
 6083.00    1.85803   1.85049   62.497
 6084.00    1.86040   1.85175   62.439
 6085.00    1.86242   1.85493   62.305
 6086.00    1.86485   1.85897   62.075
 6087.00    1.86598   1.86206   62.034
 6088.00    1.86626   1.86221   62.329
 6089.00    1.86065   1.85882   62.656
 6090.00    1.84492   1.85378   62.741
 6091.00    1.83945   1.85057   62.477
 6092.00    1.84842   1.85206   62.105
 6093.00    1.85676   1.85864   61.780
 6094.00    1.86843   1.86820   61.473
 6095.00    1.88207   1.87769   61.378
 6096.00    1.88534   1.88489   61.494
 6097.00    1.88626   1.88894   61.589
 6098.00    1.88506   1.88856   61.600
 6099.00    1.87739   1.88099   62.021
 6100.00    1.86211   1.86338   63.259
 6101.00    1.82770   1.83771   64.557
 6102.00    1.79054   1.81286   64.689
 6103.00    1.79023   1.80001   63.688
 6104.00    1.82065   1.80484   62.582
 6105.00    1.84992   1.82315   62.076
 6106.00    1.86536   1.84530   62.163
 6107.00    1.86281   1.86400   62.375
 6108.00    1.85714   1.87696   62.417
 6109.00    1.85980   1.88506   62.318
 6110.00    1.86302   1.88993   62.097
 6111.00    1.86670   1.89309   61.965
 6112.00    1.87070   1.89623   61.788
 6113.00    1.87454   1.89982   61.539
 6114.00    1.87863   1.90241   61.627
 6115.00    1.87239   1.90222   61.987
 6116.00    1.86189   1.89821   62.220
 6117.00    1.86078   1.89010   62.407
 6118.00    1.85812   1.87703   63.073
 6119.00    1.84000   1.85780   63.973
 6120.00    1.81120   1.83401   64.665
 6121.00    1.78878   1.81181   64.946
 6122.00    1.78202   1.79905   64.326
 6123.00    1.79743   1.80023   63.342
 6124.00    1.82890   1.81254   63.004
 6125.00    1.83990   1.82851   63.254
 6126.00    1.82977   1.84178   63.384
 6127.00    1.82736   1.85108   63.239
 6128.00    1.82920   1.85917   62.883
 6129.00    1.83398   1.86895   62.298
 6130.00    1.85039   1.88044   61.971
 6131.00    1.86593   1.88958   62.014
 6132.00    1.86165   1.89029   62.414
 6133.00    1.84715   1.87688   63.505
 6134.00    1.82283   1.84776   65.252
 6135.00    1.77524   1.80849   67.046
 6136.00    1.72355   1.77209   67.856
 6137.00    1.70472   1.75261   66.862
 6138.00    1.73366   1.75612   64.956
 6139.00    1.78037   1.77691   63.761
 6140.00    1.80765   1.80289   63.594
 6141.00    1.81175   1.82590   63.743
 6142.00    1.81394   1.84492   63.409
 6143.00    1.82917   1.86180   62.651
 6144.00    1.84543   1.87616   62.276
 6145.00    1.84861   1.88487   62.444
 6146.00    1.84314   1.88552   62.814
 6147.00    1.83758   1.87884   63.251
 6148.00    1.82952   1.86814   63.661
 6149.00    1.81584   1.85802   63.815
 6150.00    1.81079   1.85193   63.659
 6151.00    1.81335   1.85054   63.290
 6152.00    1.82033   1.85148   63.046
 6153.00    1.82576   1.85097   63.348
 6154.00    1.81883   1.84691   63.801
 6155.00    1.81173   1.83987   63.946
 6156.00    1.80871   1.83114   64.104
 6157.00    1.80616   1.81930   64.627
 6158.00    1.79414   1.79991   65.655
 6159.00    1.76326   1.76895   67.369
 6160.00    1.72090   1.72757   69.413
 6161.00    1.67572   1.68493   70.641
 6162.00    1.64593   1.65458   70.231
 6163.00    1.65344   1.64638   68.565
 6164.00    1.68510   1.66002   67.118
 6165.00    1.71747   1.68517   66.578
 6166.00    1.73535   1.70830   66.597
 6167.00    1.73377   1.72019   67.199
 6168.00    1.71659   1.72046   68.006
 6169.00    1.69569   1.71667   67.983
 6170.00    1.69627   1.71859   66.928
 6171.00    1.72719   1.73089   65.800
 6172.00    1.75580   1.75015   65.481
 6173.00    1.76288   1.76931   65.597
 6174.00    1.76553   1.78353   65.514
 6175.00    1.76699   1.79244   65.361
 6176.00    1.76934   1.79844   65.211
 6177.00    1.77674   1.80417   64.944
 6178.00    1.78488   1.81086   64.664
 6179.00    1.78993   1.81832   64.453
 6180.00    1.79346   1.82582   64.192
 6181.00    1.79760   1.83248   63.966
 6182.00    1.80397   1.83687   63.985
 6183.00    1.81130   1.83692   64.188
 6184.00    1.80715   1.83126   64.587
 6185.00    1.79359   1.82012   65.235
 6186.00    1.78158   1.80522   65.938
 6187.00    1.76791   1.78853   66.583
 6188.00    1.75100   1.77113   67.124
 6189.00    1.73592   1.75360   67.832
 6190.00    1.71593   1.73835   68.486
 6191.00    1.69760   1.73030   68.177
 6192.00    1.70728   1.73415   66.786
 6193.00    1.73820   1.75017   65.412
 6194.00    1.76481   1.77246   64.783
 6195.00    1.78132   1.79310   64.599
 6196.00    1.79496   1.80635   64.822
 6197.00    1.79382   1.81018   65.476
 6198.00    1.77157   1.80686   66.122
 6199.00    1.74774   1.80190   -1.000
 6200.00    1.73481   1.80092   -1.000
 6201.00    1.74082   1.80697   -1.000
 6202.00    1.76305   1.81826   -1.000
 6203.00    1.78045   1.83067   -1.000
 6204.00    1.78806   1.84094   -1.000
 6205.00    1.80086   1.84787   -1.000
 6206.00    1.80796   1.85193   64.597
 6207.00    1.80368   1.85328   -1.000
 6208.00    1.80301   1.85130   -1.000
 6209.00    1.79889   1.84455   65.353
 6210.00    1.78735   1.83157   65.918
 6211.00    1.77288   1.81204   66.501
 6212.00    1.75062   1.78775   67.381
 6213.00    1.72139   1.76282   68.228
 6214.00    1.70446   1.74270   68.586
 6215.00    1.70765   1.73120   68.092
 6216.00    1.72173   1.72813   67.466
 6217.00    1.73642   1.72975   67.689
 6218.00    1.73421   1.73196   67.800
 6219.00    1.71793   1.73323   67.337
 6220.00    1.71207   1.73511   67.374
 6221.00    1.74102   1.73945   70.518
 6222.00    1.67765   1.74604   -1.000
 6223.00    1.55299   1.75295   -1.000
 6224.00    1.64814   1.75838   -1.000
 6225.00    1.76793   1.76125   66.851
 6226.00    1.76017   1.75998   67.072
 6227.00    1.75327   1.75232   67.796
 6228.00    1.73267   1.73697   68.876
 6229.00    1.69819   1.71654   69.874
 6230.00    1.66588   1.69793   70.042
 6231.00    1.66417   1.68966   69.245
 6232.00    1.68995   1.69651   68.026
 6233.00    1.71886   1.71611   66.830
 6234.00    1.74232   1.74033   66.218
 6235.00    1.75852   1.75968   66.403
 6236.00    1.75736   1.76782   67.027
 6237.00    1.74257   1.76424   67.716
 6238.00    1.72540   1.75291   68.423
 6239.00    1.70724   1.73917   68.894
 6240.00    1.69804   1.72660   68.965
 6241.00    1.69836   1.71608   69.237
 6242.00    1.68679   1.70708   69.754
 6243.00    1.66845   1.69960   69.906
 6244.00    1.66681   1.69537   69.593
 6245.00    1.67795   1.69728   68.981
 6246.00    1.69199   1.70667   68.168
 6247.00    1.71258   1.72209   67.382
 6248.00    1.72916   1.73859   67.064
 6249.00    1.72766   1.74930   67.441
 6250.00    1.71485   1.74937   68.474
 6251.00    1.69858   1.73836   69.531
 6252.00    1.67574   1.72080   -1.000
 6253.00    1.65342   1.70277   -1.000
 6254.00    1.64734   1.68857   70.472
 6255.00    1.64649   1.67858   70.824
 6256.00    1.63548   1.67207   71.508
 6257.00    1.62678   1.66938   -1.000
 6258.00    1.63129   1.67302   -1.000
 6259.00    1.65326   1.68545   69.658
 6260.00    1.67697   1.70587   68.678
 6261.00    1.69609   1.73033   67.672
 6262.00    1.71723   1.75281   67.031
 6263.00    1.72737   1.76868   67.251
 6264.00    1.72079   1.77674   -1.000
 6265.00    1.71374   1.77939   -1.000
 6266.00    1.71176   1.78016   -1.000
 6267.00    1.71108   1.78109   -1.000
 6268.00    1.71187   1.78213   -1.000
 6269.00    1.70478   1.78302   -1.000
 6270.00    1.70259   1.78437   -1.000
 6271.00    1.71357   1.78669   -1.000
 6272.00    1.72412   1.78865   -1.000
 6273.00    1.71874   1.78766   -1.000
 6274.00    1.70098   1.78144   -1.000
 6275.00    1.67927   1.76969   -1.000
 6276.00    1.65228   1.75437   -1.000
 6277.00    1.62835   1.73819   -1.000
 6278.00    1.60732   1.72412   -1.000
 6279.00    1.59095   1.71490   -1.000
 6280.00    1.57877   1.71312   -1.000
 6281.00    1.57390   1.72029   -1.000
 6282.00    1.58611   1.73550   -1.000
 6283.00    1.60688   1.75539   -1.000
 6284.00    1.63157   1.77575   -1.000
 6285.00    1.66250   1.79338   -1.000
 6286.00    1.69535   1.80704   -1.000
 6287.00    1.71848   1.81603   -1.000
 6288.00    1.72790   1.81957   -1.000
 6289.00    1.73019   1.81714   -1.000
 6290.00    1.72334   1.80975   -1.000
 6291.00    1.71190   1.80021   -1.000
 6292.00    1.70667   1.79140   -1.000
 6293.00    1.70924   1.78428   -1.000
 6294.00    1.70649   1.77752   -1.000
 6295.00    1.69501   1.76951   -1.000
 6296.00    1.68620   1.76012   -1.000
 6297.00    1.68014   1.75119   -1.000
 6298.00    1.67613   1.74472   -1.000
 6299.00    1.67777   1.74067   -1.000
 6300.00    1.67692   1.73816   -1.000
 6301.00    1.67036   1.73747   -1.000
 6302.00    1.67055   1.74070   -1.000
 6303.00    1.68313   1.74976   -1.000
 6304.00    1.70126   1.76409   -1.000
 6305.00    1.71498   1.78106   -1.000
 6306.00    1.72376   1.79746   -1.000
 6307.00    1.73396   1.81057   -1.000
 6308.00    1.74268   1.81839   -1.000
 6309.00    1.73763   1.82019   -1.000
 6310.00    1.71834   1.81664   -1.000
 6311.00    1.70532   1.80977   -1.000
 6312.00    1.70495   1.80082   -1.000
 6313.00    1.70115   1.79052   -1.000
 6314.00    1.68724   1.77920   -1.000
 6315.00    1.67246   1.76761   -1.000
 6316.00    1.66323   1.75773   -1.000
 6317.00    1.66623   1.75187   -1.000
 6318.00    1.67421   1.75225   -1.000
 6319.00    1.68505   1.75975   -1.000
 6320.00    1.70049   1.77317   -1.000
 6321.00    1.71287   1.78911   -1.000
 6322.00    1.71981   1.80466   -1.000
 6323.00    1.72172   1.81836   -1.000
 6324.00    1.73290   1.82971   -1.000
 6325.00    1.75119   1.83826   -1.000
 6326.00    1.75775   1.84372   -1.000
 6327.00    1.75496   1.84678   -1.000
 6328.00    1.75212   1.84834   -1.000
 6329.00    1.75100   1.84968   -1.000
 6330.00    1.75377   1.85114   -1.000
 6331.00    1.75664   1.85172   -1.000
 6332.00    1.76078   1.84910   -1.000
 6333.00    1.76477   1.84040   -1.000
 6334.00    1.65393   1.82554   -1.000
 6335.00    1.57765   1.80883   -1.000
 6336.00    1.66031   1.79663   -1.000
 6337.00    1.71341   1.79388   -1.000
 6338.00    1.72344   1.80074   -1.000
 6339.00    1.74387   1.81273   -1.000
 6340.00    1.75992   1.82408   -1.000
 6341.00    1.76286   1.83013   -1.000
 6342.00    1.75475   1.82949   -1.000
 6343.00    1.74547   1.82521   -1.000
 6344.00    1.74329   1.82210   -1.000
 6345.00    1.75032   1.82433   -1.000
 6346.00    1.76023   1.83303   -1.000
 6347.00    1.76646   1.84567   -1.000
 6348.00    1.77219   1.85904   -1.000
 6349.00    1.78311   1.86981   -1.000
 6350.00    1.79215   1.87573   -1.000
 6351.00    1.78253   1.87568   -1.000
 6352.00    1.76822   1.86954   -1.000
 6353.00    1.76156   1.85867   -1.000
 6354.00    1.74971   1.84546   -1.000
 6355.00    1.73869   1.83208   -1.000
 6356.00    1.73101   1.81936   -1.000
 6357.00    1.72258   1.80663   -1.000
 6358.00    1.71226   1.79321   -1.000
 6359.00    1.70276   1.77993   -1.000
 6360.00    1.70260   1.76870   -1.000
 6361.00    1.70353   1.76154   -1.000
 6362.00    1.70474   1.76023   -1.000
 6363.00    1.71225   1.76584   66.215
 6364.00    1.72290   1.77798   65.776
 6365.00    1.73116   1.79474   -1.000
 6366.00    1.73607   1.81323   -1.000
 6367.00    1.74543   1.83032   -1.000
 6368.00    1.75871   1.84404   -1.000
 6369.00    1.76800   1.85389   -1.000
 6370.00    1.76977   1.86114   -1.000
 6371.00    1.76906   1.86778   -1.000
 6372.00    1.77207   1.87439   -1.000
 6373.00    1.77576   1.88020   -1.000
 6374.00    1.77360   1.88356   -1.000
 6375.00    1.76907   1.88331   -1.000
 6376.00    1.76022   1.87944   -1.000
 6377.00    1.74558   1.87276   -1.000
 6378.00    1.73713   1.86465   -1.000
 6379.00    1.73355   1.85730   -1.000
 6380.00    1.73043   1.85239   -1.000
 6381.00    1.72914   1.85048   -1.000
 6382.00    1.73203   1.85124   -1.000
 6383.00    1.74032   1.85373   -1.000
 6384.00    1.74223   1.85737   -1.000
 6385.00    1.73211   1.86175   -1.000
 6386.00    1.72553   1.86641   -1.000
 6387.00    1.72629   1.87016   -1.000
 6388.00    1.72332   1.87131   -1.000
 6389.00    1.71569   1.86824   -1.000
 6390.00    1.70386   1.85976   -1.000
 6391.00    1.68504   1.84649   -1.000
 6392.00    1.65861   1.83216   -1.000
 6393.00    1.63666   1.82264   -1.000
 6394.00    1.63545   1.82218   -1.000
 6395.00    1.65079   1.83002   -1.000
 6396.00    1.65952   1.83927   -1.000
 6397.00    1.64893   1.84222   -1.000
 6398.00    1.62407   1.83629   -1.000
 6399.00    1.59726   1.82619   -1.000
 6400.00    1.58315   1.82081   -1.000
 6401.00    1.59098   1.82635   -1.000
 6402.00    1.61126   1.84184   -1.000
 6403.00    1.62454   1.85955   -1.000
 6404.00    1.62484   1.87139   -1.000
 6405.00    1.60969   1.87338   -1.000
 6406.00    1.59135   1.86707   -1.000
 6407.00    1.57455   1.85759   -1.000
 6408.00    1.55075   1.84961   -1.000
 6409.00    1.54026   1.84500   -1.000
 6410.00    1.54063   1.84270   -1.000
 6411.00    1.52484   1.84159   -1.000
 6412.00    1.50730   1.84190   -1.000
 6413.00    1.50292   1.84465   -1.000
 6414.00    1.50316   1.84964   -1.000
 6415.00    1.50091   1.85473   -1.000
 6416.00    1.49292   1.85715   -1.000
 6417.00    1.48191   1.85429   -1.000
 6418.00    1.46563   1.84589   -1.000
 6419.00    1.44053   1.83486   -1.000
 6420.00    1.41265   1.82695   -1.000
 6421.00    1.39429   1.82712   -1.000
 6422.00    1.39506   1.83688   -1.000
 6423.00    1.40656   1.85336   -1.000
 6424.00    1.41032   1.87077   -1.000
 6425.00    1.40584   1.88464   -1.000
 6426.00    1.39661   1.89176   -1.000
 6427.00    1.38108   1.89024   -1.000
 6428.00    1.36423   1.87999   -1.000
