###################################################################
## OUTPUT of StarlightChains_v04.for    [Cid@UFSC - 01/Apr/2007] ##
###################################################################

## Some input info
NGC6441_a_2.cxt                          [arq_obs]
Base.BC03.N                              [arq_base]
NGC6441_a_2.msk                          [arq_masks]
StCv04.C99.config                        [arq_config]
   45                                    [N_base]
    0                                    [N_YAV_components = # of components with extra extinction!]
    0                                    [i_FitPowerLaw (1/0 = Yes/No)]
-9.99                                    [alpha_PowerLaw]
CCM                                      [red_law_option]
 1.458241                                [q_norm = A(l_norm)/A(V)]

## (Re)Sampling Parameters
 3359.00                                 [l_ini (A)]
 6428.00                                 [l_fin (A)]
    1.00                                 [dl    (A)]     (OBS: dl_cushion =    50.00 A)

## Normalization info
 4020.00                                 [l_norm (A) - for base]
 4010.00                                 [llow_norm (A) - window for f_obs]
 4060.00                                 [lupp_norm (A) - window for f_obs]
3.752896E-14                             [fobs_norm (in input units)]

## S/N
 4730.00                                 [llow_SN (A) - window for S/N]
 4780.00                                 [lupp_SN (A) - window for S/N]
  36.122                                 [S/N in S/N window]
  21.548                                 [S/N in norm. window]
 237.783                                 [S/N_err in S/N window]
 141.847                                 [S/N_err in norm. window]
  1.0000                                 [fscale_chi2]

## etc...
  2147483608                             [idum_orig]
  3067                                   [NOl_eff]
   715                                   [Nl_eff]
  2352    NSIGMA                         [Ntot_cliped & clip_method]
  1889020                                [Nglobal_steps]
   7                                     [N_chains]
  10                                     [NEX0s_base = N_base in EX0s-fits]
 0   0   1      159   2.0   3.244E+02    [Clip-Bug, RC-Crash & Burn-In warning-flags, n_censored_weights, wei_nsig_threshold & wei_limit]
    25     25.082     25.078      0.004  [idt_all, wdt_TotTime, wdt_UsrTime & wdt_SysTime (sec)]

## Synthesis Results - Best model ##

 2.46688E+00                             [chi2/Nl_eff]
     1.64013                             [adev (%)]

    99.96154                             [sum-of-x (%)]
 2.44786E-13                             [Flux_tot (units of input spectrum!)]
 9.79490E-09                             [Mini_tot (???)]
 5.02341E-09                             [Mcor_tot (???)]

 -13.20                                  [v0_min  (km/s)]
  27.93                                  [vd_min  (km/s)]
 1.3965                                  [AV_min  (mag)]
 0.0000                                  [YAV_min (mag)]

# j     x_j(%)      Mini_j(%)     Mcor_j(%)     age_j(yr)     Z_j      (L/M)_j    YAV?  Mstars   component_j        a/Fe...       SSP_chi2r SSP_adev(%)   SSP_AV   SSP_x(%)
  1      0.0000     0.0000E+00    0.0000E+00    1.000000E+06  0.00400  1.114E-02    0   1.0000   age020_m42            0.0000     4.2429E+03    42.9707   4.0000   102.6577
  2      3.2052     1.9674E-03    3.8357E-03    3.160000E+06  0.00400  4.073E-02    0   0.9999   age045_m42            0.0000     5.6948E+02    16.6861   4.0000   101.3067
  3      0.8206     8.0961E-04    1.4978E-03    5.010000E+06  0.00400  2.534E-02    0   0.9488   age055_m42            0.0000     1.5722E+03    28.2207   4.0000   103.5041
  4      4.2407     8.3416E-03    1.4414E-02    1.000000E+07  0.00400  1.271E-02    0   0.8862   age070_m42            0.0000     5.0213E+02    15.9350   3.9068    92.1401
  5      1.9591     9.6607E-03    1.5397E-02    2.512000E+07  0.00400  5.070E-03    0   0.8174   age090_m42            0.0000     4.5600E+02    15.2761   3.7835    93.6973
  6      0.0000     0.0000E+00    0.0000E+00    4.000000E+07  0.00400  3.505E-03    0   0.7851   age104_m42            0.0000     3.4225E+02    13.2923   3.4774    96.5135
  7      0.0000     0.0000E+00    0.0000E+00    1.015200E+08  0.00400  2.268E-03    0   0.7207   age116_m42            0.0000     5.9506E+02    12.9911   3.5254   103.9131
  8      0.0000     0.0000E+00    0.0000E+00    2.861200E+08  0.00400  1.079E-03    0   0.6613   age125_m42            0.0000     6.0037E+02    12.9615   3.0367   105.8158
  9      0.0000     0.0000E+00    0.0000E+00    6.405400E+08  0.00400  5.077E-04    0   0.6197   age132_m42            0.0000     5.9865E+02    13.2072   2.6630   110.4352
 10      0.0000     0.0000E+00    0.0000E+00    9.047900E+08  0.00400  3.535E-04    0   0.6024   age135_m42            0.0000     4.1816E+02    10.8010   2.4287   109.4906
 11      0.0000     0.0000E+00    0.0000E+00    1.434000E+09  0.00400  1.910E-04    0   0.5716   age139_m42            0.0000     1.9155E+02     7.1055   1.9358   107.2155
 12     17.9543     4.5719E+00    4.8700E+00    2.500000E+09  0.00400  9.818E-05    0   0.5463   age150_m42            0.0000     5.4318E+01     3.6098   1.6749   102.0166
 13     35.4975     1.8810E+01    1.9175E+01    5.000000E+09  0.00400  4.718E-05    0   0.5228   age161_m42            0.0000     1.6361E+01     2.4065   1.5137    98.6685
 14      1.3519     1.5328E+00    1.4884E+00    1.100000E+10  0.00400  2.205E-05    0   0.4980   age185_m42            0.0000     2.4806E+01     3.2666   1.2748    96.0349
 15      0.0000     0.0000E+00    0.0000E+00    1.300000E+10  0.00400  1.883E-05    0   0.4927   age193_m42            0.0000     2.9546E+01     3.5641   1.2588    95.8790
 16      0.0000     0.0000E+00    0.0000E+00    1.000000E+06  0.02000  1.989E-02    0   1.0000   age020_m62            0.0000     4.0537E+03    41.8872   4.0000   103.1338
 17      0.0000     0.0000E+00    0.0000E+00    3.160000E+06  0.02000  3.772E-02    0   0.9858   age045_m62            0.0000     3.3133E+03    38.9982   4.0000   104.3141
 18      1.7310     1.3411E-03    2.4429E-03    5.010000E+06  0.02000  3.227E-02    0   0.9342   age055_m62            0.0000     1.1425E+03    24.1701   4.0000   104.0646
 19      0.0000     0.0000E+00    0.0000E+00    1.000000E+07  0.02000  1.011E-02    0   0.8751   age070_m62            0.0000     7.9062E+02    20.3023   3.9503    89.1254
 20      0.0000     0.0000E+00    0.0000E+00    2.512000E+07  0.02000  4.206E-03    0   0.8099   age090_m62            0.0000     6.0754E+02    18.2545   3.8823    89.8165
 21      0.0000     0.0000E+00    0.0000E+00    4.000000E+07  0.02000  3.373E-03    0   0.7799   age104_m62            0.0000     3.7730E+02    13.1498   3.7132    97.7403
 22      0.0000     0.0000E+00    0.0000E+00    1.015200E+08  0.02000  1.878E-03    0   0.7221   age116_m62            0.0000     5.5633E+02    12.3231   3.5455   104.9478
 23      0.0000     0.0000E+00    0.0000E+00    2.861200E+08  0.02000  8.869E-04    0   0.6700   age125_m62            0.0000     8.5283E+02    15.8812   3.0557   111.0013
 24      0.0000     0.0000E+00    0.0000E+00    6.405400E+08  0.02000  3.657E-04    0   0.6322   age132_m62            0.0000     5.6258E+02    12.2895   2.3999   113.2261
 25      0.0000     0.0000E+00    0.0000E+00    9.047900E+08  0.02000  2.312E-04    0   0.6152   age135_m62            0.0000     3.2494E+02     8.9711   2.0413   111.6839
 26      0.0000     0.0000E+00    0.0000E+00    1.434000E+09  0.02000  1.168E-04    0   0.5865   age139_m62            0.0000     9.1416E+01     4.7723   1.6458   105.4575
 27      0.0000     0.0000E+00    0.0000E+00    2.500000E+09  0.02000  5.505E-05    0   0.5610   age150_m62            0.0000     4.2593E+01     3.9941   1.2994   101.9855
 28      0.0000     0.0000E+00    0.0000E+00    5.000000E+09  0.02000  2.596E-05    0   0.5353   age161_m62            0.0000     9.1521E+01     6.0086   1.0030   100.8438
 29     24.0042     5.1337E+01    5.1080E+01    1.100000E+10  0.02000  1.169E-05    0   0.5103   age185_m62            0.0000     2.0527E+02     8.6173   0.6741   101.2806
 30      9.1970     2.3726E+01    2.3349E+01    1.300000E+10  0.02000  9.691E-06    0   0.5047   age193_m62            0.0000     2.3051E+02     9.0794   0.6331   101.3766
 31      0.0000     0.0000E+00    0.0000E+00    1.000000E+06  0.05000  2.651E-02    0   0.9998   age020_m72            0.0000     3.9991E+03    41.4719   4.0000   104.3597
 32      0.0000     0.0000E+00    0.0000E+00    3.160000E+06  0.05000  4.817E-02    0   0.9577   age045_m72            0.0000     2.4915E+03    34.2540   4.0000   106.1609
 33      0.0000     0.0000E+00    0.0000E+00    5.010000E+06  0.05000  3.101E-02    0   0.9147   age055_m72            0.0000     1.3092E+03    26.5130   4.0000   102.9276
 34      0.0000     0.0000E+00    0.0000E+00    1.000000E+07  0.05000  8.954E-03    0   0.8524   age070_m72            0.0000     2.0597E+03    31.3866   4.0000   105.8967
 35      0.0000     0.0000E+00    0.0000E+00    2.512000E+07  0.05000  4.207E-03    0   0.7902   age090_m72            0.0000     7.6091E+02    19.9624   4.0000   103.3385
 36      0.0000     0.0000E+00    0.0000E+00    4.000000E+07  0.05000  3.198E-03    0   0.7618   age104_m72            0.0000     4.5191E+02    11.3574   3.9438   100.2553
 37      0.0000     0.0000E+00    0.0000E+00    1.015200E+08  0.05000  1.716E-03    0   0.7092   age116_m72            0.0000     6.2774E+02    13.1167   3.6730   104.4029
 38      0.0000     0.0000E+00    0.0000E+00    2.861200E+08  0.05000  7.047E-04    0   0.6618   age125_m72            0.0000     8.0143E+02    15.2455   2.8877   110.5807
 39      0.0000     0.0000E+00    0.0000E+00    6.405400E+08  0.05000  2.633E-04    0   0.6253   age132_m72            0.0000     4.0453E+02    10.3262   2.0650   111.5583
 40      0.0000     0.0000E+00    0.0000E+00    9.047900E+08  0.05000  1.484E-04    0   0.6088   age135_m72            0.0000     1.5143E+02     6.4650   1.6018   105.7402
 41      0.0000     0.0000E+00    0.0000E+00    1.434000E+09  0.05000  7.827E-05    0   0.5847   age139_m72            0.0000     9.2449E+01     5.6573   1.2455   101.4514
 42      0.0000     0.0000E+00    0.0000E+00    2.500000E+09  0.05000  3.759E-05    0   0.5583   age150_m72            0.0000     1.2309E+02     6.7841   0.9477   100.1617
 43      0.0000     0.0000E+00    0.0000E+00    5.000000E+09  0.05000  1.548E-05    0   0.5320   age161_m72            0.0000     2.4724E+02     9.0719   0.5975    98.6939
 44      0.0000     0.0000E+00    0.0000E+00    1.100000E+10  0.05000  6.532E-06    0   0.5070   age185_m72            0.0000     4.6028E+02    12.1265   0.2655    97.3504
 45      0.0000     0.0000E+00    0.0000E+00    1.300000E+10  0.05000  5.316E-06    0   0.5018   age193_m72            0.0000     5.6051E+02    13.3890   0.1657    96.9545


## Synthesis Results - Average & Chains ##

# j      x_j: min, <> & last-chain-values for 1 ...  7 chains
  1      0.0000      0.0254      0.0000      0.0411      0.0000      0.0000      0.0000      0.0000      0.0000
  2      3.2052      2.6863      2.8398      2.6641      2.7317      2.8279      2.8070      2.6315      2.9190
  3      0.8206      1.0267      0.9867      1.0234      1.0990      1.0254      0.9887      0.9702      1.1268
  4      4.2407      3.9483      4.0711      4.0639      4.0469      4.0229      4.0099      3.7177      3.9398
  5      1.9591      1.6014      1.7356      1.6239      1.6611      1.6140      1.6146      1.9798      1.5876
  6      0.0000      0.0544      0.0000      0.0000      0.0000      0.0000      0.0000      0.0000      0.1536
  7      0.0000      0.0447      0.0861      0.0000      0.0114      0.0827      0.0624      0.0060      0.0000
  8      0.0000      0.0303      0.0000      0.0000      0.1230      0.0000      0.1175      0.0792      0.0000
  9      0.0000      0.0697      0.0000      0.0000      0.0088      0.0808      0.0000      0.0580      0.0000
 10      0.0000      0.0904      0.0394      0.1425      0.0462      0.2495      0.1234      0.3666      0.1010
 11      0.0000      0.1506      0.2114      0.0000      0.2723      0.3797      0.1971      0.0654      0.3073
 12     17.9543     17.0339     17.2498     17.8780     17.0372     17.3914     17.0964     17.1424     17.1745
 13     35.4975     34.5880     34.9481     34.7313     35.3548     34.6607     34.7623     36.3362     35.2222
 14      1.3519      2.3884      1.9206      2.1390      2.0566      1.8412      2.4110      1.3270      2.2437
 15      0.0000      0.2125      0.0000      0.1197      0.0000      0.1425      0.0000      0.0213      0.0000
 16      0.0000      0.0158      0.0000      0.0000      0.0000      0.0000      0.0000      0.0000      0.0000
 17      0.0000      0.0134      0.0000      0.0000      0.0000      0.0349      0.0000      0.0000      0.0000
 18      1.7310      1.9080      1.8770      1.9412      1.9611      1.9233      2.0601      1.8668      1.8594
 19      0.0000      0.0585      0.0342      0.0341      0.0000      0.1667      0.0883      0.0000      0.0000
 20      0.0000      0.0647      0.0000      0.0000      0.0000      0.1475      0.0000      0.0000      0.0000
 21      0.0000      0.0543      0.0240      0.2173      0.0000      0.0000      0.0000      0.0247      0.0000
 22      0.0000      0.0328      0.0000      0.0000      0.0946      0.0000      0.0201      0.0000      0.0904
 23      0.0000      0.0293      0.0993      0.0835      0.0452      0.0000      0.1577      0.0000      0.0000
 24      0.0000      0.0566      0.0881      0.0000      0.0000      0.0000      0.0000      0.0000      0.0000
 25      0.0000      0.0857      0.0000      0.1305      0.0277      0.0000      0.0000      0.0000      0.0000
 26      0.0000      0.1047      0.1322      0.0000      0.0105      0.0000      0.0597      0.0000      0.0085
 27      0.0000      0.1168      0.0000      0.0000      0.0000      0.0000      0.0000      0.0000      0.0000
 28      0.0000      0.1160      0.0944      0.0000      0.2767      0.0000      0.0000      0.0183      0.0000
 29     24.0042     23.5202     23.8404     23.5239     23.6095     23.9358     23.7607     23.5473     23.7548
 30      9.1970      8.4901      8.7146      8.4152      8.4495      8.4758      8.6621      8.5007      8.6108
 31      0.0000      0.0642      0.0000      0.0000      0.0000      0.0000      0.0000      0.1325      0.0775
 32      0.0000      0.0247      0.0000      0.0052      0.0000      0.0000      0.0000      0.0000      0.0000
 33      0.0000      0.0548      0.1736      0.0000      0.1899      0.0644      0.0000      0.2689      0.0395
 34      0.0000      0.0571      0.0713      0.1437      0.0000      0.0104      0.1959      0.0332      0.0000
 35      0.0000      0.0380      0.0518      0.1173      0.0000      0.0000      0.0000      0.0000      0.0320
 36      0.0000      0.0186      0.0000      0.0000      0.0000      0.0000      0.0000      0.0000      0.0000
 37      0.0000      0.0253      0.0000      0.0000      0.0992      0.0000      0.0000      0.0000      0.0000
 38      0.0000      0.0318      0.0000      0.0000      0.0000      0.0000      0.0308      0.0000      0.0000
 39      0.0000      0.0619      0.0000      0.0437      0.0000      0.0866      0.0000      0.0405      0.1197
 40      0.0000      0.0944      0.0000      0.0175      0.0341      0.0573      0.0000      0.0000      0.0000
 41      0.0000      0.0711      0.0000      0.0000      0.0000      0.0000      0.0000      0.0000      0.0000
 42      0.0000      0.0573      0.0000      0.0000      0.0000      0.0000      0.0077      0.0000      0.0000
 43      0.0000      0.0592      0.0000      0.0000      0.0000      0.0000      0.0316      0.0934      0.0000
 44      0.0000      0.3146      0.2229      0.3989      0.3712      0.3680      0.2572      0.3661      0.2789
 45      0.0000      0.3494      0.4398      0.4302      0.3152      0.3636      0.4153      0.3685      0.2943

# j      m_j: min, <> & last-chain-values for 1 ...  7 chains
  1  0.0000E+00  1.1008E-04  0.0000E+00  1.7783E-04  0.0000E+00  0.0000E+00  0.0000E+00  0.0000E+00  0.0000E+00
  2  3.8357E-03  3.1800E-03  3.3448E-03  3.1533E-03  3.2397E-03  3.3406E-03  3.3042E-03  3.1243E-03  3.4558E-03
  3  1.4978E-03  1.8538E-03  1.7726E-03  1.8475E-03  1.9879E-03  1.8475E-03  1.7751E-03  1.7568E-03  2.0347E-03
  4  1.4414E-02  1.3275E-02  1.3619E-02  1.3662E-02  1.3631E-02  1.3497E-02  1.3406E-02  1.2536E-02  1.3248E-02
  5  1.5397E-02  1.2449E-02  1.3425E-02  1.2622E-02  1.2937E-02  1.2521E-02  1.2481E-02  1.5437E-02  1.2344E-02
  6  0.0000E+00  5.8807E-04  0.0000E+00  0.0000E+00  0.0000E+00  0.0000E+00  0.0000E+00  0.0000E+00  1.6592E-03
  7  0.0000E+00  6.8526E-04  1.3127E-03  0.0000E+00  1.7464E-04  1.2652E-03  9.5082E-04  9.2490E-05  0.0000E+00
  8  0.0000E+00  8.9444E-04  0.0000E+00  0.0000E+00  3.6420E-03  0.0000E+00  3.4516E-03  2.3483E-03  0.0000E+00
  9  0.0000E+00  4.1010E-03  0.0000E+00  0.0000E+00  5.2070E-04  4.7446E-03  0.0000E+00  3.4220E-03  0.0000E+00
 10  0.0000E+00  7.4252E-03  3.2238E-03  1.1708E-02  3.8012E-03  2.0455E-02  1.0083E-02  3.0212E-02  8.3011E-03
 11  0.0000E+00  2.1740E-02  3.0358E-02  0.0000E+00  3.9374E-02  5.4677E-02  2.8279E-02  9.4667E-03  4.4347E-02
 12  4.8700E+00  4.5705E+00  4.6050E+00  4.7962E+00  4.5796E+00  4.6565E+00  4.5613E+00  4.6130E+00  4.6087E+00
 13  1.9175E+01  1.8482E+01  1.8580E+01  1.8555E+01  1.8926E+01  1.8481E+01  1.8470E+01  1.9472E+01  1.8822E+01
 14  1.4884E+00  2.6011E+00  2.0811E+00  2.3291E+00  2.2439E+00  2.0010E+00  2.6110E+00  1.4495E+00  2.4438E+00
 15  0.0000E+00  2.6818E-01  0.0000E+00  1.5103E-01  0.0000E+00  1.7940E-01  0.0000E+00  2.6915E-02  0.0000E+00
 16  0.0000E+00  3.8370E-05  0.0000E+00  0.0000E+00  0.0000E+00  0.0000E+00  0.0000E+00  0.0000E+00  0.0000E+00
 17  0.0000E+00  1.6863E-05  0.0000E+00  0.0000E+00  0.0000E+00  4.3834E-05  0.0000E+00  0.0000E+00  0.0000E+00
 18  2.4429E-03  2.6635E-03  2.6070E-03  2.7094E-03  2.7426E-03  2.6792E-03  2.8596E-03  2.6136E-03  2.5960E-03
 19  0.0000E+00  2.4434E-04  1.4217E-04  1.4211E-04  0.0000E+00  6.9436E-04  3.6657E-04  0.0000E+00  0.0000E+00
 20  0.0000E+00  6.0045E-04  0.0000E+00  0.0000E+00  0.0000E+00  1.3671E-03  0.0000E+00  0.0000E+00  0.0000E+00
 21  0.0000E+00  6.0566E-04  2.6571E-04  2.4229E-03  0.0000E+00  0.0000E+00  0.0000E+00  2.7631E-04  0.0000E+00
 22  0.0000E+00  6.0849E-04  0.0000E+00  0.0000E+00  1.7572E-03  0.0000E+00  3.7013E-04  0.0000E+00  1.6754E-03
 23  0.0000E+00  1.0658E-03  3.6005E-03  3.0417E-03  1.6479E-03  0.0000E+00  5.7138E-03  0.0000E+00  0.0000E+00
 24  0.0000E+00  4.7152E-03  7.3110E-03  0.0000E+00  0.0000E+00  0.0000E+00  0.0000E+00  0.0000E+00  0.0000E+00
 25  0.0000E+00  1.0997E-02  0.0000E+00  1.6740E-02  3.5603E-03  0.0000E+00  0.0000E+00  0.0000E+00  0.0000E+00
 26  0.0000E+00  2.5342E-02  3.1841E-02  0.0000E+00  2.5384E-03  0.0000E+00  1.4381E-02  0.0000E+00  2.0574E-03
 27  0.0000E+00  5.7413E-02  0.0000E+00  0.0000E+00  0.0000E+00  0.0000E+00  0.0000E+00  0.0000E+00  0.0000E+00
 28  0.0000E+00  1.1536E-01  9.3373E-02  0.0000E+00  2.7567E-01  0.0000E+00  0.0000E+00  1.8249E-02  0.0000E+00
 29  5.1080E+01  4.9510E+01  4.9930E+01  4.9509E+01  4.9788E+01  5.0277E+01  4.9733E+01  4.9711E+01  5.0009E+01
 30  2.3349E+01  2.1321E+01  2.1775E+01  2.1130E+01  2.1258E+01  2.1240E+01  2.1630E+01  2.1410E+01  2.1627E+01
 31  0.0000E+00  1.1684E-04  0.0000E+00  0.0000E+00  0.0000E+00  0.0000E+00  0.0000E+00  2.4164E-04  1.4090E-04
 32  0.0000E+00  2.3699E-05  0.0000E+00  5.0266E-06  0.0000E+00  0.0000E+00  0.0000E+00  0.0000E+00  0.0000E+00
 33  0.0000E+00  7.7887E-05  2.4573E-04  0.0000E+00  2.7057E-04  9.1389E-05  0.0000E+00  3.8362E-04  5.6180E-05
 34  0.0000E+00  2.6230E-04  3.2566E-04  6.5958E-04  0.0000E+00  4.7543E-05  8.9443E-04  1.5276E-04  0.0000E+00
 35  0.0000E+00  3.4398E-04  4.6663E-04  1.0621E-03  0.0000E+00  0.0000E+00  0.0000E+00  0.0000E+00  2.8964E-04
 36  0.0000E+00  2.1420E-04  0.0000E+00  0.0000E+00  0.0000E+00  0.0000E+00  0.0000E+00  0.0000E+00  0.0000E+00
 37  0.0000E+00  5.0374E-04  0.0000E+00  0.0000E+00  1.9807E-03  0.0000E+00  0.0000E+00  0.0000E+00  0.0000E+00
 38  0.0000E+00  1.4402E-03  0.0000E+00  0.0000E+00  0.0000E+00  0.0000E+00  1.3853E-03  0.0000E+00  0.0000E+00
 39  0.0000E+00  7.0899E-03  0.0000E+00  5.0048E-03  0.0000E+00  9.8999E-03  0.0000E+00  4.6481E-03  1.3710E-02
 40  0.0000E+00  1.8668E-02  0.0000E+00  3.4600E-03  6.7632E-03  1.1320E-02  0.0000E+00  0.0000E+00  0.0000E+00
 41  0.0000E+00  2.5607E-02  0.0000E+00  0.0000E+00  0.0000E+00  0.0000E+00  0.0000E+00  0.0000E+00  0.0000E+00
 42  0.0000E+00  4.1070E-02  0.0000E+00  0.0000E+00  0.0000E+00  0.0000E+00  5.5188E-03  0.0000E+00  0.0000E+00
 43  0.0000E+00  9.8186E-02  0.0000E+00  0.0000E+00  0.0000E+00  0.0000E+00  5.2108E-02  1.5529E-01  0.0000E+00
 44  0.0000E+00  1.1775E+00  8.2988E-01  1.4929E+00  1.3919E+00  1.3743E+00  9.5704E-01  1.3742E+00  1.0441E+00
 45  0.0000E+00  1.5903E+00  1.9919E+00  1.9579E+00  1.4372E+00  1.6516E+00  1.8798E+00  1.6823E+00  1.3399E+00

# AV, chi2 & Mass for <> & i_chain = 1 ...  7 solutions
AV       1.3965      1.3928      1.3920      1.3947      1.3943      1.3941      1.3921      1.3933      1.3923
chi2 2.4669E+00  2.4753E+00  2.4700E+00  2.4682E+00  2.4686E+00  2.4679E+00  2.4692E+00  2.4679E+00  2.4690E+00
Mass 5.0234E-09  5.0528E-09  5.0732E-09  5.0664E-09  5.0542E-09  5.0725E-09  5.0768E-09  5.0419E-09  5.0494E-09
 -13.43                                  [v0_min (km/s) before EX0s...]
  27.41                                  [vd_min (km/s) before EX0s...]


## Synthetic spectrum (Best Model) ##l_obs f_obs f_syn wei
 3070    [Nl_obs]
 3359.00    0.00000   0.36780   -2.000
 3360.00    0.19023   0.34391   -1.000
 3361.00    0.20453   0.34745   -1.000
 3362.00    0.21619   0.37987   -1.000
 3363.00    0.22771   0.41991   -1.000
 3364.00    0.25331   0.44512   -1.000
 3365.00    0.26184   0.44429   -1.000
 3366.00    0.26611   0.42219   -1.000
 3367.00    0.25714   0.39549   -1.000
 3368.00    0.24168   0.37518   -1.000
 3369.00    0.23462   0.36670   -1.000
 3370.00    0.23348   0.36403   -1.000
 3371.00    0.22748   0.36151   -1.000
 3372.00    0.23427   0.36399   -1.000
 3373.00    0.24551   0.38169   -1.000
 3374.00    0.25848   0.41097   -1.000
 3375.00    0.26935   0.44516   -1.000
 3376.00    0.28654   0.46493   -1.000
 3377.00    0.29387   0.45586   -1.000
 3378.00    0.29980   0.42806   -1.000
 3379.00    0.29338   0.40032   -1.000
 3380.00    0.29067   0.38929   -1.000
 3381.00    0.28423   0.40032   -1.000
 3382.00    0.28022   0.42091   -1.000
 3383.00    0.28628   0.43849   -1.000
 3384.00    0.29860   0.44944   -1.000
 3385.00    0.30796   0.46048   -1.000
 3386.00    0.30897   0.46497   -1.000
 3387.00    0.31161   0.46197   -1.000
 3388.00    0.32360   0.45774   -1.000
 3389.00    0.32938   0.45587   -1.000
 3390.00    0.33320   0.45037   -1.000
 3391.00    0.32952   0.43618   -1.000
 3392.00    0.32617   0.42037   -1.000
 3393.00    0.32455   0.41686   -1.000
 3394.00    0.33309   0.43068   -1.000
 3395.00    0.35257   0.45585   -1.000
 3396.00    0.35609   0.47799   -1.000
 3397.00    0.37407   0.49684   -1.000
 3398.00    0.38895   0.50880   -1.000
 3399.00    0.39858   0.50996   -1.000
 3400.00    0.41256   0.50212   -1.000
 3401.00    0.40251   0.48869   -1.000
 3402.00    0.40069   0.47081   41.312
 3403.00    0.40249   0.45738   41.759
 3404.00    0.39087   0.45119   42.489
 3405.00    0.39190   0.44687   43.266
 3406.00    0.38476   0.43941   43.971
 3407.00    0.37706   0.43106   44.178
 3408.00    0.37489   0.42969   44.884
 3409.00    0.37260   0.43789   45.134
 3410.00    0.37338   0.45009   -1.000
 3411.00    0.38189   0.45065   43.506
 3412.00    0.38615   0.43733   43.155
 3413.00    0.38866   0.42061   45.009
 3414.00    0.37021   0.41314   45.850
 3415.00    0.35646   0.42198   45.757
 3416.00    0.37240   0.44030   44.628
 3417.00    0.39334   0.46255   42.716
 3418.00    0.41232   0.48274   40.695
 3419.00    0.42392   0.49943   38.639
 3420.00    0.41696   0.50403   -1.000
 3421.00    0.42229   0.49433   38.193
 3422.00    0.41973   0.47729   38.421
 3423.00    0.41791   0.46708   39.541
 3424.00    0.41710   0.46518   40.440
 3425.00    0.42224   0.46809   39.308
 3426.00    0.42210   0.47405   38.270
 3427.00    0.42900   0.48502   38.053
 3428.00    0.44541   0.50610   -1.000
 3429.00    0.45499   0.52458   -1.000
 3430.00    0.46051   0.52186   -1.000
 3431.00    0.45130   0.50233   -1.000
 3432.00    0.44542   0.47924   -1.000
 3433.00    0.43895   0.47036   39.353
 3434.00    0.43840   0.47696   37.947
 3435.00    0.44024   0.48586   -1.000
 3436.00    0.44011   0.48538   -1.000
 3437.00    0.43469   0.47294   39.068
 3438.00    0.41781   0.44870   39.668
 3439.00    0.40039   0.41601   42.049
 3440.00    0.38251   0.38431   45.389
 3441.00    0.36483   0.36319   47.257
 3442.00    0.35797   0.36354   47.373
 3443.00    0.36042   0.37687   47.176
 3444.00    0.38010   0.39405   45.333
 3445.00    0.39017   0.41105   42.862
 3446.00    0.40086   0.43222   40.489
 3447.00    0.42282   0.45638   39.065
 3448.00    0.44039   0.48129   -1.000
 3449.00    0.45606   0.49797   -1.000
 3450.00    0.46833   0.49586   -1.000
 3451.00    0.47683   0.47843  324.424
 3452.00    0.46811   0.46025   -1.000
 3453.00    0.45887   0.45496  324.424
 3454.00    0.46040   0.46439  324.424
 3455.00    0.46968   0.47454  324.424
 3456.00    0.47640   0.47339  324.424
 3457.00    0.47261   0.45812   -1.000
 3458.00    0.45658   0.43737   -1.000
 3459.00    0.44182   0.42275   39.191
 3460.00    0.43722   0.41281   38.546
 3461.00    0.43212   0.41646   38.306
 3462.00    0.43439   0.43670  288.077
 3463.00    0.44711   0.45936   -1.000
 3464.00    0.47834   0.46440   -1.000
 3465.00    0.49261   0.46094   -1.000
 3466.00    0.47597   0.45922   -1.000
 3467.00    0.46856   0.46835  324.424
 3468.00    0.48724   0.48375  324.424
 3469.00    0.49720   0.49435  323.942
 3470.00    0.51275   0.49728   -1.000
 3471.00    0.50671   0.48824   -1.000
 3472.00    0.49359   0.46906   -1.000
 3473.00    0.47408   0.44316   -1.000
 3474.00    0.45577   0.41686   -1.000
 3475.00    0.44192   0.39947   39.525
 3476.00    0.43481   0.40502   39.768
 3477.00    0.44352   0.42696   38.946
 3478.00    0.46333   0.45290   -1.000
 3479.00    0.48601   0.47140   -1.000
 3480.00    0.49751   0.47847   -1.000
 3481.00    0.49223   0.47489   -1.000
 3482.00    0.49979   0.46414   -1.000
 3483.00    0.49629   0.45387   -1.000
 3484.00    0.48149   0.45451   -1.000
 3485.00    0.49863   0.47099   -1.000
 3486.00    0.52082   0.49215   -1.000
 3487.00    0.52117   0.49736   -1.000
 3488.00    0.52158   0.47871   -1.000
 3489.00    0.49637   0.44962   -1.000
 3490.00    0.46455   0.42952   -1.000
 3491.00    0.45781   0.42968   -1.000
 3492.00    0.45743   0.44131   -1.000
 3493.00    0.47284   0.45134   -1.000
 3494.00    0.47507   0.45114   -1.000
 3495.00    0.47486   0.44006   -1.000
 3496.00    0.46738   0.43255   -1.000
 3497.00    0.45967   0.44248   -1.000
 3498.00    0.47399   0.47145  324.424
 3499.00    0.50555   0.49592   -1.000
 3500.00    0.53034   0.50224   -1.000
 3501.00    0.53842   0.50601   -1.000
 3502.00    0.54331   0.51315   -1.000
 3503.00    0.55362   0.51891   -1.000
 3504.00    0.54595   0.51304   -1.000
 3505.00    0.54397   0.49992   -1.000
 3506.00    0.53731   0.49243   -1.000
 3507.00    0.52721   0.49264   -1.000
 3508.00    0.52954   0.49190   -1.000
 3509.00    0.53217   0.48253   -1.000
 3510.00    0.51997   0.47040   -1.000
 3511.00    0.50321   0.45897   -1.000
 3512.00    0.49411   0.44885   -1.000
 3513.00    0.48598   0.43771   -1.000
 3514.00    0.46828   0.43816   -1.000
 3515.00    0.48093   0.45954   -1.000
 3516.00    0.51699   0.49348   -1.000
 3517.00    0.53872   0.52001   -1.000
 3518.00    0.53924   0.52545   -1.000
 3519.00    0.54024   0.50918   -1.000
 3520.00    0.51294   0.48291   -1.000
 3521.00    0.49398   0.45736   -1.000
 3522.00    0.48390   0.43992   -1.000
 3523.00    0.47404   0.42037   -1.000
 3524.00    0.44490   0.40372   39.202
 3525.00    0.43175   0.39999   39.361
 3526.00    0.43909   0.41648   39.141
 3527.00    0.45828   0.44882   -1.000
 3528.00    0.48852   0.48341  324.424
 3529.00    0.50379   0.50310  321.258
 3530.00    0.51616   0.50523   -1.000
 3531.00    0.51931   0.49726   -1.000
 3532.00    0.50709   0.49615   -1.000
 3533.00    0.50785   0.50469  321.113
 3534.00    0.51762   0.51707  315.764
 3535.00    0.53421   0.52414   -1.000
 3536.00    0.53803   0.52483   -1.000
 3537.00    0.53610   0.52935  305.889
 3538.00    0.53205   0.53932  302.644
 3539.00    0.53389   0.54414   -1.000
 3540.00    0.54848   0.53794   -1.000
 3541.00    0.52855   0.52804  306.937
 3542.00    0.52807   0.52978  309.639
 3543.00    0.52729   0.54018   -1.000
 3544.00    0.53393   0.54891   -1.000
 3545.00    0.53589   0.54892   -1.000
 3546.00    0.53159   0.54112  307.628
 3547.00    0.52508   0.53597   -1.000
 3548.00    0.52817   0.53678  316.045
 3549.00    0.52540   0.54085   -1.000
 3550.00    0.52763   0.54143   -1.000
 3551.00    0.52126   0.53457   -1.000
 3552.00    0.50225   0.52043   -1.000
 3553.00    0.49102   0.50777   -1.000
 3554.00    0.48069   0.50535   -1.000
 3555.00    0.47695   0.51114   -1.000
 3556.00    0.49246   0.51610   -1.000
 3557.00    0.49417   0.51431   -1.000
 3558.00    0.49132   0.50702   -1.000
 3559.00    0.48625   0.50498   -1.000
 3560.00    0.48741   0.51417   -1.000
 3561.00    0.48930   0.52961   -1.000
 3562.00    0.49525   0.53782   -1.000
 3563.00    0.50239   0.52048   -1.000
 3564.00    0.48212   0.47680  324.424
 3565.00    0.44700   0.43717   39.604
 3566.00    0.42071   0.42736   39.942
 3567.00    0.42054   0.43148   39.528
 3568.00    0.43579   0.42882   39.303
 3569.00    0.43121   0.41366   40.614
 3570.00    0.41462   0.40245   41.377
 3571.00    0.41726   0.41129   40.123
 3572.00    0.43192   0.43126   38.336
 3573.00    0.44780   0.44619  285.167
 3574.00    0.45738   0.45465  324.424
 3575.00    0.46038   0.45809  324.424
 3576.00    0.46450   0.45944  324.424
 3577.00    0.46725   0.45372   -1.000
 3578.00    0.45269   0.43707   -1.000
 3579.00    0.42577   0.40758   40.946
 3580.00    0.40724   0.38182   42.774
 3581.00    0.37982   0.37028   45.147
 3582.00    0.37515   0.37492   45.489
 3583.00    0.37776   0.38179   45.679
 3584.00    0.38059   0.37701   46.815
 3585.00    0.36933   0.36482   48.356
 3586.00    0.36780   0.36116   49.059
 3587.00    0.37219   0.37122   46.642
 3588.00    0.38804   0.39329   44.155
 3589.00    0.40421   0.42489   42.017
 3590.00    0.42339   0.45726   38.285
 3591.00    0.45766   0.48221   -1.000
 3592.00    0.47982   0.49005   -1.000
 3593.00    0.48336   0.49036  324.424
 3594.00    0.48779   0.49558  324.424
 3595.00    0.50123   0.51282   -1.000
 3596.00    0.52153   0.53318   -1.000
 3597.00    0.53995   0.54665  298.003
 3598.00    0.55599   0.55860  290.172
 3599.00    0.56850   0.56596  285.357
 3600.00    0.56621   0.55959  288.639
 3601.00    0.55107   0.53580   -1.000
 3602.00    0.53105   0.50502   -1.000
 3603.00    0.50679   0.47835   -1.000
 3604.00    0.49559   0.46682   -1.000
 3605.00    0.49059   0.46835   -1.000
 3606.00    0.47939   0.46889   -1.000
 3607.00    0.48613   0.45894   -1.000
 3608.00    0.46893   0.44175   -1.000
 3609.00    0.44564   0.43522   -1.000
 3610.00    0.44747   0.44996  324.424
 3611.00    0.47939   0.47264  324.424
 3612.00    0.49293   0.48551  324.424
 3613.00    0.49750   0.49705  324.424
 3614.00    0.51209   0.51141  321.814
 3615.00    0.52189   0.52294  310.147
 3616.00    0.52711   0.51163   -1.000
 3617.00    0.50261   0.47050   -1.000
 3618.00    0.46201   0.43168   -1.000
 3619.00    0.44279   0.43170   39.034
 3620.00    0.44723   0.46000   -1.000
 3621.00    0.49513   0.49782  324.424
 3622.00    0.52962   0.52388  306.142
 3623.00    0.54491   0.53884  298.617
 3624.00    0.55366   0.55519  294.875
 3625.00    0.57174   0.58377   -1.000
 3626.00    0.59223   0.61178   -1.000
 3627.00    0.60959   0.62620   -1.000
 3628.00    0.60744   0.61149  272.756
 3629.00    0.57395   0.56281   -1.000
 3630.00    0.52697   0.50102   -1.000
 3631.00    0.48273   0.46430   -1.000
 3632.00    0.46422   0.46028  324.424
 3633.00    0.47917   0.48123  324.424
 3634.00    0.49807   0.50322  324.424
 3635.00    0.50877   0.51827  324.424
 3636.00    0.52278   0.52730  312.931
 3637.00    0.54772   0.54564  298.194
 3638.00    0.56880   0.57057  284.742
 3639.00    0.58727   0.59262  275.132
 3640.00    0.60009   0.59910  274.649
 3641.00    0.58917   0.58518  281.467
 3642.00    0.57427   0.55945   -1.000
 3643.00    0.54503   0.53461   -1.000
 3644.00    0.53317   0.51722   -1.000
 3645.00    0.52626   0.50569   -1.000
 3646.00    0.50948   0.49292   -1.000
 3647.00    0.49630   0.48145   -1.000
 3648.00    0.48750   0.48220  324.424
 3649.00    0.49754   0.49551  323.696
 3650.00    0.52294   0.52187  310.656
 3651.00    0.54077   0.55287   -1.000
 3652.00    0.56870   0.58169   -1.000
 3653.00    0.59273   0.59737  276.113
 3654.00    0.60339   0.60558  272.224
 3655.00    0.60811   0.61195  271.264
 3656.00    0.61269   0.62471   -1.000
 3657.00    0.63101   0.63909  265.372
 3658.00    0.63267   0.64622   -1.000
 3659.00    0.63827   0.64775  261.063
 3660.00    0.63281   0.64284  261.041
 3661.00    0.63177   0.63165  263.908
 3662.00    0.62607   0.61636  266.741
 3663.00    0.60285   0.60495  271.311
 3664.00    0.60342   0.60092  273.422
 3665.00    0.61158   0.60378  270.160
 3666.00    0.61225   0.60426  270.283
 3667.00    0.61012   0.59564   -1.000
 3668.00    0.59759   0.57885   -1.000
 3669.00    0.57654   0.57104  285.908
 3670.00    0.57507   0.58365  284.199
 3671.00    0.60552   0.60642  273.596
 3672.00    0.62275   0.62267  268.024
 3673.00    0.62054   0.62582  267.017
 3674.00    0.62654   0.62003  266.943
 3675.00    0.62438   0.60605   -1.000
 3676.00    0.61532   0.58481   -1.000
 3677.00    0.59565   0.56150   -1.000
 3678.00    0.56955   0.53989   -1.000
 3679.00    0.55350   0.52902   -1.000
 3680.00    0.55111   0.53232   -1.000
 3681.00    0.56305   0.54751   -1.000
 3682.00    0.57555   0.56385   -1.000
 3683.00    0.58020   0.57198  280.850
 3684.00    0.58202   0.56269   -1.000
 3685.00    0.56703   0.53601   -1.000
 3686.00    0.54560   0.50839   -1.000
 3687.00    0.53210   0.50255   -1.000
 3688.00    0.53760   0.52215   -1.000
 3689.00    0.56330   0.56076  288.348
 3690.00    0.59945   0.60003  269.217
 3691.00    0.62971   0.62127  260.926
 3692.00    0.64071   0.61583   -1.000
 3693.00    0.62722   0.60214   -1.000
 3694.00    0.61666   0.59322   -1.000
 3695.00    0.61238   0.58876   -1.000
 3696.00    0.60410   0.59210   -1.000
 3697.00    0.61791   0.60732  266.942
 3698.00    0.63878   0.63395  258.222
 3699.00    0.65658   0.65633  251.640
 3700.00    0.66999   0.66302  248.236
 3701.00    0.66859   0.64522   -1.000
 3702.00    0.64316   0.60030   -1.000
 3703.00    0.59430   0.54239   -1.000
 3704.00    0.55170   0.49483   -1.000
 3705.00    0.52265   0.46969   -1.000
 3706.00    0.51061   0.47360   -1.000
 3707.00    0.52045   0.48572   -1.000
 3708.00    0.52620   0.49870   -1.000
 3709.00    0.53276   0.51308   -1.000
 3710.00    0.55850   0.53449   -1.000
 3711.00    0.58893   0.56194   -1.000
 3712.00    0.62281   0.60062   -1.000
 3713.00    0.65861   0.63507   -1.000
 3714.00    0.68216   0.65416   -1.000
 3715.00    0.68631   0.65446   -1.000
 3716.00    0.66694   0.63670   -1.000
 3717.00    0.64428   0.59898   -1.000
 3718.00    0.59755   0.54377   -1.000
 3719.00    0.53231   0.47464   -1.000
 3720.00    0.47483   0.42023   -1.000
 3721.00    0.44590   0.40832   39.861
 3722.00    0.45723   0.43682   -1.000
 3723.00    0.51355   0.49251   -1.000
 3724.00    0.57082   0.55113   -1.000
 3725.00    0.60648   0.58128   -1.000
 3726.00    0.61516   0.57702   -1.000
 3727.00    0.59889   0.56909   -1.000
 3728.00    0.58389   0.57441   -1.000
 3729.00    0.59579   0.58007   -1.000
 3730.00    0.60008   0.56951   -1.000
 3731.00    0.57080   0.52873   -1.000
 3732.00    0.53108   0.46606   -1.000
 3733.00    0.47629   0.40783   39.125
 3734.00    0.42758   0.36612   42.328
 3735.00    0.39954   0.35847   44.014
 3736.00    0.40377   0.38495   41.903
 3737.00    0.43445   0.43595   37.993
 3738.00    0.49227   0.49842  261.879
 3739.00    0.54109   0.55856   -1.000
 3740.00    0.58863   0.59051  284.231
 3741.00    0.60161   0.59176   -1.000
 3742.00    0.58410   0.56698   -1.000
 3743.00    0.55568   0.53120   -1.000
 3744.00    0.52744   0.49507   -1.000
 3745.00    0.49715   0.47134   -1.000
 3746.00    0.47194   0.44813   -1.000
 3747.00    0.45495   0.41905   39.694
 3748.00    0.42707   0.38724   40.851
 3749.00    0.41610   0.37908   41.350
 3750.00    0.43835   0.41129   -1.000
 3751.00    0.48883   0.47296   -1.000
 3752.00    0.55286   0.53698   -1.000
 3753.00    0.59949   0.59444  272.016
 3754.00    0.63693   0.63529  257.579
 3755.00    0.66502   0.64053   -1.000
 3756.00    0.64819   0.60602   -1.000
 3757.00    0.59447   0.55317   -1.000
 3758.00    0.53610   0.51493   -1.000
 3759.00    0.52053   0.51310   -1.000
 3760.00    0.54026   0.53250   -1.000
 3761.00    0.56557   0.55049   -1.000
 3762.00    0.57878   0.55688   -1.000
 3763.00    0.57750   0.55924   -1.000
 3764.00    0.57854   0.55902   -1.000
 3765.00    0.57697   0.55024   -1.000
 3766.00    0.57123   0.53632   -1.000
 3767.00    0.56274   0.52555   -1.000
 3768.00    0.56026   0.51792   -1.000
 3769.00    0.56772   0.51204   -1.000
 3770.00    0.57105   0.51408   -1.000
 3771.00    0.57830   0.53401   -1.000
 3772.00    0.60851   0.56924   -1.000
 3773.00    0.63455   0.60044   -1.000
 3774.00    0.64400   0.61516   -1.000
 3775.00    0.64653   0.62394   -1.000
 3776.00    0.64664   0.63308   -1.000
 3777.00    0.65545   0.64686  261.126
 3778.00    0.66853   0.66595  257.509
 3779.00    0.67905   0.68516  248.882
 3780.00    0.69776   0.70100  243.041
 3781.00    0.70840   0.70974  241.348
 3782.00    0.70874   0.71466  239.879
 3783.00    0.71717   0.71312  239.996
 3784.00    0.71464   0.69487   -1.000
 3785.00    0.68728   0.65716   -1.000
 3786.00    0.64683   0.61663   -1.000
 3787.00    0.60377   0.58584   -1.000
 3788.00    0.58839   0.57141   -1.000
 3789.00    0.58072   0.57294   -1.000
 3790.00    0.58032   0.58263  292.185
 3791.00    0.59024   0.58782  289.158
 3792.00    0.59293   0.57762   -1.000
 3793.00    0.57411   0.55256   -1.000
 3794.00    0.54531   0.52422   -1.000
 3795.00    0.52942   0.49619   -1.000
 3796.00    0.51154   0.46714   -1.000
 3797.00    0.48425   0.43643   -1.000
 3798.00    0.47061   0.42771   -1.000
 3799.00    0.49313   0.46058   -1.000
 3800.00    0.52941   0.51866   -1.000
 3801.00    0.57170   0.57763  287.415
 3802.00    0.60078   0.62499   -1.000
 3803.00    0.62626   0.64949   -1.000
 3804.00    0.64551   0.65483  266.931
 3805.00    0.62966   0.64087  270.983
 3806.00    0.60540   0.62255   -1.000
 3807.00    0.59760   0.62209   -1.000
 3808.00    0.60895   0.64424   -1.000
 3809.00    0.63243   0.67175   -1.000
 3810.00    0.64557   0.68352   -1.000
 3811.00    0.64413   0.66773   -1.000
 3812.00    0.62491   0.63020  285.253
 3813.00    0.59686   0.58733   -1.000
 3814.00    0.55613   0.55230  321.220
 3815.00    0.52950   0.54226   -1.000
 3816.00    0.52973   0.55508   -1.000
 3817.00    0.54775   0.56648   -1.000
 3818.00    0.55306   0.55599  322.952
 3819.00    0.52255   0.52674  324.424
 3820.00    0.49361   0.50605  324.424
 3821.00    0.49327   0.51267   -1.000
 3822.00    0.51133   0.52826   -1.000
 3823.00    0.51936   0.52175  324.424
 3824.00    0.49196   0.49380  324.424
 3825.00    0.45786   0.46790   41.065
 3826.00    0.44963   0.45575   40.550
 3827.00    0.44520   0.45699   40.218
 3828.00    0.44995   0.46369   39.569
 3829.00    0.45271   0.46645   38.918
 3830.00    0.45602   0.45753   39.390
 3831.00    0.44601   0.43510   41.180
 3832.00    0.42048   0.40527   44.483
 3833.00    0.39764   0.37654   45.878
 3834.00    0.39404   0.36357   44.999
 3835.00    0.40741   0.36781   43.180
 3836.00    0.41766   0.38054   42.225
 3837.00    0.41402   0.39056   43.108
 3838.00    0.40745   0.39873   44.155
 3839.00    0.40799   0.41426   43.390
 3840.00    0.43318   0.44800   40.920
 3841.00    0.46817   0.49661   -1.000
 3842.00    0.51902   0.54399   -1.000
 3843.00    0.55114   0.58236   -1.000
 3844.00    0.56708   0.60041   -1.000
 3845.00    0.57034   0.60963   -1.000
 3846.00    0.56894   0.61890   -1.000
 3847.00    0.57406   0.62538   -1.000
 3848.00    0.57294   0.61896   -1.000
 3849.00    0.54911   0.60856   -1.000
 3850.00    0.54012   0.60758   -1.000
 3851.00    0.54858   0.61912   -1.000
 3852.00    0.56529   0.63129   -1.000
 3853.00    0.56593   0.63023   -1.000
 3854.00    0.55985   0.61372   -1.000
 3855.00    0.54138   0.59645   -1.000
 3856.00    0.53358   0.58023   -1.000
 3857.00    0.52519   0.56013   -1.000
 3858.00    0.50181   0.53764   38.901
 3859.00    0.47059   0.52876   39.944
 3860.00    0.47335   0.54669   39.103
 3861.00    0.50802   0.58552   -1.000
 3862.00    0.55313   0.62367   -1.000
 3863.00    0.59280   0.63909   -1.000
 3864.00    0.59772   0.63410   -1.000
 3865.00    0.58916   0.62666   -1.000
 3866.00    0.57801   0.62292   -1.000
 3867.00    0.57048   0.62227   -1.000
 3868.00    0.55457   0.61852   -1.000
 3869.00    0.53116   0.60315   -1.000
 3870.00    0.51391   0.57659   -1.000
 3871.00    0.49650   0.55291   39.411
 3872.00    0.50249   0.54920   -1.000
 3873.00    0.53847   0.57114   -1.000
 3874.00    0.58634   0.60810   -1.000
 3875.00    0.61014   0.63006   -1.000
 3876.00    0.60383   0.61555  302.363
 3877.00    0.57101   0.58396  324.424
 3878.00    0.52940   0.56458   -1.000
 3879.00    0.51920   0.56302   -1.000
 3880.00    0.52009   0.56821   -1.000
 3881.00    0.50569   0.56906   -1.000
 3882.00    0.50253   0.56891   -1.000
 3883.00    0.53612   0.57149   -1.000
 3884.00    0.57902   0.56257   -1.000
 3885.00    0.57706   0.53068   -1.000
 3886.00    0.54711   0.48602   -1.000
 3887.00    0.52867   0.45403   -1.000
 3888.00    0.52940   0.44819   -1.000
 3889.00    0.54656   0.47566   -1.000
 3890.00    0.58704   0.52634   -1.000
 3891.00    0.64167   0.58324   -1.000
 3892.00    0.68218   0.62128   -1.000
 3893.00    0.69366   0.62977   -1.000
 3894.00    0.68209   0.62768   -1.000
 3895.00    0.67973   0.63306   -1.000
 3896.00    0.69358   0.64788   -1.000
 3897.00    0.70845   0.65864   -1.000
 3898.00    0.71089   0.65837   -1.000
 3899.00    0.70387   0.65759   -1.000
 3900.00    0.70523   0.66617   -1.000
 3901.00    0.71161   0.67461   -1.000
 3902.00    0.71145   0.67276   -1.000
 3903.00    0.70298   0.65790   -1.000
 3904.00    0.68465   0.63837   -1.000
 3905.00    0.65540   0.63304   -1.000
 3906.00    0.65555   0.64733  274.570
 3907.00    0.68851   0.68060  258.550
 3908.00    0.73422   0.71929   -1.000
 3909.00    0.76982   0.74562   -1.000
 3910.00    0.78390   0.75804   -1.000
 3911.00    0.79272   0.76529   -1.000
 3912.00    0.80048   0.76588   -1.000
 3913.00    0.78510   0.75954   -1.000
 3914.00    0.76271   0.74891   -1.000
 3915.00    0.75708   0.73659   -1.000
 3916.00    0.75511   0.72526   -1.000
 3917.00    0.74179   0.71243   -1.000
 3918.00    0.72846   0.69155   -1.000
 3919.00    0.69902   0.66599   -1.000
 3920.00    0.65988   0.64508   -1.000
 3921.00    0.64763   0.63745   -1.000
 3922.00    0.65096   0.64604  283.776
 3923.00    0.66270   0.65729  278.529
 3924.00    0.67140   0.65491   -1.000
 3925.00    0.65691   0.63283   -1.000
 3926.00    0.61517   0.59313   -1.000
 3927.00    0.55431   0.54344   -1.000
 3928.00    0.50012   0.48934   43.498
 3929.00    0.44453   0.43806   49.021
 3930.00    0.39192   0.38274   57.351
 3931.00    0.33403   0.32973   67.863
 3932.00    0.27827   0.28312   79.408
 3933.00    0.24619   0.25880   86.901
 3934.00    0.24319   0.27049   83.517
 3935.00    0.27684   0.31469   72.609
 3936.00    0.33001   0.37474   60.084
 3937.00    0.39582   0.44146   49.339
 3938.00    0.45649   0.50496   41.454
 3939.00    0.51888   0.55475   -1.000
 3940.00    0.56319   0.59095   -1.000
 3941.00    0.58567   0.60575   -1.000
 3942.00    0.58888   0.60777   -1.000
 3943.00    0.57449   0.60811   -1.000
 3944.00    0.57771   0.62203   -1.000
 3945.00    0.62808   0.65068   -1.000
 3946.00    0.68069   0.67583  262.245
 3947.00    0.70907   0.68847   -1.000
 3948.00    0.71127   0.69781   -1.000
 3949.00    0.72335   0.71408  247.939
 3950.00    0.75344   0.72846   -1.000
 3951.00    0.76412   0.72861   -1.000
 3952.00    0.75151   0.72880   -1.000
 3953.00    0.75583   0.73649   -1.000
 3954.00    0.77314   0.74239   -1.000
 3955.00    0.77412   0.73446   -1.000
 3956.00    0.74825   0.71899   -1.000
 3957.00    0.73303   0.71396   -1.000
 3958.00    0.73553   0.71532   -1.000
 3959.00    0.72891   0.69556   -1.000
 3960.00    0.67198   0.64562   -1.000
 3961.00    0.60048   0.58792   -1.000
 3962.00    0.54576   0.54193  324.424
 3963.00    0.51444   0.51345  324.424
 3964.00    0.49003   0.48016   40.951
 3965.00    0.43949   0.42744   46.190
 3966.00    0.36623   0.35429   56.929
 3967.00    0.30364   0.28897   69.669
 3968.00    0.26262   0.25675   77.181
 3969.00    0.26177   0.26471   71.955
 3970.00    0.29937   0.30755   59.441
 3971.00    0.36230   0.37196   48.831
 3972.00    0.43569   0.44120   40.835
 3973.00    0.50360   0.50759  272.187
 3974.00    0.56599   0.57144  310.733
 3975.00    0.63058   0.62571  279.842
 3976.00    0.67799   0.67472  257.793
 3977.00    0.71924   0.71822  242.537
 3978.00    0.77041   0.76047  229.793
 3979.00    0.81229   0.79508   -1.000
 3980.00    0.83977   0.80772   -1.000
 3981.00    0.83498   0.80339   -1.000
 3982.00    0.82165   0.79429   -1.000
 3983.00    0.82899   0.79674   -1.000
 3984.00    0.84427   0.81018   -1.000
 3985.00    0.85865   0.82535   -1.000
 3986.00    0.88019   0.84294   -1.000
 3987.00    0.88686   0.86110   -1.000
 3988.00    0.90549   0.87258   -1.000
 3989.00    0.91252   0.87721   -1.000
 3990.00    0.89876   0.88153   -1.000
 3991.00    0.91282   0.89262   -1.000
 3992.00    0.94426   0.90639   -1.000
 3993.00    0.94525   0.90944   -1.000
 3994.00    0.92552   0.89756   -1.000
 3995.00    0.90570   0.87734   -1.000
 3996.00    0.88419   0.85840   -1.000
 3997.00    0.87124   0.85699  207.868
 3998.00    0.88001   0.87580  203.229
 3999.00    0.92218   0.90445   -1.000
 4000.00    0.95942   0.93198   -1.000
 4001.00    0.97891   0.95012   -1.000
 4002.00    0.98543   0.94946   -1.000
 4003.00    0.97958   0.92328   -1.000
 4004.00    0.93631   0.87710   -1.000
 4005.00    0.87360   0.84056   -1.000
 4006.00    0.86940   0.84594   -1.000
 4007.00    0.91461   0.88456   -1.000
 4008.00    0.95531   0.92677   -1.000
 4009.00    0.97985   0.95004   -1.000
 4010.00    0.98965   0.95860   -1.000
 4011.00    0.98493   0.96168   -1.000
 4012.00    0.98243   0.96410   -1.000
 4013.00    0.98810   0.96949   -1.000
 4014.00    0.99851   0.97559   -1.000
 4015.00    1.00571   0.97652   -1.000
 4016.00    1.00734   0.97279   -1.000
 4017.00    0.99573   0.97286   -1.000
 4018.00    1.00000   0.98265   -1.000
 4019.00    1.01922   0.99285   -1.000
 4020.00    1.02228   0.99756   -1.000
 4021.00    1.01780   0.99217   -1.000
 4022.00    1.01364   0.98352   -1.000
 4023.00    1.00402   0.97403   -1.000
 4024.00    0.99275   0.96800   -1.000
 4025.00    1.00275   0.97533   -1.000
 4026.00    1.03434   0.99783   -1.000
 4027.00    1.06032   1.01947   -1.000
 4028.00    1.06185   1.01086   -1.000
 4029.00    1.02202   0.96678   -1.000
 4030.00    0.96293   0.90868   -1.000
 4031.00    0.91438   0.86666   -1.000
 4032.00    0.89750   0.85006   -1.000
 4033.00    0.89721   0.85761   -1.000
 4034.00    0.91398   0.88830   -1.000
 4035.00    0.95892   0.93811   -1.000
 4036.00    1.02027   0.99390   -1.000
 4037.00    1.06195   1.04042   -1.000
 4038.00    1.08045   1.05215   -1.000
 4039.00    1.07037   1.03479   -1.000
 4040.00    1.03773   1.01639   -1.000
 4041.00    1.02102   1.00821  178.980
 4042.00    1.03184   0.98870   -1.000
 4043.00    0.99583   0.93588   -1.000
 4044.00    0.90597   0.85584   -1.000
 4045.00    0.82560   0.80878   -1.000
 4046.00    0.83018   0.83195  214.235
 4047.00    0.91195   0.90241  193.369
 4048.00    0.99710   0.97145   -1.000
 4049.00    1.04178   1.01753   -1.000
 4050.00    1.06393   1.03232   -1.000
 4051.00    1.05646   1.02674   -1.000
 4052.00    1.02640   1.00626   -1.000
 4053.00    1.00028   0.98126   -1.000
 4054.00    0.98492   0.96430   -1.000
 4055.00    0.97409   0.95298   -1.000
 4056.00    0.95832   0.93900   -1.000
 4057.00    0.94856   0.93162   -1.000
 4058.00    0.95236   0.94399  190.403
 4059.00    0.97387   0.97269  183.480
 4060.00    1.01417   0.98679   -1.000
 4061.00    1.01037   0.95759   -1.000
 4062.00    0.94889   0.90020   -1.000
 4063.00    0.87619   0.85809   -1.000
 4064.00    0.86796   0.85347   -1.000
 4065.00    0.91813   0.87522   -1.000
 4066.00    0.95792   0.90535   -1.000
 4067.00    0.97427   0.93518   -1.000
 4068.00    1.00228   0.96074   -1.000
 4069.00    1.02437   0.96276   -1.000
 4070.00    0.99557   0.93219   -1.000
 4071.00    0.95036   0.89904   -1.000
 4072.00    0.94402   0.90015   -1.000
 4073.00    0.97527   0.92675   -1.000
 4074.00    0.98950   0.93839   -1.000
 4075.00    0.95999   0.90845   -1.000
 4076.00    0.90405   0.86353   -1.000
 4077.00    0.86090   0.84385   -1.000
 4078.00    0.87303   0.86700  209.290
 4079.00    0.92819   0.92311  194.884
 4080.00    0.99322   0.98043  181.420
 4081.00    1.03468   1.00767   -1.000
 4082.00    1.02407   0.99641   -1.000
 4083.00    0.99569   0.96844   -1.000
 4084.00    0.97675   0.95288   -1.000
 4085.00    0.98091   0.96625  185.059
 4086.00    1.01237   1.00172  178.790
 4087.00    1.05603   1.03944  171.897
 4088.00    1.09349   1.06196   -1.000
 4089.00    1.09308   1.05841   -1.000
 4090.00    1.07558   1.03759   -1.000
 4091.00    1.05148   1.01722   -1.000
 4092.00    1.04005   1.00765   -1.000
 4093.00    1.04261   0.99612   -1.000
 4094.00    1.03037   0.97366   -1.000
 4095.00    0.99734   0.93762   -1.000
 4096.00    0.94764   0.90377   -1.000
 4097.00    0.92782   0.87830   -1.000
 4098.00    0.92119   0.84788   -1.000
 4099.00    0.89005   0.79757   -1.000
 4100.00    0.82791   0.73271   -1.000
 4101.00    0.75739   0.69366   -1.000
 4102.00    0.75517   0.70820   -1.000
 4103.00    0.80892   0.76960   -1.000
 4104.00    0.87721   0.84664   -1.000
 4105.00    0.93850   0.90764   -1.000
 4106.00    0.97499   0.94042   -1.000
 4107.00    0.99350   0.95627   -1.000
 4108.00    0.98568   0.95713   -1.000
 4109.00    0.97464   0.95136   -1.000
 4110.00    0.96373   0.95013  193.004
 4111.00    0.96032   0.95884  190.623
 4112.00    0.97651   0.97585  186.295
 4113.00    1.00008   0.99788  183.087
 4114.00    1.02433   1.02183  180.269
 4115.00    1.04017   1.03566  178.503
 4116.00    1.04062   1.03124  179.378
 4117.00    1.02340   1.01167  183.213
 4118.00    0.99738   0.99108  189.447
 4119.00    0.98198   0.98083  191.692
 4120.00    0.99070   0.98486  189.300
 4121.00    1.00187   0.99315  187.329
 4122.00    0.99607   0.99962  187.518
 4123.00    0.99313   1.00837   -1.000
 4124.00    1.02075   1.02071  182.200
 4125.00    1.02924   1.02692  181.573
 4126.00    1.02268   1.01805  184.024
 4127.00    1.01088   1.00239  188.022
 4128.00    0.99294   0.99244  189.592
 4129.00    0.98470   0.98590  190.545
 4130.00    0.97343   0.96827  192.949
 4131.00    0.95536   0.93922   -1.000
 4132.00    0.92675   0.91547  205.377
 4133.00    0.91694   0.92036  205.951
 4134.00    0.94243   0.95593   -1.000
 4135.00    0.98951   1.00086  189.067
 4136.00    1.02968   1.04073  182.890
 4137.00    1.04826   1.06487   -1.000
 4138.00    1.06415   1.07933   -1.000
 4139.00    1.06892   1.08428   -1.000
 4140.00    1.05794   1.06323  180.028
 4141.00    1.02532   1.00925   -1.000
 4142.00    0.95257   0.94752  205.672
 4143.00    0.89472   0.91247   -1.000
 4144.00    0.89717   0.92693   -1.000
 4145.00    0.95004   0.97448   -1.000
 4146.00    1.00734   1.01580  188.792
 4147.00    1.02272   1.02794  186.812
 4148.00    1.01197   1.01889  190.371
 4149.00    0.99359   1.00910   -1.000
 4150.00    0.97040   1.00914   -1.000
 4151.00    0.96466   1.00969   -1.000
 4152.00    0.96248   1.00272   -1.000
 4153.00    0.96302   0.98814   -1.000
 4154.00    0.96221   0.97533  200.722
 4155.00    0.95108   0.97563   -1.000
 4156.00    0.95461   0.99109   -1.000
 4157.00    1.13574   1.01339   -1.000
 4158.00    1.09213   1.04007   -1.000
 4159.00    0.96318   1.06267   -1.000
 4160.00    0.95190   1.07576   -1.000
 4161.00    1.02319   1.08729   -1.000
 4162.00    1.05524   1.09744   -1.000
 4163.00    1.06044   1.10269   -1.000
 4164.00    1.05463   1.09629   -1.000
 4165.00    1.03275   1.07604   -1.000
 4166.00    1.01010   1.05210   -1.000
 4167.00    0.98314   1.04124   -1.000
 4168.00    0.98291   1.04416   -1.000
 4169.00    1.01214   1.04629   -1.000
 4170.00    1.01309   1.02338  191.958
 4171.00    0.97058   0.97931  203.477
 4172.00    0.90828   0.94013   -1.000
 4173.00    0.88151   0.93286   -1.000
 4174.00    0.90646   0.95705   -1.000
 4175.00    0.94240   0.98607   -1.000
 4176.00    0.95410   0.99845   -1.000
 4177.00    0.94671   1.00436   -1.000
 4178.00    0.94418   1.01765   -1.000
 4179.00    0.96021   1.03182   -1.000
 4180.00    0.96694   1.03363   -1.000
 4181.00    0.97808   1.02282   -1.000
 4182.00    0.98076   1.02014   -1.000
 4183.00    0.99890   1.03859   -1.000
 4184.00    1.03359   1.05667   -1.000
 4185.00    1.03978   1.05283  187.305
 4186.00    1.01873   1.02946  193.693
 4187.00    0.98160   1.01081   -1.000
 4188.00    0.97329   1.01487   -1.000
 4189.00    1.00160   1.03274   -1.000
 4190.00    1.00790   1.04930   -1.000
 4191.00    1.01047   1.06343   -1.000
 4192.00    1.03694   1.08017   -1.000
 4193.00    1.05957   1.08626   -1.000
 4194.00    1.05204   1.06810   -1.000
 4195.00    1.00813   1.02827   -1.000
 4196.00    0.95885   0.98851   -1.000
 4197.00    0.93839   0.96126   -1.000
 4198.00    0.93296   0.95024   -1.000
 4199.00    0.94865   0.94914  206.341
 4200.00    0.97130   0.95667  203.005
 4201.00    0.97111   0.96580  202.466
 4202.00    0.96849   0.97804  201.158
 4203.00    0.98443   1.00026   -1.000
 4204.00    1.00405   1.03188   -1.000
 4205.00    1.02253   1.06337   -1.000
 4206.00    1.03675   1.08974   -1.000
 4207.00    1.06015   1.10710   -1.000
 4208.00    1.08062   1.10963   -1.000
 4209.00    1.07197   1.10332   -1.000
 4210.00    1.07409   1.10084   -1.000
 4211.00    1.08433   1.10874   -1.000
 4212.00    1.08244   1.11196   -1.000
 4213.00    1.06850   1.08811   -1.000
 4214.00    1.01944   1.04610   -1.000
 4215.00    0.98045   1.02089   -1.000
 4216.00    0.99606   1.03273   -1.000
 4217.00    1.06166   1.07873   -1.000
 4218.00    1.12377   1.12618  176.023
 4219.00    1.15894   1.15725  171.136
 4220.00    1.17411   1.16141  169.304
 4221.00    1.17171   1.14084   -1.000
 4222.00    1.14347   1.09266   -1.000
 4223.00    1.08398   1.01476   -1.000
 4224.00    0.99516   0.91629   -1.000
 4225.00    0.88779   0.83301   -1.000
 4226.00    0.79700   0.79897  257.296
 4227.00    0.80647   0.84297   -1.000
 4228.00    0.92739   0.94777   -1.000
 4229.00    1.05308   1.04875  187.094
 4230.00    1.12118   1.09686   -1.000
 4231.00    1.14188   1.10278   -1.000
 4232.00    1.12237   1.08198   -1.000
 4233.00    1.08831   1.05627   -1.000
 4234.00    1.06737   1.03565   -1.000
 4235.00    1.05335   1.02582   -1.000
 4236.00    1.03807   1.02235  194.509
 4237.00    1.04069   1.03006  193.028
 4238.00    1.05307   1.05148  188.455
 4239.00    1.06239   1.07658  185.799
 4240.00    1.08729   1.10013  182.195
 4241.00    1.11786   1.12040  179.750
 4242.00    1.13818   1.13720  178.984
 4243.00    1.14660   1.15703  175.874
 4244.00    1.16421   1.17272  172.140
 4245.00    1.17089   1.16546  173.996
 4246.00    1.13820   1.13010  182.159
 4247.00    1.09720   1.08368  189.100
 4248.00    1.06938   1.04401   -1.000
 4249.00    1.04915   1.02801   -1.000
 4250.00    1.03672   1.03636  195.407
 4251.00    1.05141   1.05789  189.702
 4252.00    1.09053   1.07070   -1.000
 4253.00    1.09997   1.05858   -1.000
 4254.00    1.06861   1.04170   -1.000
 4255.00    1.06061   1.05644  188.077
 4256.00    1.10499   1.09288  180.615
 4257.00    1.13368   1.10347   -1.000
 4258.00    1.09858   1.06901   -1.000
 4259.00    1.04097   1.01889   -1.000
 4260.00    1.00826   1.00147  201.742
 4261.00    1.01955   1.03860   -1.000
 4262.00    1.09025   1.10828   -1.000
 4263.00    1.16933   1.17038  173.230
 4264.00    1.20099   1.19933  169.217
 4265.00    1.21419   1.20052  168.840
 4266.00    1.21415   1.18415   -1.000
 4267.00    1.17550   1.15282   -1.000
 4268.00    1.13538   1.10587   -1.000
 4269.00    1.10042   1.04620   -1.000
 4270.00    1.03008   0.98060   -1.000
 4271.00    0.95437   0.93539   -1.000
 4272.00    0.92716   0.92169  217.263
 4273.00    0.94966   0.93898  212.296
 4274.00    0.97734   0.97325  206.945
 4275.00    1.01780   1.02458  197.609
 4276.00    1.08594   1.08835  184.677
 4277.00    1.14387   1.14172  176.112
 4278.00    1.17190   1.15310   -1.000
 4279.00    1.15684   1.12889   -1.000
 4280.00    1.10853   1.10092  190.525
 4281.00    1.08793   1.09352  190.963
 4282.00    1.09732   1.10270  188.207
 4283.00    1.10824   1.10409  186.504
 4284.00    1.10468   1.09115  188.969
 4285.00    1.07568   1.07438  194.624
 4286.00    1.05031   1.05670  199.527
 4287.00    1.03546   1.03242  202.337
 4288.00    1.00599   0.99344  210.215
 4289.00    0.95707   0.95220  220.836
 4290.00    0.93484   0.94600  221.192
 4291.00    0.97009   0.98375   -1.000
 4292.00    1.03567   1.03179  196.432
 4293.00    1.08197   1.05525   -1.000
 4294.00    1.07835   1.05012   -1.000
 4295.00    1.06027   1.03062   -1.000
 4296.00    1.04523   1.00036   -1.000
 4297.00    1.00947   0.95265   -1.000
 4298.00    0.94324   0.89064   -1.000
 4299.00    0.87581   0.83962   -1.000
 4300.00    0.84650   0.82222   -1.000
 4301.00    0.86537   0.83213   -1.000
 4302.00    0.87959   0.85037   -1.000
 4303.00    0.89702   0.86650   -1.000
 4304.00    0.91489   0.87890   -1.000
 4305.00    0.91862   0.87314   -1.000
 4306.00    0.89523   0.84155   -1.000
 4307.00    0.85574   0.80456   -1.000
 4308.00    0.81857   0.78847   -1.000
 4309.00    0.82910   0.81020   -1.000
 4310.00    0.88980   0.85960   -1.000
 4311.00    0.94188   0.91546   -1.000
 4312.00    0.98839   0.96600   -1.000
 4313.00    1.01651   1.02755  207.368
 4314.00    1.05891   1.10432   -1.000
 4315.00    1.13136   1.19258   -1.000
 4316.00    1.23242   1.27310   -1.000
 4317.00    1.29719   1.31341   -1.000
 4318.00    1.30770   1.31103  159.066
 4319.00    1.28316   1.28701  161.609
 4320.00    1.26364   1.25657  165.306
 4321.00    1.23212   1.20892   -1.000
 4322.00    1.18557   1.13751   -1.000
 4323.00    1.11487   1.04361   -1.000
 4324.00    1.02983   0.96762   -1.000
 4325.00    0.95581   0.95174  218.732
 4326.00    0.97521   1.00899   -1.000
 4327.00    1.08043   1.11378   -1.000
 4328.00    1.19596   1.20570  169.427
 4329.00    1.24644   1.24373  166.315
 4330.00    1.24740   1.24609  167.107
 4331.00    1.23500   1.24396  166.148
 4332.00    1.24445   1.25559  163.181
 4333.00    1.25818   1.26809  161.538
 4334.00    1.26893   1.26463  161.212
 4335.00    1.26689   1.22689   -1.000
 4336.00    1.21069   1.14584   -1.000
 4337.00    1.10543   1.03078   -1.000
 4338.00    1.00816   0.92196   -1.000
 4339.00    0.93313   0.86209   -1.000
 4340.00    0.88976   0.86584   -1.000
 4341.00    0.92699   0.93002  215.014
 4342.00    1.01959   1.02554  193.613
 4343.00    1.10892   1.10447  181.828
 4344.00    1.15592   1.15450  176.195
 4345.00    1.19658   1.19381  171.415
 4346.00    1.22608   1.22636  168.545
 4347.00    1.24352   1.25819   -1.000
 4348.00    1.27145   1.27902  164.017
 4349.00    1.28520   1.26243   -1.000
 4350.00    1.23767   1.20005   -1.000
 4351.00    1.14372   1.13315  187.144
 4352.00    1.09609   1.11069   -1.000
 4353.00    1.14128   1.14256  181.564
 4354.00    1.20571   1.19872  173.292
 4355.00    1.24082   1.24386  168.009
 4356.00    1.27687   1.26483  164.545
 4357.00    1.30041   1.26762   -1.000
 4358.00    1.27475   1.25866  168.396
 4359.00    1.25285   1.25644  170.434
 4360.00    1.26161   1.27552  167.028
 4361.00    1.29970   1.30717  161.857
 4362.00    1.33654   1.33222  160.142
 4363.00    1.34498   1.34771  159.517
 4364.00    1.34647   1.36017  157.682
 4365.00    1.36241   1.35491  157.586
 4366.00    1.33626   1.32124  162.612
 4367.00    1.28027   1.28153  168.619
 4368.00    1.24860   1.25979  170.389
 4369.00    1.25403   1.25307  168.622
 4370.00    1.26447   1.25147  167.596
 4371.00    1.26886   1.24061   -1.000
 4372.00    1.26668   1.21293   -1.000
 4373.00    1.22498   1.17265   -1.000
 4374.00    1.17106   1.13853   -1.000
 4375.00    1.15403   1.14076  183.264
 4376.00    1.19247   1.18629  175.498
 4377.00    1.25631   1.24026  166.619
 4378.00    1.29974   1.26799   -1.000
 4379.00    1.30093   1.26213   -1.000
 4380.00    1.28010   1.21813   -1.000
 4381.00    1.23377   1.12982   -1.000
 4382.00    1.13164   1.02100   -1.000
 4383.00    0.99518   0.94079   -1.000
 4384.00    0.93883   0.94134  220.009
 4385.00    1.01153   1.02090  199.224
 4386.00    1.13259   1.11354  180.360
 4387.00    1.20497   1.16315   -1.000
 4388.00    1.22113   1.16989   -1.000
 4389.00    1.21166   1.16585   -1.000
 4390.00    1.19902   1.17092   -1.000
 4391.00    1.21588   1.18885   -1.000
 4392.00    1.24743   1.20867   -1.000
 4393.00    1.25091   1.21345   -1.000
 4394.00    1.23017   1.21253  175.184
 4395.00    1.22919   1.23134  174.414
 4396.00    1.26894   1.27243  166.206
 4397.00    1.32623   1.29930   -1.000
 4398.00    1.33796   1.28600   -1.000
 4399.00    1.28335   1.25167   -1.000
 4400.00    1.23033   1.22886  175.141
 4401.00    1.22548   1.22236  172.901
 4402.00    1.25470   1.21078   -1.000
 4403.00    1.23671   1.16550   -1.000
 4404.00    1.15528   1.11378   -1.000
 4405.00    1.11430   1.09994  187.756
 4406.00    1.15123   1.12621   -1.000
 4407.00    1.18343   1.16323   -1.000
 4408.00    1.18874   1.20121  177.120
 4409.00    1.22438   1.25160   -1.000
 4410.00    1.29156   1.31893   -1.000
 4411.00    1.34000   1.36347   -1.000
 4412.00    1.36628   1.35457  155.599
 4413.00    1.34556   1.30315   -1.000
 4414.00    1.27256   1.23828   -1.000
 4415.00    1.19952   1.19502  175.449
 4416.00    1.19773   1.20881  174.259
 4417.00    1.24116   1.26918   -1.000
 4418.00    1.28765   1.33638   -1.000
 4419.00    1.33068   1.37801   -1.000
 4420.00    1.34209   1.37675   -1.000
 4421.00    1.30718   1.34358   -1.000
 4422.00    1.26740   1.31191   -1.000
 4423.00    1.24951   1.30181   -1.000
 4424.00    1.25670   1.31019   -1.000
 4425.00    1.26047   1.31617   -1.000
 4426.00    1.25909   1.31545   -1.000
 4427.00    1.25947   1.32200   -1.000
 4428.00    1.27766   1.32854   -1.000
 4429.00    1.27082   1.32820   -1.000
 4430.00    1.25814   1.32478   -1.000
 4431.00    1.25970   1.32324   -1.000
 4432.00    1.27224   1.31771   -1.000
 4433.00    1.25735   1.28710   -1.000
 4434.00    1.21131   1.24389   -1.000
 4435.00    1.18352   1.23429   -1.000
 4436.00    1.21872   1.27857   -1.000
 4437.00    1.29857   1.35596   -1.000
 4438.00    1.36881   1.40983   -1.000
 4439.00    1.38784   1.41782   -1.000
 4440.00    1.36954   1.37821  157.318
 4441.00    1.30586   1.31728  164.997
 4442.00    1.25074   1.27756   -1.000
 4443.00    1.24125   1.28794   -1.000
 4444.00    1.27957   1.34336   -1.000
 4445.00    1.34716   1.39886   -1.000
 4446.00    1.39680   1.42923   -1.000
 4447.00    1.39636   1.43287   -1.000
 4448.00    1.38675   1.42841   -1.000
 4449.00    1.38849   1.42478   -1.000
 4450.00    1.37168   1.41782   -1.000
 4451.00    1.36776   1.40432   -1.000
 4452.00    1.36849   1.37597  159.344
 4453.00    1.33238   1.32345  165.395
 4454.00    1.27284   1.26341  173.115
 4455.00    1.23088   1.23441  176.583
 4456.00    1.23952   1.23960  173.419
 4457.00    1.26306   1.25813  170.324
 4458.00    1.26714   1.26578  170.517
 4459.00    1.26040   1.26106  171.424
 4460.00    1.24566   1.25864  173.255
 4461.00    1.23410   1.26838   -1.000
 4462.00    1.25221   1.29733   -1.000
 4463.00    1.30810   1.33989   -1.000
 4464.00    1.35279   1.37264   -1.000
 4465.00    1.36288   1.38395   -1.000
 4466.00    1.36456   1.37658  160.520
 4467.00    1.36033   1.36222  162.405
 4468.00    1.33349   1.34927   -1.000
 4469.00    1.31560   1.34751   -1.000
 4470.00    1.32934   1.36912   -1.000
 4471.00    1.35696   1.41089   -1.000
 4472.00    1.40458   1.45255   -1.000
 4473.00    1.45491   1.48495   -1.000
 4474.00    1.47809   1.49946   -1.000
 4475.00    1.47719   1.50731   -1.000
 4476.00    1.49637   1.51890   -1.000
 4477.00    1.51935   1.52273  146.142
 4478.00    1.50768   1.49845  147.521
 4479.00    1.45763   1.44438  153.127
 4480.00    1.38277   1.38155  160.153
 4481.00    1.33096   1.35307   -1.000
 4482.00    1.33864   1.37474   -1.000
 4483.00    1.39231   1.43211   -1.000
 4484.00    1.46045   1.49316   -1.000
 4485.00    1.50333   1.53431   -1.000
 4486.00    1.51515   1.53572   -1.000
 4487.00    1.49639   1.50016  150.330
 4488.00    1.43787   1.44920  156.203
 4489.00    1.38472   1.41872   -1.000
 4490.00    1.37894   1.42357   -1.000
 4491.00    1.41158   1.45141   -1.000
 4492.00    1.44483   1.47022   -1.000
 4493.00    1.44148   1.45723  153.553
 4494.00    1.39618   1.42743   -1.000
 4495.00    1.35897   1.41426   -1.000
 4496.00    1.36748   1.43388   -1.000
 4497.00    1.40965   1.47007   -1.000
 4498.00    1.45383   1.49950   -1.000
 4499.00    1.47771   1.51124   -1.000
 4500.00    1.46170   1.50678   -1.000
 4501.00    1.43840   1.50890   -1.000
 4502.00    1.45462   1.53424   -1.000
 4503.00    1.52180   1.57144   -1.000
 4504.00    1.57668   1.60815   -1.000
 4505.00    1.58036   1.62085   -1.000
 4506.00    1.57517   1.60874   -1.000
 4507.00    1.56370   1.58946   -1.000
 4508.00    1.54974   1.58069   -1.000
 4509.00    1.56158   1.58485   -1.000
 4510.00    1.57523   1.59044  142.789
 4511.00    1.56243   1.58330   -1.000
 4512.00    1.53467   1.56023   -1.000
 4513.00    1.49953   1.53465   -1.000
 4514.00    1.47872   1.51687   -1.000
 4515.00    1.48437   1.51004   -1.000
 4516.00    1.49389   1.51266   -1.000
 4517.00    1.48290   1.51291   -1.000
 4518.00    1.46960   1.51101   -1.000
 4519.00    1.48654   1.52128   -1.000
 4520.00    1.52802   1.53965  146.699
 4521.00    1.53833   1.55037  147.225
 4522.00    1.51328   1.53996   -1.000
 4523.00    1.47671   1.51252   -1.000
 4524.00    1.45507   1.48308   -1.000
 4525.00    1.43469   1.45133  157.775
 4526.00    1.37951   1.40882   -1.000
 4527.00    1.34330   1.36241   -1.000
 4528.00    1.31879   1.32992  169.219
 4529.00    1.31814   1.32726  167.915
 4530.00    1.33272   1.34870   -1.000
 4531.00    1.36226   1.37795   -1.000
 4532.00    1.38553   1.39134  161.150
 4533.00    1.37706   1.38100  165.807
 4534.00    1.33639   1.36464   -1.000
 4535.00    1.32452   1.37190   -1.000
 4536.00    1.37578   1.42058   -1.000
 4537.00    1.47467   1.49074   -1.000
 4538.00    1.53476   1.54379  145.910
 4539.00    1.53451   1.55303   -1.000
 4540.00    1.49761   1.53342   -1.000
 4541.00    1.48097   1.51661   -1.000
 4542.00    1.49737   1.51849   -1.000
 4543.00    1.50187   1.52624   -1.000
 4544.00    1.47239   1.52162   -1.000
 4545.00    1.51212   1.50551   69.298
 4546.00    0.53206   1.49218   -1.000
 4547.00   -0.03897   1.48100    0.000
 4548.00   -0.03361   1.46314    0.000
 4549.00    0.93793   1.44693   -1.000
 4550.00    0.56947   1.45016   -1.000
 4551.00    0.78109   1.47128   -1.000
 4552.00    1.51222   1.48298   -1.000
 4553.00    1.43718   1.47174   -1.000
 4554.00    1.42538   1.45668   -1.000
 4555.00    1.42754   1.45969   -1.000
 4556.00    1.47363   1.49325   -1.000
 4557.00    1.53162   1.54613  145.862
 4558.00    1.56864   1.58923   -1.000
 4559.00    1.58359   1.61178   -1.000
 4560.00    1.58102   1.61914   -1.000
 4561.00    1.58221   1.61539   -1.000
 4562.00    1.57160   1.59873   -1.000
 4563.00    1.52693   1.56536   -1.000
 4564.00    1.47785   1.53067   -1.000
 4565.00    1.46459   1.51785   -1.000
 4566.00    1.50174   1.53871   -1.000
 4567.00    1.55723   1.58064   -1.000
 4568.00    1.58900   1.61115   -1.000
 4569.00    1.58692   1.61059   -1.000
 4570.00    1.54887   1.58384   -1.000
 4571.00    1.49558   1.55293   -1.000
 4572.00    1.49956   1.54482   -1.000
 4573.00    1.54862   1.56902   -1.000
 4574.00    1.57829   1.60189   -1.000
 4575.00    1.58035   1.61660   -1.000
 4576.00    1.57312   1.61354   -1.000
 4577.00    1.56318   1.59982   -1.000
 4578.00    1.54589   1.57299   -1.000
 4579.00    1.50157   1.53338   -1.000
 4580.00    1.45727   1.49784   -1.000
 4581.00    1.45702   1.48235   -1.000
 4582.00    1.46916   1.48957   -1.000
 4583.00    1.48397   1.50390   -1.000
 4584.00    1.48978   1.51037   -1.000
 4585.00    1.48426   1.50786   -1.000
 4586.00    1.49330   1.51613   -1.000
 4587.00    1.52620   1.54374   -1.000
 4588.00    1.56652   1.57877  144.361
 4589.00    1.58820   1.60126  144.189
 4590.00    1.57469   1.59821   -1.000
 4591.00    1.53466   1.57418   -1.000
 4592.00    1.51502   1.54725   -1.000
 4593.00    1.50579   1.53333   -1.000
 4594.00    1.50784   1.53275   -1.000
 4595.00    1.50981   1.53756   -1.000
 4596.00    1.51652   1.54396   -1.000
 4597.00    1.52560   1.55287   -1.000
 4598.00    1.53189   1.56107   -1.000
 4599.00    1.53432   1.56158   -1.000
 4600.00    1.51898   1.55551   -1.000
 4601.00    1.50685   1.54895   -1.000
 4602.00    1.51674   1.54870   -1.000
 4603.00    1.53769   1.55237  148.050
 4604.00    1.54549   1.55659  148.325
 4605.00    1.54618   1.56400   -1.000
 4606.00    1.56111   1.58147   -1.000
 4607.00    1.59419   1.61260   -1.000
 4608.00    1.63698   1.64969  140.432
 4609.00    1.66571   1.67703  138.797
 4610.00    1.66345   1.67819  139.452
 4611.00    1.63515   1.65675   -1.000
 4612.00    1.61313   1.63664   -1.000
 4613.00    1.60607   1.62824   -1.000
 4614.00    1.61572   1.63259   -1.000
 4615.00    1.62205   1.64300   -1.000
 4616.00    1.62541   1.65007   -1.000
 4617.00    1.62562   1.65013   -1.000
 4618.00    1.62061   1.64597   -1.000
 4619.00    1.60493   1.64446   -1.000
 4620.00    1.61897   1.65153   -1.000
 4621.00    1.64938   1.66683   -1.000
 4622.00    1.65404   1.67805   -1.000
 4623.00    1.64256   1.67560   -1.000
 4624.00    1.63761   1.66716   -1.000
 4625.00    1.63606   1.66103   -1.000
 4626.00    1.63765   1.65468  141.783
 4627.00    1.64290   1.65227  141.702
 4628.00    1.63770   1.65286  142.637
 4629.00    1.62497   1.65551   -1.000
 4630.00    1.63228   1.66113   -1.000
 4631.00    1.65653   1.66992  140.534
 4632.00    1.64822   1.67107   -1.000
 4633.00    1.62426   1.65527   -1.000
 4634.00    1.61336   1.63571   -1.000
 4635.00    1.60930   1.62383  144.714
 4636.00    1.59727   1.61459   -1.000
 4637.00    1.58012   1.60060   -1.000
 4638.00    1.55839   1.58794   -1.000
 4639.00    1.55749   1.58480   -1.000
 4640.00    1.58843   1.59636  145.671
 4641.00    1.62388   1.61885  142.073
 4642.00    1.65049   1.63962  140.147
 4643.00    1.65693   1.63965  140.759
 4644.00    1.62732   1.61448  143.428
 4645.00    1.58733   1.57695  147.511
 4646.00    1.54141   1.53607  151.601
 4647.00    1.51321   1.51058  152.194
 4648.00    1.52114   1.52058  149.438
 4649.00    1.56510   1.55831  145.918
 4650.00    1.60581   1.60132  143.940
 4651.00    1.61563   1.63005  143.718
 4652.00    1.63001   1.63928  143.419
 4653.00    1.62172   1.63228  145.164
 4654.00    1.59532   1.61141  148.579
 4655.00    1.56050   1.59292   -1.000
 4656.00    1.55624   1.59625   -1.000
 4657.00    1.58531   1.62868   -1.000
 4658.00    1.65380   1.68170   -1.000
 4659.00    1.70787   1.73068   -1.000
 4660.00    1.73207   1.74737  135.392
 4661.00    1.69834   1.73064   -1.000
 4662.00    1.65852   1.69464   -1.000
 4663.00    1.62776   1.65568   -1.000
 4664.00    1.60833   1.62068  143.579
 4665.00    1.58533   1.58053  145.977
 4666.00    1.52689   1.52943  152.351
 4667.00    1.45492   1.48421   -1.000
 4668.00    1.43156   1.47346   -1.000
 4669.00    1.47440   1.50930   -1.000
 4670.00    1.56159   1.56818  147.316
 4671.00    1.61445   1.61814  143.365
 4672.00    1.63304   1.64150  142.565
 4673.00    1.63244   1.64589  142.694
 4674.00    1.63091   1.65067   -1.000
 4675.00    1.64618   1.66491   -1.000
 4676.00    1.67998   1.67951  138.522
 4677.00    1.69138   1.67229  139.269
 4678.00    1.65498   1.64334  142.350
 4679.00    1.60757   1.60871  145.166
 4680.00    1.57915   1.58471  147.559
 4681.00    1.57530   1.57790  148.969
 4682.00    1.58818   1.58662  147.056
 4683.00    1.62148   1.60832  143.296
 4684.00    1.66331   1.63034   -1.000
 4685.00    1.66945   1.64175   -1.000
 4686.00    1.64939   1.64255  142.020
 4687.00    1.64299   1.63851  142.849
 4688.00    1.64754   1.63491  142.842
 4689.00    1.64402   1.63261  142.856
 4690.00    1.63668   1.63159  143.908
 4691.00    1.63420   1.62844  144.195
 4692.00    1.63821   1.63030  142.446
 4693.00    1.66227   1.64265  140.312
 4694.00    1.69136   1.66013   -1.000
 4695.00    1.71722   1.67431   -1.000
 4696.00    1.72220   1.67780   -1.000
 4697.00    1.69108   1.66092   -1.000
 4698.00    1.63846   1.62705  144.398
 4699.00    1.60022   1.59558  146.036
 4700.00    1.60412   1.57530   -1.000
 4701.00    1.59997   1.56282   -1.000
 4702.00    1.57701   1.55296   -1.000
 4703.00    1.56266   1.55397  149.300
 4704.00    1.58242   1.57358  146.399
 4705.00    1.61850   1.59615  144.246
 4706.00    1.60824   1.59875  146.336
 4707.00    1.58751   1.58212  149.306
 4708.00    1.55976   1.56819  150.722
 4709.00    1.55297   1.57526   -1.000
 4710.00    1.59288   1.60018  145.403
 4711.00    1.64969   1.62775  141.415
 4712.00    1.67215   1.64524   -1.000
 4713.00    1.66555   1.64119  141.452
 4714.00    1.64398   1.62859  144.167
 4715.00    1.62804   1.63228  144.126
 4716.00    1.66133   1.65946  141.209
 4717.00    1.70197   1.69751  138.491
 4718.00    1.71695   1.72646  137.666
 4719.00    1.72433   1.74266   -1.000
 4720.00    1.72602   1.74744   -1.000
 4721.00    1.71644   1.74357   -1.000
 4722.00    1.70513   1.73705   -1.000
 4723.00    1.70642   1.73831   -1.000
 4724.00    1.71923   1.74571   -1.000
 4725.00    1.72189   1.74129   -1.000
 4726.00    1.67894   1.71272   -1.000
 4727.00    1.61393   1.66138   -1.000
 4728.00    1.57139   1.61219   -1.000
 4729.00    1.56884   1.59048   -1.000
 4730.00    1.58479   1.59644  146.631
 4731.00    1.60612   1.61729  145.484
 4732.00    1.63013   1.64239  143.716
 4733.00    1.64976   1.66440  142.477
 4734.00    1.67380   1.67428  141.675
 4735.00    1.68384   1.67326  140.886
 4736.00    1.66316   1.67115  142.446
 4737.00    1.65495   1.67346   -1.000
 4738.00    1.67993   1.68547  140.719
 4739.00    1.69434   1.70189  140.813
 4740.00    1.68330   1.70889   -1.000
 4741.00    1.66832   1.70663   -1.000
 4742.00    1.67754   1.71011   -1.000
 4743.00    1.70343   1.71922  139.116
 4744.00    1.71352   1.72736  139.429
 4745.00    1.71185   1.73418   -1.000
 4746.00    1.71402   1.74265   -1.000
 4747.00    1.72927   1.75540   -1.000
 4748.00    1.73730   1.76927   -1.000
 4749.00    1.73343   1.77936   -1.000
 4750.00    1.72947   1.78577   -1.000
 4751.00    1.72199   1.78118   -1.000
 4752.00    1.70877   1.76321   -1.000
 4753.00    1.68461   1.73738   -1.000
 4754.00    1.66397   1.71493   -1.000
 4755.00    1.65848   1.70636   -1.000
 4756.00    1.65522   1.71005   -1.000
 4757.00    1.65498   1.72096   -1.000
 4758.00    1.66451   1.73674   -1.000
 4759.00    1.68063   1.75256   -1.000
 4760.00    1.67732   1.75625   -1.000
 4761.00    1.65097   1.73828   -1.000
 4762.00    1.60387   1.70090   -1.000
 4763.00    1.58187   1.66094   -1.000
 4764.00    1.58023   1.63884   -1.000
 4765.00    1.57683   1.62801   -1.000
 4766.00    1.58717   1.62576   -1.000
 4767.00    1.61664   1.64292   -1.000
 4768.00    1.65385   1.68706   -1.000
 4769.00    1.69082   1.73375   -1.000
 4770.00    1.70935   1.75694   -1.000
 4771.00    1.69578   1.75132   -1.000
 4772.00    1.67514   1.74149   -1.000
 4773.00    1.68196   1.74991   -1.000
 4774.00    1.72156   1.77711   -1.000
 4775.00    1.74329   1.80504   -1.000
 4776.00    1.74653   1.81830   -1.000
 4777.00    1.74394   1.81982   -1.000
 4778.00    1.72880   1.81491   -1.000
 4779.00    1.71069   1.80463   -1.000
 4780.00    1.70094   1.79023   -1.000
 4781.00    1.69795   1.77709   -1.000
 4782.00    1.68749   1.75994   -1.000
 4783.00    1.67843   1.73960   -1.000
 4784.00    1.68239   1.72769   -1.000
 4785.00    1.67937   1.72404   -1.000
 4786.00    1.66162   1.72102   -1.000
 4787.00    1.65314   1.71789   -1.000
 4788.00    1.65661   1.71976   -1.000
 4789.00    1.66014   1.72493   -1.000
 4790.00    1.66458   1.73368   -1.000
 4791.00    1.68048   1.75190   -1.000
 4792.00    1.70339   1.78448   -1.000
 4793.00    1.73445   1.82481   -1.000
 4794.00    1.78218   1.86229   -1.000
 4795.00    1.80165   1.88501   -1.000
 4796.00    1.78182   1.88135   -1.000
 4797.00    1.75443   1.85388   -1.000
 4798.00    1.71262   1.81877   -1.000
 4799.00    1.68003   1.79071   -1.000
 4800.00    1.68728   1.78465   -1.000
 4801.00    1.72313   1.80576   -1.000
 4802.00    1.76291   1.83955   -1.000
 4803.00    1.77800   1.85867   -1.000
 4804.00    1.75709   1.85095   -1.000
 4805.00    1.72389   1.82591   -1.000
 4806.00    1.71153   1.80209   -1.000
 4807.00    1.70022   1.78871   -1.000
 4808.00    1.69980   1.78629   -1.000
 4809.00    1.71447   1.79718   -1.000
 4810.00    1.73541   1.81514   -1.000
 4811.00    1.74203   1.82907   -1.000
 4812.00    1.74279   1.83446   -1.000
 4813.00    1.75111   1.83798   -1.000
 4814.00    1.75283   1.84473   -1.000
 4815.00    1.76397   1.85658   -1.000
 4816.00    1.78245   1.87245   -1.000
 4817.00    1.79159   1.88784   -1.000
 4818.00    1.80378   1.89881   -1.000
 4819.00    1.80374   1.90573   -1.000
 4820.00    1.79924   1.90501   -1.000
 4821.00    1.79381   1.88754   -1.000
 4822.00    1.75512   1.84993   -1.000
 4823.00    1.71609   1.80351   -1.000
 4824.00    1.69115   1.77394   -1.000
 4825.00    1.72302   1.78478   -1.000
 4826.00    1.76495   1.81853   -1.000
 4827.00    1.77036   1.83766   -1.000
 4828.00    1.75190   1.83447   -1.000
 4829.00    1.74081   1.82347   -1.000
 4830.00    1.73346   1.81558   -1.000
 4831.00    1.72270   1.80124   -1.000
 4832.00    1.71086   1.78541   -1.000
 4833.00    1.72614   1.78608   -1.000
 4834.00    1.75691   1.80431   -1.000
 4835.00    1.76950   1.82891   -1.000
 4836.00    1.76457   1.84189   -1.000
 4837.00    1.75903   1.83910   -1.000
 4838.00    1.74157   1.82304   -1.000
 4839.00    1.71133   1.79733   -1.000
 4840.00    1.69385   1.77532   -1.000
 4841.00    1.70156   1.76698   -1.000
 4842.00    1.71156   1.77113   -1.000
 4843.00    1.71313   1.77853   -1.000
 4844.00    1.72905   1.79116   -1.000
 4845.00    1.76015   1.81618   -1.000
 4846.00    1.78088   1.83881   -1.000
 4847.00    1.76646   1.83590   -1.000
 4848.00    1.72493   1.81275   -1.000
 4849.00    1.71214   1.79837   -1.000
 4850.00    1.73817   1.80496   -1.000
 4851.00    1.75337   1.81873   -1.000
 4852.00    1.74535   1.81879   -1.000
 4853.00    1.72933   1.79523   -1.000
 4854.00    1.68596   1.74667   -1.000
 4855.00    1.62922   1.69191   -1.000
 4856.00    1.60891   1.66033   -1.000
 4857.00    1.62487   1.65213   -1.000
 4858.00    1.59809   1.63013   -1.000
 4859.00    1.50715   1.54334   -1.000
 4860.00    1.35582   1.40679   -1.000
 4861.00    1.25050   1.30488   -1.000
 4862.00    1.27530   1.30203   -1.000
 4863.00    1.39852   1.39760  165.521
 4864.00    1.51017   1.51531  155.750
 4865.00    1.57481   1.60971   -1.000
 4866.00    1.62132   1.67280   -1.000
 4867.00    1.64392   1.71372   -1.000
 4868.00    1.65382   1.73326   -1.000
 4869.00    1.65182   1.72629   -1.000
 4870.00    1.61527   1.68679   -1.000
 4871.00    1.55810   1.63035   -1.000
 4872.00    1.54006   1.59866   -1.000
 4873.00    1.58837   1.63132   -1.000
 4874.00    1.63183   1.69634   -1.000
 4875.00    1.64559   1.74514   -1.000
 4876.00    1.65873   1.76466   -1.000
 4877.00    1.67708   1.77560   -1.000
 4878.00    1.69836   1.79860   -1.000
 4879.00    1.72665   1.82894   -1.000
 4880.00    1.73258   1.84854   -1.000
 4881.00    1.70010   1.84226   -1.000
 4882.00    1.68601   1.81903   -1.000
 4883.00    1.69369   1.80585   -1.000
 4884.00    1.68225   1.79366   -1.000
 4885.00    1.64872   1.76726   -1.000
 4886.00    1.62851   1.73979   -1.000
 4887.00    1.63867   1.73042   -1.000
 4888.00    1.64953   1.73162   -1.000
 4889.00    1.63636   1.71665   -1.000
 4890.00    1.60216   1.67949   -1.000
 4891.00    1.58455   1.65474   -1.000
 4892.00    1.62970   1.68538   -1.000
 4893.00    1.73358   1.77676   -1.000
 4894.00    1.82084   1.88799   -1.000
 4895.00    1.85757   1.95736   -1.000
 4896.00    1.87323   1.98381   -1.000
 4897.00    1.87560   1.98234   -1.000
 4898.00    1.85854   1.96478   -1.000
 4899.00    1.81786   1.93711   -1.000
 4900.00    1.79088   1.91183   -1.000
 4901.00    1.79184   1.89597   -1.000
 4902.00    1.78882   1.88453   -1.000
 4903.00    1.76809   1.87052   -1.000
 4904.00    1.77454   1.86815   -1.000
 4905.00    1.81265   1.89661   -1.000
 4906.00    1.83859   1.93626   -1.000
 4907.00    1.83516   1.94329   -1.000
 4908.00    1.80248   1.91036   -1.000
 4909.00    1.75086   1.85439   -1.000
 4910.00    1.71546   1.80716   -1.000
 4911.00    1.71777   1.79304   -1.000
 4912.00    1.74706   1.81897   -1.000
 4913.00    1.78095   1.86407   -1.000
 4914.00    1.81573   1.90489   -1.000
 4915.00    1.84520   1.93337   -1.000
 4916.00    1.85622   1.93391   -1.000
 4917.00    1.80205   1.88018   -1.000
 4918.00    1.69765   1.77436   -1.000
 4919.00    1.60178   1.66094   -1.000
 4920.00    1.55621   1.59233   -1.000
 4921.00    1.58703   1.60168  152.678
 4922.00    1.66496   1.66572  147.114
 4923.00    1.71284   1.73385   -1.000
 4924.00    1.72069   1.77027   -1.000
 4925.00    1.73750   1.79664   -1.000
 4926.00    1.78149   1.83786   -1.000
 4927.00    1.82580   1.89006   -1.000
 4928.00    1.85216   1.93730   -1.000
 4929.00    1.87469   1.96973   -1.000
 4930.00    1.88496   1.98571   -1.000
 4931.00    1.88274   1.97472   -1.000
 4932.00    1.84716   1.93195   -1.000
 4933.00    1.77931   1.87414   -1.000
 4934.00    1.75059   1.83780   -1.000
 4935.00    1.77917   1.83651   -1.000
 4936.00    1.79308   1.84507   -1.000
 4937.00    1.75181   1.81939   -1.000
 4938.00    1.69253   1.76506   -1.000
 4939.00    1.68216   1.74042   -1.000
 4940.00    1.74116   1.77677   -1.000
 4941.00    1.81813   1.85426   -1.000
 4942.00    1.86077   1.92734   -1.000
 4943.00    1.88004   1.96465   -1.000
 4944.00    1.89194   1.97278   -1.000
 4945.00    1.87642   1.96326   -1.000
 4946.00    1.85321   1.95191   -1.000
 4947.00    1.86581   1.95422   -1.000
 4948.00    1.89728   1.97564   -1.000
 4949.00    1.90557   1.99931   -1.000
 4950.00    1.90817   2.00942   -1.000
 4951.00    1.91619   2.00676   -1.000
 4952.00    1.90392   1.99598   -1.000
 4953.00    1.87974   1.98165   -1.000
 4954.00    1.87181   1.96060   -1.000
 4955.00    1.84198   1.91502   -1.000
 4956.00    1.75699   1.82375   -1.000
 4957.00    1.66025   1.71869   -1.000
 4958.00    1.65871   1.68735   -1.000
 4959.00    1.75737   1.75536  142.571
 4960.00    1.84939   1.86487  137.602
 4961.00    1.88360   1.94120   -1.000
 4962.00    1.87779   1.96383   -1.000
 4963.00    1.87179   1.95687   -1.000
 4964.00    1.85209   1.93136   -1.000
 4965.00    1.80148   1.89182   -1.000
 4966.00    1.77529   1.85608   -1.000
 4967.00    1.76906   1.83935   -1.000
 4968.00    1.77278   1.83885   -1.000
 4969.00    1.78061   1.84929   -1.000
 4970.00    1.79963   1.86982   -1.000
 4971.00    1.83109   1.89770   -1.000
 4972.00    1.85409   1.92878   -1.000
 4973.00    1.88141   1.95431   -1.000
 4974.00    1.89048   1.96834   -1.000
 4975.00    1.88723   1.96800   -1.000
 4976.00    1.87516   1.95525   -1.000
 4977.00    1.84285   1.92969   -1.000
 4978.00    1.80305   1.89867   -1.000
 4979.00    1.77948   1.86968   -1.000
 4980.00    1.76137   1.83901   -1.000
 4981.00    1.71508   1.78934   -1.000
 4982.00    1.64824   1.71897   -1.000
 4983.00    1.61935   1.66184   -1.000
 4984.00    1.63858   1.65733   -1.000
 4985.00    1.68745   1.70743   -1.000
 4986.00    1.75726   1.78338   -1.000
 4987.00    1.81358   1.85150   -1.000
 4988.00    1.83131   1.89343   -1.000
 4989.00    1.81632   1.89382   -1.000
 4990.00    1.79172   1.87194   -1.000
 4991.00    1.78866   1.85636   -1.000
 4992.00    1.80246   1.85899   -1.000
 4993.00    1.81750   1.87108   -1.000
 4994.00    1.82879   1.88071   -1.000
 4995.00    1.83550   1.88991   -1.000
 4996.00    1.84415   1.90416   -1.000
 4997.00    1.83578   1.90862   -1.000
 4998.00    1.81473   1.88647   -1.000
 4999.00    1.77981   1.84157   -1.000
 5000.00    1.74947   1.79287   -1.000
 5001.00    1.74713   1.76474  149.252
 5002.00    1.74940   1.76518  147.856
 5003.00    1.76461   1.77771  146.869
 5004.00    1.76724   1.77245  148.927
 5005.00    1.72191   1.73774  152.722
 5006.00    1.68319   1.70005  153.639
 5007.00    1.71245   1.70714  149.944
 5008.00    1.77999   1.76487  145.368
 5009.00    1.82184   1.82594  143.764
 5010.00    1.81468   1.84968   -1.000
 5011.00    1.77738   1.82058   -1.000
 5012.00    1.70804   1.75856   -1.000
 5013.00    1.65299   1.69638   -1.000
 5014.00    1.63860   1.67020   -1.000
 5015.00    1.67207   1.68333  155.083
 5016.00    1.70985   1.71057  151.825
 5017.00    1.72478   1.72884  151.141
 5018.00    1.72281   1.73629  151.168
 5019.00    1.74155   1.75239  149.473
 5020.00    1.76840   1.77471  148.238
 5021.00    1.77067   1.78328  148.868
 5022.00    1.75689   1.78053   -1.000
 5023.00    1.76367   1.78659   -1.000
 5024.00    1.79178   1.81657   -1.000
 5025.00    1.81243   1.85014   -1.000
 5026.00    1.80519   1.85269   -1.000
 5027.00    1.77653   1.83308   -1.000
 5028.00    1.78384   1.82432   -1.000
 5029.00    1.82343   1.84077  143.136
 5030.00    1.85529   1.87855   -1.000
 5031.00    1.87635   1.92131   -1.000
 5032.00    1.90751   1.95905   -1.000
 5033.00    1.93344   1.97823   -1.000
 5034.00    1.89999   1.95825   -1.000
 5035.00    1.82815   1.90117   -1.000
 5036.00    1.77610   1.84517   -1.000
 5037.00    1.76647   1.81643   -1.000
 5038.00    1.76013   1.80000   -1.000
 5039.00    1.71288   1.75343   -1.000
 5040.00    1.62673   1.67633   -1.000
 5041.00    1.58480   1.62924   -1.000
 5042.00    1.64467   1.66036   -1.000
 5043.00    1.75664   1.76192  147.286
 5044.00    1.85807   1.88196   -1.000
 5045.00    1.91632   1.96428   -1.000
 5046.00    1.98857   1.99767  132.945
 5047.00    1.73866   1.98097   -1.000
 5048.00    0.67067   1.92603   -1.000
 5049.00    0.14513   1.85731   -1.000
 5050.00    0.18975   1.81178   -1.000
 5051.00    1.45439   1.80233   -1.000
 5052.00    1.81853   1.82408  144.800
 5053.00    1.86137   1.86997  141.138
 5054.00    1.91071   1.92277  138.552
 5055.00    1.94314   1.95578  137.218
 5056.00    1.95344   1.97345  136.766
 5057.00    1.94905   1.98506   -1.000
 5058.00    1.95446   1.99601   -1.000
 5059.00    1.95405   2.01072   -1.000
 5060.00    1.96593   2.02576   -1.000
 5061.00    1.97604   2.03677   -1.000
 5062.00    1.96678   2.03160   -1.000
 5063.00    1.93056   1.98856   -1.000
 5064.00    1.85310   1.91804   -1.000
 5065.00    1.79741   1.86281   -1.000
 5066.00    1.81944   1.84543   -1.000
 5067.00    1.84358   1.85721  145.003
 5068.00    1.85085   1.87279   -1.000
 5069.00    1.85877   1.88599   -1.000
 5070.00    1.88475   1.90072  142.892
 5071.00    1.88294   1.90441   -1.000
 5072.00    1.85585   1.89020   -1.000
 5073.00    1.86078   1.87755  143.413
 5074.00    1.88968   1.88562  142.281
 5075.00    1.89347   1.90297  142.083
 5076.00    1.88544   1.91299   -1.000
 5077.00    1.88370   1.90370  143.342
 5078.00    1.83887   1.86311   -1.000
 5079.00    1.75660   1.79372   -1.000
 5080.00    1.70788   1.73962   -1.000
 5081.00    1.72752   1.73716  153.991
 5082.00    1.77719   1.76777  150.693
 5083.00    1.81246   1.80511  148.659
 5084.00    1.84272   1.83810  145.852
 5085.00    1.88371   1.87588  143.347
 5086.00    1.90889   1.91216  142.313
 5087.00    1.91404   1.93483   -1.000
 5088.00    1.91712   1.94551   -1.000
 5089.00    1.92794   1.95344   -1.000
 5090.00    1.93598   1.96218   -1.000
 5091.00    1.94562   1.97586   -1.000
 5092.00    1.96853   1.99791   -1.000
 5093.00    1.99012   2.02131   -1.000
 5094.00    1.98706   2.02577   -1.000
 5095.00    1.97815   1.99638  140.137
 5096.00    1.91940   1.94051  143.170
 5097.00    1.86270   1.87709  146.645
 5098.00    1.80419   1.82459  149.726
 5099.00    1.78792   1.80483  150.220
 5100.00    1.81978   1.83153  146.547
 5101.00    1.88721   1.88937  142.288
 5102.00    1.91943   1.93948  141.023
 5103.00    1.91789   1.95098   -1.000
 5104.00    1.89665   1.93715   -1.000
 5105.00    1.87982   1.91409   -1.000
 5106.00    1.85334   1.88653   -1.000
 5107.00    1.83065   1.85793   -1.000
 5108.00    1.82693   1.83632  148.959
 5109.00    1.82243   1.82984  148.003
 5110.00    1.83805   1.84380  146.939
 5111.00    1.87370   1.87641  144.826
 5112.00    1.90570   1.91803  143.049
 5113.00    1.92805   1.94892  141.305
 5114.00    1.94426   1.97080   -1.000
 5115.00    1.96384   1.99168   -1.000
 5116.00    1.97545   2.01412   -1.000
 5117.00    1.99583   2.03209   -1.000
 5118.00    2.00851   2.03761   -1.000
 5119.00    1.99280   2.02661   -1.000
 5120.00    1.96052   1.99864   -1.000
 5121.00    1.91961   1.95923   -1.000
 5122.00    1.87633   1.91309   -1.000
 5123.00    1.82495   1.86541   -1.000
 5124.00    1.79377   1.82617   -1.000
 5125.00    1.80414   1.81341  151.123
 5126.00    1.83122   1.82277  150.381
 5127.00    1.84032   1.83460  149.483
 5128.00    1.83696   1.83817  149.697
 5129.00    1.83539   1.84257  149.565
 5130.00    1.83985   1.85794  147.613
 5131.00    1.87497   1.88449  145.088
 5132.00    1.91252   1.91076  143.907
 5133.00    1.92173   1.92977  142.536
 5134.00    1.93940   1.94573  141.279
 5135.00    1.96224   1.95783  140.914
 5136.00    1.94038   1.95318  143.456
 5137.00    1.88825   1.91690   -1.000
 5138.00    1.84139   1.86899   -1.000
 5139.00    1.82263   1.84214  149.519
 5140.00    1.84180   1.84289  148.170
 5141.00    1.85511   1.85156  149.272
 5142.00    1.83357   1.85152  151.719
 5143.00    1.82633   1.85217   -1.000
 5144.00    1.85514   1.86677  148.282
 5145.00    1.87217   1.87903  147.768
 5146.00    1.85688   1.86696  149.159
 5147.00    1.84411   1.84648  149.530
 5148.00    1.86125   1.84708  147.685
 5149.00    1.87726   1.86748  146.853
 5150.00    1.87459   1.87508  148.681
 5151.00    1.84619   1.86145  151.411
 5152.00    1.81452   1.84393   -1.000
 5153.00    1.80937   1.83481   -1.000
 5154.00    1.83660   1.84321  148.721
 5155.00    1.88236   1.87503  144.932
 5156.00    1.94164   1.92616  141.244
 5157.00    1.98998   1.97507  138.601
 5158.00    2.00957   2.00781  137.583
 5159.00    2.01486   2.02104  137.565
 5160.00    2.01642   2.01989  138.028
 5161.00    2.00522   2.00580  138.825
 5162.00    1.97839   1.97488  140.396
 5163.00    1.94803   1.92701   -1.000
 5164.00    1.90210   1.86597   -1.000
 5165.00    1.79232   1.76986   -1.000
 5166.00    1.62441   1.62417  177.183
 5167.00    1.48635   1.48588  189.121
 5168.00    1.46679   1.44232   -1.000
 5169.00    1.56161   1.50678   -1.000
 5170.00    1.63033   1.57247   -1.000
 5171.00    1.56902   1.53952   -1.000
 5172.00    1.44588   1.45391  195.957
 5173.00    1.44713   1.42995   -1.000
 5174.00    1.60277   1.53608   -1.000
 5175.00    1.78688   1.71135   -1.000
 5176.00    1.88600   1.83948   -1.000
 5177.00    1.92078   1.90042   -1.000
 5178.00    1.93299   1.91764  145.826
 5179.00    1.92842   1.91241  147.285
 5180.00    1.88707   1.87126   -1.000
 5181.00    1.79000   1.76353   -1.000
 5182.00    1.62290   1.59804   -1.000
 5183.00    1.45409   1.45080  197.049
 5184.00    1.43930   1.42146   -1.000
 5185.00    1.60049   1.53788   -1.000
 5186.00    1.80194   1.71447   -1.000
 5187.00    1.91150   1.85134   -1.000
 5188.00    1.93388   1.90887   -1.000
 5189.00    1.94513   1.92789  145.628
 5190.00    1.94178   1.92048   -1.000
 5191.00    1.88831   1.87519  151.938
 5192.00    1.81942   1.81514  156.144
 5193.00    1.81420   1.79263   -1.000
 5194.00    1.84337   1.81249   -1.000
 5195.00    1.87700   1.84294   -1.000
 5196.00    1.90406   1.87175   -1.000
 5197.00    1.93435   1.90837   -1.000
 5198.00    1.97052   1.95437  142.346
 5199.00    2.00544   1.99487  141.191
 5200.00    2.02566   2.01543  141.062
 5201.00    2.01826   2.01228  142.216
 5202.00    1.98979   1.98282  144.818
 5203.00    1.94024   1.92738  148.146
 5204.00    1.88208   1.84890   -1.000
 5205.00    1.82217   1.77098   -1.000
 5206.00    1.78824   1.71923   -1.000
 5207.00    1.78495   1.70345   -1.000
 5208.00    1.77701   1.70803   -1.000
 5209.00    1.79136   1.73142   -1.000
 5210.00    1.85269   1.78822   -1.000
 5211.00    1.93554   1.87682   -1.000
 5212.00    2.01558   1.96910   -1.000
 5213.00    2.05680   2.02744   -1.000
 5214.00    2.04101   2.02853  139.159
 5215.00    1.99556   1.98499  142.490
 5216.00    1.95783   1.94226  144.210
 5217.00    1.97762   1.94422   -1.000
 5218.00    2.01711   1.99017   -1.000
 5219.00    2.06808   2.05002  137.742
 5220.00    2.09053   2.09356  136.697
 5221.00    2.09559   2.11201  136.154
 5222.00    2.08588   2.09935  137.951
 5223.00    2.04269   2.05374  142.210
 5224.00    1.96160   1.97508  148.120
 5225.00    1.86184   1.86857  155.091
 5226.00    1.79077   1.77317  159.356
 5227.00    1.79381   1.74919   -1.000
 5228.00    1.89094   1.81314   -1.000
 5229.00    1.99207   1.92739   -1.000
 5230.00    2.05883   2.01386   -1.000
 5231.00    2.06617   2.03075   -1.000
 5232.00    2.03567   1.99576   -1.000
 5233.00    1.98558   1.94907   -1.000
 5234.00    1.97434   1.93765   -1.000
 5235.00    2.00830   1.97752   -1.000
 5236.00    2.06462   2.04305  136.776
 5237.00    2.11250   2.10230  135.264
 5238.00    2.12697   2.13443  135.163
 5239.00    2.12593   2.13928  135.603
 5240.00    2.13208   2.13290  135.351
 5241.00    2.14194   2.12357  134.539
 5242.00    2.13897   2.11769  134.763
 5243.00    2.13505   2.12413  134.477
 5244.00    2.14839   2.13913  134.264
 5245.00    2.13278   2.13392  137.016
 5246.00    2.06485   2.09183   -1.000
 5247.00    2.00671   2.03521   -1.000
 5248.00    1.99825   1.99661  144.947
 5249.00    2.00211   1.98383  145.215
 5250.00    1.98625   1.98170  146.163
 5251.00    1.98340   1.98944  145.440
 5252.00    2.01796   2.01053  143.393
 5253.00    2.04161   2.02747  141.984
 5254.00    2.03714   2.02771  142.033
 5255.00    2.03761   2.03087  140.991
 5256.00    2.08323   2.06820  137.649
 5257.00    2.15391   2.13170  133.914
 5258.00    2.19653   2.18005  132.776
 5259.00    2.18814   2.18575  134.065
 5260.00    2.14180   2.14289  137.799
 5261.00    2.05597   2.06000  143.697
 5262.00    1.95708   1.95469  150.566
 5263.00    1.87258   1.85338   -1.000
 5264.00    1.81035   1.77423   -1.000
 5265.00    1.78909   1.73618   -1.000
 5266.00    1.81003   1.74564   -1.000
 5267.00    1.85951   1.77327   -1.000
 5268.00    1.85052   1.76533   -1.000
 5269.00    1.76800   1.71321   -1.000
 5270.00    1.75179   1.67848   -1.000
 5271.00    1.85598   1.73584   -1.000
 5272.00    1.97934   1.85929   -1.000
 5273.00    2.02947   1.94445   -1.000
 5274.00    2.02438   1.96692   -1.000
 5275.00    2.01287   1.97614   -1.000
 5276.00    2.05084   2.01396   -1.000
 5277.00    2.13476   2.08525   -1.000
 5278.00    2.19583   2.15103   -1.000
 5279.00    2.20129   2.16983   -1.000
 5280.00    2.15471   2.13429   -1.000
 5281.00    2.09571   2.07346   -1.000
 5282.00    2.05396   2.01595   -1.000
 5283.00    2.02872   1.98513   -1.000
 5284.00    2.04666   2.00595   -1.000
 5285.00    2.13628   2.08175   -1.000
 5286.00    2.20647   2.17413   -1.000
 5287.00    2.24125   2.22882  131.135
 5288.00    2.25043   2.24151  131.866
 5289.00    2.24698   2.24223  131.832
 5290.00    2.25865   2.24997  131.042
 5291.00    2.26130   2.25574  130.775
 5292.00    2.25338   2.24812  131.566
 5293.00    2.23294   2.23463  132.824
 5294.00    2.20954   2.21552  134.602
 5295.00    2.17732   2.17353  138.305
 5296.00    2.09412   2.09585  143.670
 5297.00    2.00436   2.00924  147.493
 5298.00    1.98645   1.96702  146.472
 5299.00    2.03301   1.99274   -1.000
 5300.00    2.09470   2.04573   -1.000
 5301.00    2.12524   2.08708   -1.000
 5302.00    2.13732   2.11510   -1.000
 5303.00    2.19451   2.15817   -1.000
 5304.00    2.25408   2.21717   -1.000
 5305.00    2.27871   2.25543   -1.000
 5306.00    2.26254   2.25570  132.297
 5307.00    2.24568   2.23922  133.444
 5308.00    2.24494   2.23431  132.528
 5309.00    2.27761   2.25499   -1.000
 5310.00    2.30257   2.28075  130.297
 5311.00    2.30755   2.28880  130.447
 5312.00    2.28988   2.27834  131.198
 5313.00    2.27021   2.25788  131.760
 5314.00    2.26104   2.23443   -1.000
 5315.00    2.24624   2.20816   -1.000
 5316.00    2.21781   2.18119   -1.000
 5317.00    2.20419   2.17052   -1.000
 5318.00    2.22869   2.18481   -1.000
 5319.00    2.24479   2.20789   -1.000
 5320.00    2.23762   2.21620   -1.000
 5321.00    2.22892   2.20479   -1.000
 5322.00    2.20601   2.17470   -1.000
 5323.00    2.16146   2.12603   -1.000
 5324.00    2.12218   2.07881   -1.000
 5325.00    2.11073   2.04207   -1.000
 5326.00    2.08219   1.99190   -1.000
 5327.00    1.98090   1.90079   -1.000
 5328.00    1.87744   1.81568   -1.000
 5329.00    1.90228   1.82123   -1.000
 5330.00    2.03926   1.93072   -1.000
 5331.00    2.15244   2.05882   -1.000
 5332.00    2.19464   2.13191   -1.000
 5333.00    2.20952   2.15886   -1.000
 5334.00    2.23537   2.18541   -1.000
 5335.00    2.26457   2.21802   -1.000
 5336.00    2.25809   2.23177   -1.000
 5337.00    2.23673   2.21935  135.423
 5338.00    2.22128   2.18333   -1.000
 5339.00    2.17060   2.12297   -1.000
 5340.00    2.11430   2.06014   -1.000
 5341.00    2.10734   2.04121   -1.000
 5342.00    2.15917   2.08415   -1.000
 5343.00    2.21958   2.14710   -1.000
 5344.00    2.23889   2.17974   -1.000
 5345.00    2.22583   2.17401   -1.000
 5346.00    2.21149   2.15199   -1.000
 5347.00    2.20293   2.13062   -1.000
 5348.00    2.18120   2.11513   -1.000
 5349.00    2.16768   2.11093   -1.000
 5350.00    2.20149   2.13408   -1.000
 5351.00    2.26036   2.18138   -1.000
 5352.00    2.29491   2.23111   -1.000
 5353.00    2.30063   2.26293   -1.000
 5354.00    2.31833   2.28403   -1.000
 5355.00    2.34995   2.31119   -1.000
 5356.00    2.36808   2.33501   -1.000
 5357.00    2.37017   2.34465   -1.000
 5358.00    2.37337   2.34226   -1.000
 5359.00    2.36206   2.33359   -1.000
 5360.00    2.34173   2.31499   -1.000
 5361.00    2.30491   2.28371   -1.000
 5362.00    2.27015   2.24873   -1.000
 5363.00    2.23417   2.21684  135.629
 5364.00    2.21550   2.18981   -1.000
 5365.00    2.21165   2.17056   -1.000
 5366.00    2.21663   2.16168   -1.000
 5367.00    2.22292   2.16290   -1.000
 5368.00    2.21008   2.14828   -1.000
 5369.00    2.16133   2.09611   -1.000
 5370.00    2.08972   2.02216   -1.000
 5371.00    2.05514   1.97376   -1.000
 5372.00    2.11160   1.99887   -1.000
 5373.00    2.22747   2.09141   -1.000
 5374.00    2.31264   2.19743   -1.000
 5375.00    2.34621   2.26272   -1.000
 5376.00    2.34412   2.27981   -1.000
 5377.00    2.33574   2.27502   -1.000
 5378.00    2.33192   2.27138   -1.000
 5379.00    2.32471   2.27008   -1.000
 5380.00    2.31216   2.26052   -1.000
 5381.00    2.28699   2.23856   -1.000
 5382.00    2.27185   2.21466   -1.000
 5383.00    2.26445   2.20195   -1.000
 5384.00    2.28777   2.21098   -1.000
 5385.00    2.31448   2.23860   -1.000
 5386.00    2.32464   2.26636   -1.000
 5387.00    2.31464   2.27186   -1.000
 5388.00    2.28769   2.25132   -1.000
 5389.00    2.25552   2.21504   -1.000
 5390.00    2.23287   2.17724   -1.000
 5391.00    2.21582   2.15123   -1.000
 5392.00    2.20717   2.13755   -1.000
 5393.00    2.19702   2.13349   -1.000
 5394.00    2.19207   2.13203   -1.000
 5395.00    2.18179   2.11316   -1.000
 5396.00    2.13690   2.07271   -1.000
 5397.00    2.10624   2.03880   -1.000
 5398.00    2.14504   2.04728   -1.000
 5399.00    2.21409   2.10293   -1.000
 5400.00    2.24028   2.16191   -1.000
 5401.00    2.25401   2.19177   -1.000
 5402.00    2.24929   2.18834   -1.000
 5403.00    2.20165   2.14318   -1.000
 5404.00    2.10611   2.05839   -1.000
 5405.00    2.04921   1.97813   -1.000
 5406.00    2.05895   1.96359   -1.000
 5407.00    2.12082   2.01074   -1.000
 5408.00    2.16179   2.06200   -1.000
 5409.00    2.14281   2.07461   -1.000
 5410.00    2.14485   2.06924   -1.000
 5411.00    2.19955   2.10053   -1.000
 5412.00    2.27060   2.16326   -1.000
 5413.00    2.30286   2.21181   -1.000
 5414.00    2.29482   2.22722   -1.000
 5415.00    2.28500   2.23182   -1.000
 5416.00    2.29936   2.25517   -1.000
 5417.00    2.33170   2.28485   -1.000
 5418.00    2.33040   2.29417   -1.000
 5419.00    2.29155   2.28063  134.572
 5420.00    2.27497   2.26143  135.353
 5421.00    2.28998   2.25149   -1.000
 5422.00    2.29758   2.24375   -1.000
 5423.00    2.27842   2.22320   -1.000
 5424.00    2.25515   2.20384   -1.000
 5425.00    2.27102   2.21689   -1.000
 5426.00    2.32050   2.26380   -1.000
 5427.00    2.33739   2.29169   -1.000
 5428.00    2.28181   2.24835   -1.000
 5429.00    2.19830   2.16356   -1.000
 5430.00    2.16597   2.11206   -1.000
 5431.00    2.21649   2.12266   -1.000
 5432.00    2.23475   2.15251   -1.000
 5433.00    2.20531   2.14447   -1.000
 5434.00    2.17072   2.10912   -1.000
 5435.00    2.17021   2.09544   -1.000
 5436.00    2.20670   2.12868   -1.000
 5437.00    2.26713   2.20114   -1.000
 5438.00    2.33510   2.27929   -1.000
 5439.00    2.38456   2.33593   -1.000
 5440.00    2.41616   2.36201   -1.000
 5441.00    2.41239   2.37348   -1.000
 5442.00    2.41372   2.37677   -1.000
 5443.00    2.38833   2.36110   -1.000
 5444.00    2.33198   2.30943   -1.000
 5445.00    2.23830   2.21856   -1.000
 5446.00    2.15149   2.12505   -1.000
 5447.00    2.14232   2.08638   -1.000
 5448.00    2.20756   2.12363   -1.000
 5449.00    2.29252   2.20892   -1.000
 5450.00    2.33798   2.27549   -1.000
 5451.00    2.34916   2.29756   -1.000
 5452.00    2.33303   2.28644   -1.000
 5453.00    2.29465   2.24415   -1.000
 5454.00    2.22816   2.17447   -1.000
 5455.00    2.16886   2.10877   -1.000
 5456.00    2.19085   2.09744   -1.000
 5457.00    2.27699   2.16465   -1.000
 5458.00    2.34800   2.25861   -1.000
 5459.00    2.36959   2.30885   -1.000
 5460.00    2.34978   2.30239   -1.000
 5461.00    2.31259   2.25859   -1.000
 5462.00    2.27122   2.20760   -1.000
 5463.00    2.24539   2.17948   -1.000
 5464.00    2.26790   2.18994   -1.000
 5465.00    2.31024   2.22504   -1.000
 5466.00    2.32833   2.25873   -1.000
 5467.00    2.33705   2.27908   -1.000
 5468.00    2.35217   2.28947   -1.000
 5469.00    2.35152   2.28921   -1.000
 5470.00    2.33313   2.27663   -1.000
 5471.00    2.31916   2.25916   -1.000
 5472.00    2.30935   2.24404   -1.000
 5473.00    2.28995   2.22826   -1.000
 5474.00    2.26016   2.19933   -1.000
 5475.00    2.23245   2.14997   -1.000
 5476.00    2.17528   2.09779   -1.000
 5477.00    2.16000   2.08368   -1.000
 5478.00    2.23192   2.12973   -1.000
 5479.00    2.29642   2.19271   -1.000
 5480.00    2.28845   2.21603   -1.000
 5481.00    2.24153   2.19595   -1.000
 5482.00    2.23939   2.18237   -1.000
 5483.00    2.26723   2.21307   -1.000
 5484.00    2.31794   2.26916   -1.000
 5485.00    2.34645   2.30730   -1.000
 5486.00    2.33159   2.30268   -1.000
 5487.00    2.28344   2.26793  138.376
 5488.00    2.27078   2.23901   -1.000
 5489.00    2.28890   2.23865   -1.000
 5490.00    2.30754   2.26262   -1.000
 5491.00    2.33311   2.28262   -1.000
 5492.00    2.34890   2.28890   -1.000
 5493.00    2.33944   2.28552   -1.000
 5494.00    2.33460   2.28304   -1.000
 5495.00    2.35228   2.28219   -1.000
 5496.00    2.34376   2.27199   -1.000
 5497.00    2.32236   2.25827   -1.000
 5498.00    2.33752   2.26063   -1.000
 5499.00    2.37482   2.27711   -1.000
 5500.00    2.37653   2.28030   -1.000
 5501.00    2.33346   2.25272   -1.000
 5502.00    2.30873   2.21972   -1.000
 5503.00    2.32413   2.21726   -1.000
 5504.00    2.33210   2.22658   -1.000
 5505.00    2.31155   2.21887   -1.000
 5506.00    2.27509   2.19708   -1.000
 5507.00    2.27410   2.19029   -1.000
 5508.00    2.31863   2.21931   -1.000
 5509.00    2.34388   2.25689   -1.000
 5510.00    2.33312   2.26341   -1.000
 5511.00    2.29807   2.23285   -1.000
 5512.00    2.25236   2.18794   -1.000
 5513.00    2.23394   2.15816   -1.000
 5514.00    2.25773   2.16142   -1.000
 5515.00    2.29050   2.18966   -1.000
 5516.00    2.33641   2.22778   -1.000
 5517.00    2.37075   2.26916   -1.000
 5518.00    2.41253   2.31040   -1.000
 5519.00    2.43631   2.34291   -1.000
 5520.00    2.44045   2.35369   -1.000
 5521.00    2.42994   2.34841   -1.000
 5522.00    2.41950   2.34391   -1.000
 5523.00    2.40738   2.34415   -1.000
 5524.00    2.39883   2.33856   -1.000
 5525.00    2.36894   2.31101   -1.000
 5526.00    2.32414   2.25749   -1.000
 5527.00    2.26980   2.19206   -1.000
 5528.00    2.24080   2.14959   -1.000
 5529.00    2.26831   2.16730   -1.000
 5530.00    2.34107   2.23318   -1.000
 5531.00    2.38987   2.29640   -1.000
 5532.00    2.39064   2.31826   -1.000
 5533.00    2.36843   2.30774   -1.000
 5534.00    2.34042   2.28875   -1.000
 5535.00    2.33239   2.27659   -1.000
 5536.00    2.34886   2.27823   -1.000
 5537.00    2.36871   2.29278   -1.000
 5538.00    2.37965   2.30885   -1.000
 5539.00    2.41485   2.32531   -1.000
 5540.00    2.44796   2.34788   -1.000
 5541.00    2.45341   2.36267   -1.000
 5542.00    2.42478   2.35435   -1.000
 5543.00    2.39262   2.33172   -1.000
 5544.00    2.38927   2.31595   -1.000
 5545.00    2.39258   2.31593   -1.000
 5546.00    2.39893   2.32541   -1.000
 5547.00    2.42021   2.34074   -1.000
 5548.00    2.45583   2.36740   -1.000
 5549.00    2.48101   2.39439   -1.000
 5550.00    2.48752   2.40627   -1.000
 5551.00    2.48396   2.40288   -1.000
 5552.00    2.46743   2.38609   -1.000
 5553.00    2.43593   2.36023   -1.000
 5554.00    2.41095   2.34054   -1.000
 5555.00    2.42099   2.33736   -1.000
 5556.00    2.42930   2.34570   -1.000
 5557.00    2.42951   2.35167   -1.000
 5558.00    2.43790   2.35283   -1.000
 5559.00    2.44215   2.35665   -1.000
 5560.00    2.43771   2.35789   -1.000
 5561.00    2.43136   2.34538   -1.000
 5562.00    2.41198   2.32240   -1.000
 5563.00    2.39151   2.30530   -1.000
 5564.00    2.38125   2.29841   -1.000
 5565.00    2.37248   2.29398   -1.000
 5566.00    2.37963   2.28607   -1.000
 5567.00    2.37646   2.27826   -1.000
 5568.00    2.38288   2.27600   -1.000
 5569.00    2.37901   2.27876   -1.000
 5570.00    2.38243   2.28339   -1.000
 5571.00    2.38923   2.28432   -1.000
 5572.00    2.36972   2.27762   -1.000
 5573.00    2.36729   2.26893   -1.000
 5574.00    2.39274   2.27836   -1.000
 5575.00    2.37095   2.30683   -1.000
 5576.00    2.27592   2.32449   -1.000
 5577.00    2.21602   2.33029   -1.000
 5578.00    2.29437   2.34227   -1.000
 5579.00    2.44450   2.35691   -1.000
 5580.00    2.48378   2.36251   -1.000
 5581.00    2.45642   2.35853   -1.000
 5582.00    2.43779   2.34866   -1.000
 5583.00    2.43548   2.34091   -1.000
 5584.00    2.42741   2.32906   -1.000
 5585.00    2.38151   2.29143   -1.000
 5586.00    2.30940   2.22037   -1.000
 5587.00    2.24836   2.14433   -1.000
 5588.00    2.22230   2.10672   -1.000
 5589.00    2.23933   2.11675   -1.000
 5590.00    2.28278   2.15881   -1.000
 5591.00    2.32208   2.20831   -1.000
 5592.00    2.33494   2.23907   -1.000
 5593.00    2.33559   2.24816   -1.000
 5594.00    2.34488   2.25671   -1.000
 5595.00    2.37162   2.28266   -1.000
 5596.00    2.41417   2.31432   -1.000
 5597.00    2.41308   2.31902   -1.000
 5598.00    2.35937   2.28642   -1.000
 5599.00    2.32935   2.24532   -1.000
 5600.00    2.32146   2.22039   -1.000
 5601.00    2.30616   2.20027   -1.000
 5602.00    2.29772   2.18998   -1.000
 5603.00    2.32191   2.21701   -1.000
 5604.00    2.39257   2.28441   -1.000
 5605.00    2.46593   2.36132   -1.000
 5606.00    2.49971   2.41583   -1.000
 5607.00    2.51404   2.43905   -1.000
 5608.00    2.50617   2.44172   -1.000
 5609.00    2.50632   2.43782   -1.000
 5610.00    2.51416   2.43939   -1.000
 5611.00    2.51590   2.44912   -1.000
 5612.00    2.51584   2.44755   -1.000
 5613.00    2.47822   2.40542   -1.000
 5614.00    2.39009   2.31688   -1.000
 5615.00    2.30156   2.22378   -1.000
 5616.00    2.30367   2.18764   -1.000
 5617.00    2.35810   2.22784   -1.000
 5618.00    2.41157   2.29140   -1.000
 5619.00    2.42725   2.32560   -1.000
 5620.00    2.44404   2.34292   -1.000
 5621.00    2.45665   2.36170   -1.000
 5622.00    2.45644   2.36454   -1.000
 5623.00    2.42251   2.33231   -1.000
 5624.00    2.36169   2.28154   -1.000
 5625.00    2.35587   2.25353   -1.000
 5626.00    2.38973   2.27545   -1.000
 5627.00    2.43094   2.32308   -1.000
 5628.00    2.46804   2.36764   -1.000
 5629.00    2.49414   2.40154   -1.000
 5630.00    2.51253   2.42478   -1.000
 5631.00    2.51943   2.43142   -1.000
 5632.00    2.51646   2.42113   -1.000
 5633.00    2.50545   2.40288   -1.000
 5634.00    2.48969   2.38252   -1.000
 5635.00    2.46238   2.35917   -1.000
 5636.00    2.43314   2.33876   -1.000
 5637.00    2.41694   2.32629   -1.000
 5638.00    2.41789   2.32585   -1.000
 5639.00    2.42526   2.33347   -1.000
 5640.00    2.42111   2.33476   -1.000
 5641.00    2.41264   2.32369   -1.000
 5642.00    2.41502   2.31825   -1.000
 5643.00    2.42639   2.32953   -1.000
 5644.00    2.44267   2.34445   -1.000
 5645.00    2.45896   2.35748   -1.000
 5646.00    2.46999   2.36942   -1.000
 5647.00    2.47217   2.37568   -1.000
 5648.00    2.46633   2.37282   -1.000
 5649.00    2.46771   2.36541   -1.000
 5650.00    2.47541   2.36432   -1.000
 5651.00    2.48899   2.37782   -1.000
 5652.00    2.50401   2.39227   -1.000
 5653.00    2.49136   2.38715   -1.000
 5654.00    2.46906   2.36700   -1.000
 5655.00    2.44235   2.34694   -1.000
 5656.00    2.41024   2.32278   -1.000
 5657.00    2.35210   2.28117   -1.000
 5658.00    2.29117   2.23138   -1.000
 5659.00    2.30321   2.21377   -1.000
 5660.00    2.36204   2.24609   -1.000
 5661.00    2.39861   2.28243   -1.000
 5662.00    2.38484   2.29413   -1.000
 5663.00    2.40084   2.30564   -1.000
 5664.00    2.43592   2.33633   -1.000
 5665.00    2.46156   2.36778   -1.000
 5666.00    2.45485   2.37533   -1.000
 5667.00    2.43289   2.36056   -1.000
 5668.00    2.42058   2.34738   -1.000
 5669.00    2.42949   2.34937   -1.000
 5670.00    2.43802   2.36191   -1.000
 5671.00    2.45687   2.38227   -1.000
 5672.00    2.48688   2.41007   -1.000
 5673.00    2.51633   2.43416   -1.000
 5674.00    2.53195   2.44432   -1.000
 5675.00    2.52635   2.44227   -1.000
 5676.00    2.53565   2.43939   -1.000
 5677.00    2.54589   2.44259   -1.000
 5678.00    2.53210   2.44170   -1.000
 5679.00    2.51536   2.42841   -1.000
 5680.00    2.50329   2.40780   -1.000
 5681.00    2.47428   2.37996   -1.000
 5682.00    2.44763   2.34611   -1.000
 5683.00    2.42672   2.32541   -1.000
 5684.00    2.43455   2.33302   -1.000
 5685.00    2.44563   2.35059   -1.000
 5686.00    2.43275   2.35149   -1.000
 5687.00    2.40245   2.33652   -1.000
 5688.00    2.39543   2.32670   -1.000
 5689.00    2.43300   2.33837   -1.000
 5690.00    2.47503   2.37107   -1.000
 5691.00    2.51307   2.40859   -1.000
 5692.00    2.53831   2.43502   -1.000
 5693.00    2.54195   2.44590   -1.000
 5694.00    2.53549   2.44544   -1.000
 5695.00    2.53388   2.44189   -1.000
 5696.00    2.52572   2.43580   -1.000
 5697.00    2.50368   2.42306   -1.000
 5698.00    2.48028   2.40048   -1.000
 5699.00    2.45094   2.37483   -1.000
 5700.00    2.41812   2.35124   -1.000
 5701.00    2.39636   2.33213   -1.000
 5702.00    2.39381   2.33115   -1.000
 5703.00    2.40668   2.35017   -1.000
 5704.00    2.42192   2.36821   -1.000
 5705.00    2.41348   2.36478   -1.000
 5706.00    2.38178   2.33518   -1.000
 5707.00    2.34850   2.29539   -1.000
 5708.00    2.31332   2.26071   -1.000
 5709.00    2.30182   2.23470   -1.000
 5710.00    2.31437   2.22804   -1.000
 5711.00    2.33311   2.24523   -1.000
 5712.00    2.37494   2.28339   -1.000
 5713.00    2.43604   2.34014   -1.000
 5714.00    2.49416   2.39246   -1.000
 5715.00    2.51780   2.42178   -1.000
 5716.00    2.52538   2.43495   -1.000
 5717.00    2.52871   2.44469   -1.000
 5718.00    2.53867   2.45440   -1.000
 5719.00    2.56189   2.46783   -1.000
 5720.00    2.57198   2.48569   -1.000
 5721.00    2.59012   2.50321   -1.000
 5722.00    2.59973   2.51670   -1.000
 5723.00    2.60234   2.52376   -1.000
 5724.00    2.59643   2.52120   -1.000
 5725.00    2.57302   2.50344   -1.000
 5726.00    2.54275   2.47366   -1.000
 5727.00    2.52476   2.45158   -1.000
 5728.00    2.53396   2.45507   -1.000
 5729.00    2.55267   2.47121   -1.000
 5730.00    2.54594   2.47395   -1.000
 5731.00    2.52827   2.46085   -1.000
 5732.00    2.53884   2.45438   -1.000
 5733.00    2.56519   2.47222   -1.000
 5734.00    2.58479   2.50120   -1.000
 5735.00    2.59411   2.51470   -1.000
 5736.00    2.58541   2.50960   -1.000
 5737.00    2.57572   2.49764   -1.000
 5738.00    2.56379   2.49208   -1.000
 5739.00    2.55103   2.49540   -1.000
 5740.00    2.55333   2.49743   -1.000
 5741.00    2.56093   2.49316   -1.000
 5742.00    2.55909   2.48555   -1.000
 5743.00    2.55024   2.48789   -1.000
 5744.00    2.56356   2.50385   -1.000
 5745.00    2.57898   2.51976   -1.000
 5746.00    2.57398   2.51637   -1.000
 5747.00    2.55514   2.49228   -1.000
 5748.00    2.53915   2.47591   -1.000
 5749.00    2.55511   2.48589   -1.000
 5750.00    2.58184   2.50200   -1.000
 5751.00    2.56018   2.49383   -1.000
 5752.00    2.51193   2.45221   -1.000
 5753.00    2.47578   2.40845   -1.000
 5754.00    2.47875   2.39819   -1.000
 5755.00    2.52403   2.43289   -1.000
 5756.00    2.57202   2.48958   -1.000
 5757.00    2.60624   2.52977   -1.000
 5758.00    2.61319   2.53929   -1.000
 5759.00    2.58819   2.52013   -1.000
 5760.00    2.55045   2.48172   -1.000
 5761.00    2.51164   2.43830   -1.000
 5762.00    2.48802   2.41095   -1.000
 5763.00    2.51022   2.42093   -1.000
 5764.00    2.54622   2.46847   -1.000
 5765.00    2.59576   2.52281   -1.000
 5766.00    2.61918   2.55344   -1.000
 5767.00    2.62103   2.56182   -1.000
 5768.00    2.62200   2.55891   -1.000
 5769.00    2.60781   2.55104   -1.000
 5770.00    2.59472   2.54175   -1.000
 5771.00    2.57320   2.53153   -1.000
 5772.00    2.55652   2.51743   -1.000
 5773.00    2.54525   2.50321   -1.000
 5774.00    2.54192   2.49644   -1.000
 5775.00    2.53480   2.49909   -1.000
 5776.00    2.53492   2.51303   -1.000
 5777.00    2.51856   2.52414  134.238
 5778.00    2.46696   2.51194   -1.000
 5779.00    2.38192   2.47114   -1.000
 5780.00    2.29938   2.41369   -1.000
 5781.00    2.28587   2.36357   -1.000
 5782.00    2.33298   2.34250  141.278
 5783.00    2.38430   2.34872   -1.000
 5784.00    2.41907   2.35598   -1.000
 5785.00    2.43942   2.36019   -1.000
 5786.00    2.47439   2.38368   -1.000
 5787.00    2.51898   2.42802   -1.000
 5788.00    2.54332   2.46698   -1.000
 5789.00    2.55359   2.48143   -1.000
 5790.00    2.55173   2.47354   -1.000
 5791.00    2.55037   2.46399   -1.000
 5792.00    2.56365   2.47453   -1.000
 5793.00    2.57290   2.50610   -1.000
 5794.00    2.56947   2.53847   -1.000
 5795.00    2.56262   2.55493  132.906
 5796.00    2.54737   2.54594  133.766
 5797.00    2.52453   2.52048  134.621
 5798.00    2.53960   2.50898   -1.000
 5799.00    2.59927   2.53025   -1.000
 5800.00    2.64884   2.57021   -1.000
 5801.00    2.67542   2.59677   -1.000
 5802.00    2.66269   2.59732   -1.000
 5803.00    2.63046   2.57574   -1.000
 5804.00    2.60561   2.54393   -1.000
 5805.00    2.58549   2.52234   -1.000
 5806.00    2.58236   2.52031   -1.000
 5807.00    2.60113   2.53104   -1.000
 5808.00    2.60870   2.54286   -1.000
 5809.00    2.61598   2.55294   -1.000
 5810.00    2.62895   2.56441   -1.000
 5811.00    2.63782   2.57346   -1.000
 5812.00    2.64402   2.57281   -1.000
 5813.00    2.63779   2.56150   -1.000
 5814.00    2.62670   2.53998   -1.000
 5815.00    2.60654   2.51313   -1.000
 5816.00    2.60314   2.50043   -1.000
 5817.00    2.62867   2.51918   -1.000
 5818.00    2.66000   2.55778   -1.000
 5819.00    2.67664   2.59012   -1.000
 5820.00    2.69148   2.59944   -1.000
 5821.00    2.68822   2.59311   -1.000
 5822.00    2.67976   2.58393   -1.000
 5823.00    2.68225   2.58054   -1.000
 5824.00    2.68901   2.58318   -1.000
 5825.00    2.69124   2.58614   -1.000
 5826.00    2.68841   2.58985   -1.000
 5827.00    2.68551   2.59373   -1.000
 5828.00    2.68691   2.59865   -1.000
 5829.00    2.68591   2.60347   -1.000
 5830.00    2.68548   2.60487   -1.000
 5831.00    2.69354   2.60249   -1.000
 5832.00    2.68988   2.59656   -1.000
 5833.00    2.68687   2.58629   -1.000
 5834.00    2.67952   2.57445   -1.000
 5835.00    2.67575   2.56944   -1.000
 5836.00    2.68300   2.57468   -1.000
 5837.00    2.68399   2.57999   -1.000
 5838.00    2.67557   2.58069   -1.000
 5839.00    2.67969   2.58634   -1.000
 5840.00    2.69366   2.60026   -1.000
 5841.00    2.69474   2.61651   -1.000
 5842.00    2.70016   2.62344   -1.000
 5843.00    2.70162   2.61755   -1.000
 5844.00    2.67937   2.60354   -1.000
 5845.00    2.65951   2.58405   -1.000
 5846.00    2.64986   2.56225   -1.000
 5847.00    2.64176   2.54679   -1.000
 5848.00    2.63748   2.54484   -1.000
 5849.00    2.64644   2.55194   -1.000
 5850.00    2.63801   2.55135   -1.000
 5851.00    2.62043   2.53364   -1.000
 5852.00    2.59265   2.50619   -1.000
 5853.00    2.58277   2.48553   -1.000
 5854.00    2.58124   2.47900   -1.000
 5855.00    2.58112   2.47312   -1.000
 5856.00    2.56069   2.44510   -1.000
 5857.00    2.52172   2.40199   -1.000
 5858.00    2.52388   2.38537   -1.000
 5859.00    2.56114   2.41542   -1.000
 5860.00    2.59474   2.46391   -1.000
 5861.00    2.61573   2.49613   -1.000
 5862.00    2.61501   2.50784   -1.000
 5863.00    2.62815   2.51262   -1.000
 5864.00    2.63002   2.52014   -1.000
 5865.00    2.62462   2.51741   -1.000
 5866.00    2.60853   2.50070   -1.000
 5867.00    2.61237   2.49207   -1.000
 5868.00    2.64188   2.50952   -1.000
 5869.00    2.66901   2.54159   -1.000
 5870.00    2.67813   2.56644   -1.000
 5871.00    2.67675   2.57308   -1.000
 5872.00    2.66946   2.56465   -1.000
 5873.00    2.66572   2.55438   -1.000
 5874.00    2.66868   2.55105   -1.000
 5875.00    2.66374   2.55149   -1.000
 5876.00    2.66082   2.54517   -1.000
 5877.00    2.64922   2.53002   -1.000
 5878.00    2.63675   2.51058   -1.000
 5879.00    2.61227   2.49158   -1.000
 5880.00    2.59167   2.48018   -1.000
 5881.00    2.58762   2.47971   -1.000
 5882.00    2.59702   2.48188   -1.000
 5883.00    2.57968   2.47311   -1.000
 5884.00    2.55591   2.46020   -1.000
 5885.00    2.52478   2.45266   -1.000
 5886.00    2.43128   2.42655  138.342
 5887.00    2.21000   2.33497   -1.000
 5888.00    1.85916   2.15864   -1.000
 5889.00    1.54769   1.95182   -1.000
 5890.00    1.52506   1.83440   -1.000
 5891.00    1.75126   1.88220   -1.000
 5892.00    1.94882   2.01776   -1.000
 5893.00    1.95809   2.10448   -1.000
 5894.00    1.80523   2.09143   -1.000
 5895.00    1.66207   2.01102   -1.000
 5896.00    1.72559   1.96872   -1.000
 5897.00    1.96899   2.04113   -1.000
 5898.00    2.19712   2.17595   -1.000
 5899.00    2.33301   2.28942   -1.000
 5900.00    2.43699   2.36562   -1.000
 5901.00    2.52817   2.42189   -1.000
 5902.00    2.57626   2.45804   -1.000
 5903.00    2.59977   2.47601   -1.000
 5904.00    2.60738   2.48169   -1.000
 5905.00    2.60153   2.48051   -1.000
 5906.00    2.60229   2.48322   -1.000
 5907.00    2.61647   2.49427   -1.000
 5908.00    2.62093   2.50701   -1.000
 5909.00    2.61172   2.51728   -1.000
 5910.00    2.61123   2.52635   -1.000
 5911.00    2.61769   2.52925   -1.000
 5912.00    2.61027   2.51660   -1.000
 5913.00    2.57437   2.48381   -1.000
 5914.00    2.54407   2.44740   -1.000
 5915.00    2.53310   2.43331   -1.000
 5916.00    2.55240   2.44428   -1.000
 5917.00    2.57188   2.46872   -1.000
 5918.00    2.58613   2.49804   -1.000
 5919.00    2.59817   2.51953   -1.000
 5920.00    2.60448   2.52701   -1.000
 5921.00    2.60728   2.52374   -1.000
 5922.00    2.59812   2.51636   -1.000
 5923.00    2.59779   2.51543   -1.000
 5924.00    2.61304   2.52660   -1.000
 5925.00    2.62918   2.54297   -1.000
 5926.00    2.64437   2.55292   -1.000
 5927.00    2.64099   2.54472   -1.000
 5928.00    2.62070   2.51826   -1.000
 5929.00    2.61180   2.49203   -1.000
 5930.00    2.61264   2.48486   -1.000
 5931.00    2.62773   2.50352   -1.000
 5932.00    2.63667   2.52579   -1.000
 5933.00    2.63638   2.52662   -1.000
 5934.00    2.62185   2.51258   -1.000
 5935.00    2.62435   2.51078   -1.000
 5936.00    2.63496   2.53213   -1.000
 5937.00    2.64783   2.55504   -1.000
 5938.00    2.65652   2.56260   -1.000
 5939.00    2.65641   2.55502   -1.000
 5940.00    2.63720   2.53488   -1.000
 5941.00    2.60487   2.51271   -1.000
 5942.00    2.59430   2.50587   -1.000
 5943.00    2.61132   2.51874   -1.000
 5944.00    2.63493   2.53952   -1.000
 5945.00    2.64895   2.55514   -1.000
 5946.00    2.64176   2.55516   -1.000
 5947.00    2.61795   2.53686   -1.000
 5948.00    2.59961   2.51309   -1.000
 5949.00    2.59367   2.50668   -1.000
 5950.00    2.60549   2.51897   -1.000
 5951.00    2.61892   2.52672   -1.000
 5952.00    2.61823   2.51764   -1.000
 5953.00    2.61059   2.50714   -1.000
 5954.00    2.61807   2.51367   -1.000
 5955.00    2.62660   2.52233   -1.000
 5956.00    2.61242   2.51344   -1.000
 5957.00    2.60162   2.50284   -1.000
 5958.00    2.61948   2.51030   -1.000
 5959.00    2.65251   2.53530   -1.000
 5960.00    2.67574   2.56496   -1.000
 5961.00    2.69341   2.58421   -1.000
 5962.00    2.70380   2.58957   -1.000
 5963.00    2.70104   2.58464   -1.000
 5964.00    2.69167   2.57220   -1.000
 5965.00    2.66774   2.55818   -1.000
 5966.00    2.65376   2.55342   -1.000
 5967.00    2.66392   2.56300   -1.000
 5968.00    2.67644   2.57708   -1.000
 5969.00    2.68900   2.58911   -1.000
 5970.00    2.70154   2.60122   -1.000
 5971.00    2.70950   2.60971   -1.000
 5972.00    2.70742   2.61046   -1.000
 5973.00    2.69371   2.60265   -1.000
 5974.00    2.67206   2.58292   -1.000
 5975.00    2.64044   2.55186   -1.000
 5976.00    2.61557   2.52194   -1.000
 5977.00    2.60926   2.50921   -1.000
 5978.00    2.62623   2.51799   -1.000
 5979.00    2.64753   2.54259   -1.000
 5980.00    2.66430   2.56818   -1.000
 5981.00    2.67367   2.57535   -1.000
 5982.00    2.65394   2.55266   -1.000
 5983.00    2.61926   2.51259   -1.000
 5984.00    2.59577   2.48350   -1.000
 5985.00    2.60128   2.48902   -1.000
 5986.00    2.62966   2.51779   -1.000
 5987.00    2.65168   2.54295   -1.000
 5988.00    2.67160   2.56021   -1.000
 5989.00    2.67698   2.57170   -1.000
 5990.00    2.66829   2.57396   -1.000
 5991.00    2.67067   2.57260   -1.000
 5992.00    2.67829   2.58117   -1.000
 5993.00    2.70352   2.60413   -1.000
 5994.00    2.71262   2.62123   -1.000
 5995.00    2.70299   2.61300   -1.000
 5996.00    2.69150   2.58583   -1.000
 5997.00    2.66611   2.55853   -1.000
 5998.00    2.65978   2.54844   -1.000
 5999.00    2.66106   2.55872   -1.000
 6000.00    2.67395   2.57181   -1.000
 6001.00    2.67341   2.57347   -1.000
 6002.00    2.65925   2.56257   -1.000
 6003.00    2.64612   2.55304   -1.000
 6004.00    2.64572   2.55864   -1.000
 6005.00    2.64445   2.56028   -1.000
 6006.00    2.62542   2.53806   -1.000
 6007.00    2.59662   2.50479   -1.000
 6008.00    2.58874   2.49188   -1.000
 6009.00    2.60606   2.51900   -1.000
 6010.00    2.63334   2.56022   -1.000
 6011.00    2.65326   2.57396   -1.000
 6012.00    2.64216   2.55809   -1.000
 6013.00    2.63709   2.53870   -1.000
 6014.00    2.64365   2.53453   -1.000
 6015.00    2.64400   2.53924   -1.000
 6016.00    2.64234   2.53753   -1.000
 6017.00    2.63886   2.53545   -1.000
 6018.00    2.64069   2.53611   -1.000
 6019.00    2.62359   2.52552   -1.000
 6020.00    2.60880   2.50853   -1.000
 6021.00    2.62243   2.50515   -1.000
 6022.00    2.63755   2.51718   -1.000
 6023.00    2.64879   2.53331   -1.000
 6024.00    2.66300   2.54935   -1.000
 6025.00    2.67723   2.57063   -1.000
 6026.00    2.69416   2.59103   -1.000
 6027.00    2.70795   2.60437   -1.000
 6028.00    2.71382   2.61876   -1.000
 6029.00    2.73062   2.63425   -1.000
 6030.00    2.74007   2.64267   -1.000
 6031.00    2.73960   2.64663   -1.000
 6032.00    2.74482   2.65269   -1.000
 6033.00    2.75373   2.66533   -1.000
 6034.00    2.74912   2.68364   -1.000
 6035.00    2.73983   2.69317   -1.000
 6036.00    2.73908   2.68808   -1.000
 6037.00    2.73640   2.67652   -1.000
 6038.00    2.73236   2.66192   -1.000
 6039.00    2.72297   2.64747   -1.000
 6040.00    2.71404   2.63770   -1.000
 6041.00    2.72007   2.63869   -1.000
 6042.00    2.72235   2.64938   -1.000
 6043.00    2.73741   2.66434   -1.000
 6044.00    2.75582   2.67564   -1.000
 6045.00    2.75449   2.68016   -1.000
 6046.00    2.75998   2.68403   -1.000
 6047.00    2.76608   2.68863   -1.000
 6048.00    2.75898   2.69320   -1.000
 6049.00    2.77142   2.69646   -1.000
 6050.00    2.77762   2.69675   -1.000
 6051.00    2.77341   2.69045   -1.000
 6052.00    2.76576   2.67628   -1.000
 6053.00    2.75802   2.65664   -1.000
 6054.00    2.74490   2.63640   -1.000
 6055.00    2.71575   2.61824   -1.000
 6056.00    2.71180   2.61140   -1.000
 6057.00    2.72046   2.62155   -1.000
 6058.00    2.73548   2.64108   -1.000
 6059.00    2.74152   2.65844   -1.000
 6060.00    2.75833   2.66560   -1.000
 6061.00    2.74974   2.65959   -1.000
 6062.00    2.73354   2.63990   -1.000
 6063.00    2.82505   2.60864   -1.000
 6064.00    2.73049   2.57508   -1.000
 6065.00    2.66918   2.56185   -1.000
 6066.00    2.21225   2.58825   -1.000
 6067.00    0.85371   2.63644   -1.000
 6068.00    1.78396   2.67453   -1.000
 6069.00    2.70077   2.69410  136.232
 6070.00    2.66370   2.70371   -1.000
 6071.00    2.73469   2.71000   -1.000
 6072.00    2.92124   2.71300   -1.000
 6073.00    2.84186   2.71300   -1.000
 6074.00    2.78273   2.70944   -1.000
 6075.00    2.78033   2.69901   -1.000
 6076.00    2.76969   2.68065   -1.000
 6077.00    2.74179   2.65652   -1.000
 6078.00    2.70948   2.63246   -1.000
 6079.00    2.70104   2.62036   -1.000
 6080.00    2.70234   2.61653   -1.000
 6081.00    2.69495   2.60941   -1.000
 6082.00    2.67977   2.60238   -1.000
 6083.00    2.68058   2.60309   -1.000
 6084.00    2.69283   2.60619   -1.000
 6085.00    2.69758   2.61168   -1.000
 6086.00    2.70311   2.62399   -1.000
 6087.00    2.71104   2.63661   -1.000
 6088.00    2.71013   2.63768   -1.000
 6089.00    2.69686   2.62373   -1.000
 6090.00    2.68728   2.60589   -1.000
 6091.00    2.68310   2.59865   -1.000
 6092.00    2.68971   2.60593   -1.000
 6093.00    2.69942   2.62398   -1.000
 6094.00    2.71837   2.64558   -1.000
 6095.00    2.74815   2.66082   -1.000
 6096.00    2.75496   2.66559   -1.000
 6097.00    2.74793   2.66894   -1.000
 6098.00    2.74177   2.67660   -1.000
 6099.00    2.73533   2.67268   -1.000
 6100.00    2.71343   2.63750   -1.000
 6101.00    2.66117   2.57039   -1.000
 6102.00    2.60477   2.50507   -1.000
 6103.00    2.59507   2.49516   -1.000
 6104.00    2.64130   2.54354   -1.000
 6105.00    2.69690   2.60288   -1.000
 6106.00    2.73068   2.63768   -1.000
 6107.00    2.72235   2.65392   -1.000
 6108.00    2.71232   2.66680   -1.000
 6109.00    2.72433   2.67817   -1.000
 6110.00    2.72874   2.67835   -1.000
 6111.00    2.71915   2.67443   -1.000
 6112.00    2.72697   2.67947   -1.000
 6113.00    2.74687   2.69212   -1.000
 6114.00    2.75251   2.70032   -1.000
 6115.00    2.74161   2.69466   -1.000
 6116.00    2.72860   2.68410   -1.000
 6117.00    2.71871   2.67753   -1.000
 6118.00    2.71598   2.66612   -1.000
 6119.00    2.68289   2.63546   -1.000
 6120.00    2.64832   2.58294   -1.000
 6121.00    2.61369   2.52744   -1.000
 6122.00    2.60230   2.50498   -1.000
 6123.00    2.63581   2.53175   -1.000
 6124.00    2.67509   2.58121   -1.000
 6125.00    2.70792   2.61558   -1.000
 6126.00    2.70133   2.62683   -1.000
 6127.00    2.68036   2.62625   -1.000
 6128.00    2.67538   2.62972   -1.000
 6129.00    2.68979   2.64875   -1.000
 6130.00    2.71989   2.67637   -1.000
 6131.00    2.74522   2.70028   -1.000
 6132.00    2.73581   2.70921   -1.000
 6133.00    2.72058   2.68999   -1.000
 6134.00    2.66838   2.62901   -1.000
 6135.00    2.58939   2.53487   -1.000
 6136.00    2.51148   2.44905   -1.000
 6137.00    2.49034   2.42907   -1.000
 6138.00    2.54633   2.48100   -1.000
 6139.00    2.62998   2.54720   -1.000
 6140.00    2.67165   2.57762   -1.000
 6141.00    2.66869   2.59210   -1.000
 6142.00    2.67002   2.61794   -1.000
 6143.00    2.69358   2.65611   -1.000
 6144.00    2.72636   2.68727   -1.000
 6145.00    2.73309   2.69575   -1.000
 6146.00    2.72339   2.68589   -1.000
 6147.00    2.70482   2.66566   -1.000
 6148.00    2.67999   2.64288   -1.000
 6149.00    2.65782   2.62347   -1.000
 6150.00    2.65602   2.61420   -1.000
 6151.00    2.66356   2.62391   -1.000
 6152.00    2.67631   2.64167   -1.000
 6153.00    2.68441   2.64461   -1.000
 6154.00    2.67225   2.62786   -1.000
 6155.00    2.65290   2.61138   -1.000
 6156.00    2.64393   2.60699   -1.000
 6157.00    2.63460   2.60525   -1.000
 6158.00    2.60971   2.58857   -1.000
 6159.00    2.57335   2.53787   -1.000
 6160.00    2.50195   2.44877   -1.000
 6161.00    2.42220   2.35209   -1.000
 6162.00    2.38419   2.30195   -1.000
 6163.00    2.40257   2.32328   -1.000
 6164.00    2.45836   2.38753   -1.000
 6165.00    2.51938   2.45434   -1.000
 6166.00    2.54233   2.49603   -1.000
 6167.00    2.53529   2.49797   -1.000
 6168.00    2.51064   2.46202   -1.000
 6169.00    2.47353   2.42730   -1.000
 6170.00    2.47751   2.43822   -1.000
 6171.00    2.51274   2.48785   -1.000
 6172.00    2.55131   2.53585   -1.000
 6173.00    2.57222   2.56350  145.982
 6174.00    2.57842   2.57628  146.066
 6175.00    2.58215   2.57985  145.668
 6176.00    2.57973   2.58117  145.405
 6177.00    2.58166   2.58997  144.997
 6178.00    2.59938   2.60347  144.249
 6179.00    2.61652   2.61259  143.750
 6180.00    2.62449   2.62054  143.294
 6181.00    2.63554   2.63445  142.604
 6182.00    2.64187   2.64683  142.276
 6183.00    2.64485   2.64651  142.619
 6184.00    2.64234   2.63312  143.134
 6185.00    2.61726   2.61086  144.341
 6186.00    2.59192   2.58523  145.958
 6187.00    2.56869   2.56312  147.452
 6188.00    2.54521   2.54658  148.845
 6189.00    2.53296   2.52106   -1.000
 6190.00    2.50991   2.48176   -1.000
 6191.00    2.48838   2.45981   -1.000
 6192.00    2.50669   2.48479   -1.000
 6193.00    2.56073   2.53881   -1.000
 6194.00    2.60095   2.58679   -1.000
 6195.00    2.61763   2.61650  143.925
 6196.00    2.62824   2.62915  143.759
 6197.00    2.62403   2.62287  144.808
 6198.00    2.59733   2.59972  146.556
 6199.00    2.56334   2.57681  147.687
 6200.00    2.54512   2.57855   -1.000
 6201.00    2.55322   2.60270   -1.000
 6202.00    2.57076   2.63039   -1.000
 6203.00    2.57825   2.65030   -1.000
 6204.00    2.59890   2.66157   -1.000
 6205.00    2.62366   2.66863   -1.000
 6206.00    2.63636   2.67295   -1.000
 6207.00    2.64991   2.67545  144.098
 6208.00    2.65510   2.67272  144.014
 6209.00    2.64341   2.66211  144.732
 6210.00    2.62361   2.64296  146.123
 6211.00    2.59044   2.61057  147.230
 6212.00    2.55816   2.56444  148.714
 6213.00    2.51791   2.51800  151.069
 6214.00    2.49425   2.49002  152.493
 6215.00    2.49975   2.48993  152.797
 6216.00    2.52004   2.50679   -1.000
 6217.00    2.53653   2.52051   -1.000
 6218.00    2.53999   2.51556   -1.000
 6219.00    2.53690   2.50225   -1.000
 6220.00    2.52522   2.50346   -1.000
 6221.00    2.54051   2.52273   -1.000
 6222.00    2.59050   2.54383   -1.000
 6223.00    2.46244   2.55504   -1.000
 6224.00    2.17808   2.56062   -1.000
 6225.00    2.55732   2.56629  148.795
 6226.00    2.59236   2.56970   -1.000
 6227.00    2.57491   2.55912   -1.000
 6228.00    2.55038   2.52392   -1.000
 6229.00    2.50416   2.46932   -1.000
 6230.00    2.46363   2.42402   -1.000
 6231.00    2.45858   2.41648   -1.000
 6232.00    2.48512   2.45107   -1.000
 6233.00    2.53550   2.50931   -1.000
 6234.00    2.58973   2.56462   -1.000
 6235.00    2.60679   2.59281   -1.000
 6236.00    2.59637   2.58847  148.366
 6237.00    2.57299   2.56352  149.899
 6238.00    2.54899   2.53421   -1.000
 6239.00    2.51934   2.51238  153.044
 6240.00    2.50028   2.50060  153.582
 6241.00    2.50221   2.49248  153.477
 6242.00    2.48938   2.47891  154.726
 6243.00    2.47349   2.46183   -1.000
 6244.00    2.47474   2.45110   -1.000
 6245.00    2.48565   2.45271   -1.000
 6246.00    2.50922   2.47268   -1.000
 6247.00    2.53210   2.51228   -1.000
 6248.00    2.56314   2.55393  149.365
 6249.00    2.57686   2.57444  149.333
 6250.00    2.57105   2.56187  150.841
 6251.00    2.52872   2.52249  153.753
 6252.00    2.47417   2.47810  155.543
 6253.00    2.45154   2.45128  156.550
 6254.00    2.45812   2.44401   -1.000
 6255.00    2.45578   2.44078   -1.000
 6256.00    2.44381   2.42933   -1.000
 6257.00    2.41982   2.41749  159.793
 6258.00    2.42179   2.42376  158.937
 6259.00    2.46369   2.45335  156.421
 6260.00    2.50720   2.49865  154.090
 6261.00    2.54393   2.54434  152.017
 6262.00    2.56658   2.57957  149.628
 6263.00    2.58458   2.59278  149.020
 6264.00    2.58004   2.58659  150.346
 6265.00    2.56203   2.57906  151.308
 6266.00    2.55103   2.58522   -1.000
 6267.00    2.55661   2.59698   -1.000
 6268.00    2.55063   2.59727   -1.000
 6269.00    2.53720   2.58938   -1.000
 6270.00    2.53697   2.58818   -1.000
 6271.00    2.56284   2.59826   -1.000
 6272.00    2.57600   2.61070   -1.000
 6273.00    2.57703   2.61136   -1.000
 6274.00    2.55309   2.59275   -1.000
 6275.00    2.52972   2.56289   -1.000
 6276.00    2.49558   2.53234   -1.000
 6277.00    2.43739   2.50822   -1.000
 6278.00    2.37993   2.49032   -1.000
 6279.00    2.34051   2.47672   -1.000
 6280.00    2.31837   2.47636   -1.000
 6281.00    2.28796   2.49746   -1.000
 6282.00    2.27802   2.53496   -1.000
 6283.00    2.28281   2.57482   -1.000
 6284.00    2.32792   2.60457   -1.000
 6285.00    2.38665   2.62223   -1.000
 6286.00    2.45685   2.63619   -1.000
 6287.00    2.52175   2.64991   -1.000
 6288.00    2.56150   2.65460   -1.000
 6289.00    2.57225   2.64221   -1.000
 6290.00    2.55579   2.61920   -1.000
 6291.00    2.55750   2.60033   -1.000
 6292.00    2.55514   2.59303   -1.000
 6293.00    2.55318   2.59417   -1.000
 6294.00    2.55672   2.59428   -1.000
 6295.00    2.54262   2.58013   -1.000
 6296.00    2.52116   2.55378   -1.000
 6297.00    2.50238   2.53522   -1.000
 6298.00    2.49246   2.53522   -1.000
 6299.00    2.49194   2.53967   -1.000
 6300.00    2.48439   2.53021   -1.000
 6301.00    2.46983   2.51585   -1.000
 6302.00    2.48138   2.52072   -1.000
 6303.00    2.51351   2.54824   -1.000
 6304.00    2.54086   2.58236   -1.000
 6305.00    2.55593   2.61056   -1.000
 6306.00    2.56950   2.63495   -1.000
 6307.00    2.58942   2.65478   -1.000
 6308.00    2.59452   2.66253   -1.000
 6309.00    2.59101   2.65585   -1.000
 6310.00    2.58043   2.64235   -1.000
 6311.00    2.56128   2.62904   -1.000
 6312.00    2.54892   2.61855   -1.000
 6313.00    2.54266   2.60382   -1.000
 6314.00    2.52220   2.58250   -1.000
 6315.00    2.49639   2.56350   -1.000
 6316.00    2.48575   2.54856   -1.000
 6317.00    2.48255   2.53517   -1.000
 6318.00    2.48287   2.53515   -1.000
 6319.00    2.49846   2.56180   -1.000
 6320.00    2.54030   2.59851   -1.000
 6321.00    2.56894   2.62347   -1.000
 6322.00    2.57928   2.63941   -1.000
 6323.00    2.58928   2.65925   -1.000
 6324.00    2.60399   2.67998   -1.000
 6325.00    2.61577   2.69048   -1.000
 6326.00    2.61934   2.69104   -1.000
 6327.00    2.62129   2.68970   -1.000
 6328.00    2.62274   2.69057   -1.000
 6329.00    2.63076   2.69021   -1.000
 6330.00    2.62643   2.69140   -1.000
 6331.00    2.62556   2.69988   -1.000
 6332.00    2.62464   2.70419   -1.000
 6333.00    2.61036   2.68605   -1.000
 6334.00    2.58759   2.64338   -1.000
 6335.00    2.53624   2.59859   -1.000
 6336.00    2.51970   2.58203   -1.000
 6337.00    2.55079   2.59696   -1.000
 6338.00    2.58022   2.62541   -1.000
 6339.00    2.60921   2.65623   -1.000
 6340.00    2.62480   2.68126   -1.000
 6341.00    2.62281   2.68617   -1.000
 6342.00    2.60766   2.66967   -1.000
 6343.00    2.59134   2.64717   -1.000
 6344.00    2.57719   2.63934   -1.000
 6345.00    2.58369   2.65185   -1.000
 6346.00    2.59941   2.67401   -1.000
 6347.00    2.61092   2.69938   -1.000
 6348.00    2.62352   2.72277   -1.000
 6349.00    2.63112   2.73842   -1.000
 6350.00    2.63721   2.74517   -1.000
 6351.00    2.63745   2.74299   -1.000
 6352.00    2.62864   2.72874   -1.000
 6353.00    2.60129   2.70297   -1.000
 6354.00    2.57289   2.67746   -1.000
 6355.00    2.56350   2.66391   -1.000
 6356.00    2.55654   2.65563   -1.000
 6357.00    2.53841   2.63728   -1.000
 6358.00    2.52082   2.61209   -1.000
 6359.00    2.50792   2.59286   -1.000
 6360.00    2.50553   2.57948   -1.000
 6361.00    2.50085   2.56818   -1.000
 6362.00    2.49051   2.56611   -1.000
 6363.00    2.50152   2.58054   -1.000
 6364.00    2.52080   2.60776   -1.000
 6365.00    2.54604   2.63791   -1.000
 6366.00    2.56054   2.66765   -1.000
 6367.00    2.57895   2.69473   -1.000
 6368.00    2.59749   2.70998   -1.000
 6369.00    2.60912   2.71208   -1.000
 6370.00    2.60239   2.71294   -1.000
 6371.00    2.59930   2.72326   -1.000
 6372.00    2.61560   2.74066   -1.000
 6373.00    2.61838   2.75212   -1.000
 6374.00    2.60848   2.75352   -1.000
 6375.00    2.59815   2.75035   -1.000
 6376.00    2.58233   2.74209   -1.000
 6377.00    2.57044   2.72725   -1.000
 6378.00    2.55918   2.71279   -1.000
 6379.00    2.55391   2.70288   -1.000
 6380.00    2.54554   2.69914   -1.000
 6381.00    2.54564   2.70114   -1.000
 6382.00    2.55204   2.70528   -1.000
 6383.00    2.56222   2.70823   -1.000
 6384.00    2.55574   2.71303   -1.000
 6385.00    2.54949   2.72398   -1.000
 6386.00    2.54439   2.73637   -1.000
 6387.00    2.53852   2.74198   -1.000
 6388.00    2.54103   2.74265   -1.000
 6389.00    2.53377   2.74114   -1.000
 6390.00    2.50631   2.72870   -1.000
 6391.00    2.47573   2.69569   -1.000
 6392.00    2.44231   2.65317   -1.000
 6393.00    2.40688   2.63117   -1.000
 6394.00    2.40157   2.64878   -1.000
 6395.00    2.42525   2.69050   -1.000
 6396.00    2.44270   2.72405   -1.000
 6397.00    2.43343   2.72184   -1.000
 6398.00    2.39555   2.68109   -1.000
 6399.00    2.35414   2.63310   -1.000
 6400.00    2.32377   2.62395   -1.000
 6401.00    2.34086   2.66282   -1.000
 6402.00    2.37289   2.71630   -1.000
 6403.00    2.40461   2.75526   -1.000
 6404.00    2.40043   2.76779   -1.000
 6405.00    2.37842   2.75236   -1.000
 6406.00    2.34214   2.72041   -1.000
 6407.00    2.30795   2.69684   -1.000
 6408.00    2.28638   2.69575   -1.000
 6409.00    2.27458   2.70429   -1.000
 6410.00    2.25870   2.70180   -1.000
 6411.00    2.23373   2.69148   -1.000
 6412.00    2.21498   2.69149   -1.000
 6413.00    2.20312   2.70416   -1.000
 6414.00    2.20528   2.71871   -1.000
 6415.00    2.20382   2.73158   -1.000
 6416.00    2.19450   2.73885   -1.000
 6417.00    2.17957   2.73263   -1.000
 6418.00    2.15243   2.70822   -1.000
 6419.00    2.11539   2.67418   -1.000
 6420.00    2.07038   2.65166   -1.000
 6421.00    2.05617   2.66301   -1.000
 6422.00    2.06536   2.70471   -1.000
 6423.00    2.07528   2.74582   -1.000
 6424.00    2.07582   2.77071   -1.000
 6425.00    2.06395   2.78636   -1.000
 6426.00    2.04891   2.79776   -1.000
 6427.00    2.03284   2.79617   -1.000
 6428.00    2.00637   2.76826   -1.000
