###################################################################
## OUTPUT of StarlightChains_v04.for    [Cid@UFSC - 01/Apr/2007] ##
###################################################################

## Some input info
NGC6441_a_1.cxt                          [arq_obs]
Base.BC03.N                              [arq_base]
NGC6441_a_1.msk                          [arq_masks]
StCv04.C99.config                        [arq_config]
   45                                    [N_base]
    0                                    [N_YAV_components = # of components with extra extinction!]
    0                                    [i_FitPowerLaw (1/0 = Yes/No)]
-9.99                                    [alpha_PowerLaw]
CCM                                      [red_law_option]
 1.458241                                [q_norm = A(l_norm)/A(V)]

## (Re)Sampling Parameters
 3359.00                                 [l_ini (A)]
 6428.00                                 [l_fin (A)]
    1.00                                 [dl    (A)]     (OBS: dl_cushion =    50.00 A)

## Normalization info
 4020.00                                 [l_norm (A) - for base]
 4010.00                                 [llow_norm (A) - window for f_obs]
 4060.00                                 [lupp_norm (A) - window for f_obs]
2.855491E-14                             [fobs_norm (in input units)]

## S/N
 4730.00                                 [llow_SN (A) - window for S/N]
 4780.00                                 [lupp_SN (A) - window for S/N]
  36.149                                 [S/N in S/N window]
  21.540                                 [S/N in norm. window]
 181.134                                 [S/N_err in S/N window]
 107.930                                 [S/N_err in norm. window]
  1.0000                                 [fscale_chi2]

## etc...
  2147483609                             [idum_orig]
  3067                                   [NOl_eff]
   848                                   [Nl_eff]
  2219    NSIGMA                         [Ntot_cliped & clip_method]
  1715280                                [Nglobal_steps]
   7                                     [N_chains]
   8                                     [NEX0s_base = N_base in EX0s-fits]
 0   0   1      126   2.0   2.568E+02    [Clip-Bug, RC-Crash & Burn-In warning-flags, n_censored_weights, wei_nsig_threshold & wei_limit]
    24     24.093     24.093      0.000  [idt_all, wdt_TotTime, wdt_UsrTime & wdt_SysTime (sec)]

## Synthesis Results - Best model ##

 2.47907E+00                             [chi2/Nl_eff]
     1.76518                             [adev (%)]

    99.74776                             [sum-of-x (%)]
 1.78654E-13                             [Flux_tot (units of input spectrum!)]
 6.96411E-09                             [Mini_tot (???)]
 3.57066E-09                             [Mcor_tot (???)]

 -12.59                                  [v0_min  (km/s)]
  27.74                                  [vd_min  (km/s)]
 1.3671                                  [AV_min  (mag)]
 0.0000                                  [YAV_min (mag)]

# j     x_j(%)      Mini_j(%)     Mcor_j(%)     age_j(yr)     Z_j      (L/M)_j    YAV?  Mstars   component_j        a/Fe...       SSP_chi2r SSP_adev(%)   SSP_AV   SSP_x(%)
  1      0.0000     0.0000E+00    0.0000E+00    1.000000E+06  0.00400  1.114E-02    0   1.0000   age020_m42            0.0000     2.4687E+03    41.3177   4.0000   104.4447
  2      0.0000     0.0000E+00    0.0000E+00    3.160000E+06  0.00400  4.073E-02    0   0.9999   age045_m42            0.0000     3.6490E+02    16.1530   4.0000   101.1351
  3      0.0000     0.0000E+00    0.0000E+00    5.010000E+06  0.00400  2.534E-02    0   0.9488   age055_m42            0.0000     9.3892E+02    27.0090   4.0000   104.0364
  4      5.8649     1.1868E-02    2.0512E-02    1.000000E+07  0.00400  1.271E-02    0   0.8862   age070_m42            0.0000     3.3508E+02    15.8803   3.8853    92.2395
  5      0.0000     0.0000E+00    0.0000E+00    2.512000E+07  0.00400  5.070E-03    0   0.8174   age090_m42            0.0000     3.0613E+02    15.2156   3.7643    93.7220
  6      0.0000     0.0000E+00    0.0000E+00    4.000000E+07  0.00400  3.505E-03    0   0.7851   age104_m42            0.0000     2.3419E+02    13.1546   3.4701    96.1904
  7      0.0000     0.0000E+00    0.0000E+00    1.015200E+08  0.00400  2.268E-03    0   0.7207   age116_m42            0.0000     3.4656E+02    11.9629   3.5551   102.2979
  8      0.0000     0.0000E+00    0.0000E+00    2.861200E+08  0.00400  1.079E-03    0   0.6613   age125_m42            0.0000     3.3771E+02    11.8753   3.0729   103.9710
  9      0.0000     0.0000E+00    0.0000E+00    6.405400E+08  0.00400  5.077E-04    0   0.6197   age132_m42            0.0000     3.3734E+02    12.2406   2.7022   108.3615
 10      1.7014     1.2379E-01    1.4544E-01    9.047900E+08  0.00400  3.535E-04    0   0.6024   age135_m42            0.0000     2.3765E+02    10.0295   2.4606   107.7463
 11      0.0000     0.0000E+00    0.0000E+00    1.434000E+09  0.00400  1.910E-04    0   0.5716   age139_m42            0.0000     1.0324E+02     6.3815   1.9609   105.8770
 12     17.5300     4.5920E+00    4.8927E+00    2.500000E+09  0.00400  9.818E-05    0   0.5463   age150_m42            0.0000     2.7382E+01     3.2063   1.6896   101.2076
 13     45.5520     2.4831E+01    2.5319E+01    5.000000E+09  0.00400  4.718E-05    0   0.5228   age161_m42            0.0000     8.7553E+00     2.2798   1.5224    98.1505
 14      0.0000     0.0000E+00    0.0000E+00    1.100000E+10  0.00400  2.205E-05    0   0.4980   age185_m42            0.0000     1.3382E+01     3.0491   1.2825    95.6571
 15      0.0000     0.0000E+00    0.0000E+00    1.300000E+10  0.00400  1.883E-05    0   0.4927   age193_m42            0.0000     1.6905E+01     3.3862   1.2666    95.5096
 16      0.0000     0.0000E+00    0.0000E+00    1.000000E+06  0.02000  1.989E-02    0   1.0000   age020_m62            0.0000     2.3583E+03    40.3083   4.0000   104.8263
 17      0.0000     0.0000E+00    0.0000E+00    3.160000E+06  0.02000  3.772E-02    0   0.9858   age045_m62            0.0000     1.9325E+03    37.4347   4.0000   105.6781
 18      0.5370     4.2795E-04    7.7973E-04    5.010000E+06  0.02000  3.227E-02    0   0.9342   age055_m62            0.0000     7.0196E+02    23.2142   4.0000   104.2802
 19      0.0000     0.0000E+00    0.0000E+00    1.000000E+07  0.02000  1.011E-02    0   0.8751   age070_m62            0.0000     5.0428E+02    20.2400   3.9164    89.6353
 20      0.0000     0.0000E+00    0.0000E+00    2.512000E+07  0.02000  4.206E-03    0   0.8099   age090_m62            0.0000     3.9503E+02    18.2027   3.8566    90.0810
 21      0.0000     0.0000E+00    0.0000E+00    4.000000E+07  0.02000  3.373E-03    0   0.7799   age104_m62            0.0000     2.5569E+02    12.8371   3.7132    97.1528
 22      0.0000     0.0000E+00    0.0000E+00    1.015200E+08  0.02000  1.878E-03    0   0.7221   age116_m62            0.0000     3.3567E+02    11.4995   3.5729   103.3467
 23      0.0000     0.0000E+00    0.0000E+00    2.861200E+08  0.02000  8.869E-04    0   0.6700   age125_m62            0.0000     4.7155E+02    14.4786   3.1025   108.6039
 24      0.0000     0.0000E+00    0.0000E+00    6.405400E+08  0.02000  3.657E-04    0   0.6322   age132_m62            0.0000     2.9974E+02    11.1348   2.4428   111.0290
 25      0.0084     9.3917E-04    1.1269E-03    9.047900E+08  0.02000  2.312E-04    0   0.6152   age135_m62            0.0000     1.6806E+02     8.0532   2.0746   109.9266
 26      0.0000     0.0000E+00    0.0000E+00    1.434000E+09  0.02000  1.168E-04    0   0.5865   age139_m62            0.0000     4.4215E+01     4.1895   1.6667   104.3397
 27      0.0000     0.0000E+00    0.0000E+00    2.500000E+09  0.02000  5.505E-05    0   0.5610   age150_m62            0.0000     1.8333E+01     3.4246   1.3150   101.1980
 28      0.0000     0.0000E+00    0.0000E+00    5.000000E+09  0.02000  2.596E-05    0   0.5353   age161_m62            0.0000     4.8333E+01     5.3928   1.0177   100.1821
 29     11.7626     2.5878E+01    2.5756E+01    1.100000E+10  0.02000  1.169E-05    0   0.5103   age185_m62            0.0000     1.1758E+02     7.9234   0.6919   100.5769
 30     16.7914     4.4562E+01    4.3865E+01    1.300000E+10  0.02000  9.691E-06    0   0.5047   age193_m62            0.0000     1.3337E+02     8.3700   0.6516   100.6647
 31      0.0000     0.0000E+00    0.0000E+00    1.000000E+06  0.05000  2.651E-02    0   0.9998   age020_m72            0.0000     2.3345E+03    39.9500   4.0000   106.0220
 32      0.0000     0.0000E+00    0.0000E+00    3.160000E+06  0.05000  4.817E-02    0   0.9577   age045_m72            0.0000     1.4760E+03    32.8821   4.0000   107.1257
 33      0.0000     0.0000E+00    0.0000E+00    5.010000E+06  0.05000  3.101E-02    0   0.9147   age055_m72            0.0000     7.8629E+02    25.3586   4.0000   103.3150
 34      0.0000     0.0000E+00    0.0000E+00    1.000000E+07  0.05000  8.954E-03    0   0.8524   age070_m72            0.0000     1.2205E+03    30.0864   4.0000   106.6873
 35      0.0000     0.0000E+00    0.0000E+00    2.512000E+07  0.05000  4.207E-03    0   0.7902   age090_m72            0.0000     4.7895E+02    19.2497   4.0000   103.3198
 36      0.0000     0.0000E+00    0.0000E+00    4.000000E+07  0.05000  3.198E-03    0   0.7618   age104_m72            0.0000     2.8250E+02    10.7539   3.9653    98.9728
 37      0.0000     0.0000E+00    0.0000E+00    1.015200E+08  0.05000  1.716E-03    0   0.7092   age116_m72            0.0000     3.6916E+02    12.1055   3.7081   102.5801
 38      0.0000     0.0000E+00    0.0000E+00    2.861200E+08  0.05000  7.047E-04    0   0.6618   age125_m72            0.0000     4.3186E+02    13.7452   2.9380   108.1400
 39      0.0000     0.0000E+00    0.0000E+00    6.405400E+08  0.05000  2.633E-04    0   0.6253   age132_m72            0.0000     2.0250E+02     9.0965   2.1034   109.6716
 40      0.0000     0.0000E+00    0.0000E+00    9.047900E+08  0.05000  1.484E-04    0   0.6088   age135_m72            0.0000     6.7873E+01     5.4675   1.6275   104.5199
 41      0.0000     0.0000E+00    0.0000E+00    1.434000E+09  0.05000  7.827E-05    0   0.5847   age139_m72            0.0000     4.2471E+01     4.8555   1.2670   100.5386
 42      0.0000     0.0000E+00    0.0000E+00    2.500000E+09  0.05000  3.759E-05    0   0.5583   age150_m72            0.0000     6.6173E+01     6.1098   0.9669    99.3999
 43      0.0000     0.0000E+00    0.0000E+00    5.000000E+09  0.05000  1.548E-05    0   0.5320   age161_m72            0.0000     1.4581E+02     8.4403   0.6230    97.8367
 44      0.0000     0.0000E+00    0.0000E+00    1.100000E+10  0.05000  6.532E-06    0   0.5070   age185_m72            0.0000     2.7549E+02    11.4271   0.2992    96.3170
 45      0.0000     0.0000E+00    0.0000E+00    1.300000E+10  0.05000  5.316E-06    0   0.5018   age193_m72            0.0000     3.3612E+02    12.6571   0.2037    95.8130


## Synthesis Results - Average & Chains ##

# j      x_j: min, <> & last-chain-values for 1 ...  7 chains
  1      0.0000      0.0370      0.0000      0.0000      0.0311      0.0000      0.0000      0.0000      0.0000
  2      0.0000      0.2788      0.1637      0.3734      0.2870      0.2479      0.2503      0.3412      0.2516
  3      0.0000      0.0472      0.0000      0.0000      0.0633      0.0000      0.0994      0.0000      0.1835
  4      5.8649      4.4719      4.8234      4.5287      4.9003      5.0152      4.5382      4.4657      4.6228
  5      0.0000      0.1415      0.1825      0.1968      0.0483      0.1151      0.3524      0.2095      0.1460
  6      0.0000      0.1665      0.2014      0.0000      0.0104      0.1668      0.0000      0.3100      0.1037
  7      0.0000      0.0464      0.0155      0.0000      0.0188      0.0000      0.0184      0.0000      0.0000
  8      0.0000      0.0482      0.0000      0.0000      0.0000      0.0000      0.0000      0.0000      0.0968
  9      0.0000      0.1011      0.0933      0.0000      0.3433      0.1030      0.0182      0.0000      0.0894
 10      1.7014      0.1727      0.1636      0.3452      0.3928      0.3530      0.2208      0.5427      0.3759
 11      0.0000      0.2660      0.1647      0.6583      0.2823      0.2186      0.3194      0.0508      0.2680
 12     17.5300     17.0511     16.8127     17.0154     17.2876     17.2617     17.8829     17.0765     17.3657
 13     45.5520     47.1827     47.5943     47.6027     47.4588     47.0573     46.7744     47.6257     47.2706
 14      0.0000      0.1527      0.0000      0.0000      0.0000      0.0183      0.0000      0.0000      0.0000
 15      0.0000      0.1491      0.0000      0.0000      0.0681      0.0000      0.0000      0.0077      0.0000
 16      0.0000      0.0133      0.0000      0.0570      0.0524      0.0007      0.0000      0.0817      0.0000
 17      0.0000      0.0290      0.0555      0.0000      0.0118      0.0000      0.0000      0.0000      0.0000
 18      0.5370      0.3837      0.3998      0.4512      0.3828      0.3238      0.4061      0.4464      0.4955
 19      0.0000      0.0682      0.1575      0.0000      0.0000      0.1431      0.0295      0.0000      0.0000
 20      0.0000      0.0692      0.0546      0.0000      0.0000      0.0000      0.0000      0.1857      0.0000
 21      0.0000      0.0505      0.0000      0.0000      0.0000      0.1004      0.0000      0.0000      0.0000
 22      0.0000      0.0470      0.0002      0.0000      0.1218      0.0000      0.0000      0.1381      0.0000
 23      0.0000      0.0396      0.0000      0.0095      0.0161      0.0000      0.0515      0.0000      0.0000
 24      0.0000      0.0863      0.4287      0.3813      0.0399      0.0000      0.0000      0.2470      0.0115
 25      0.0084      0.1899      0.1855      0.2035      0.0000      0.3262      0.2330      0.2760      0.1589
 26      0.0000      0.1397      0.0444      0.0000      0.0000      0.0557      0.3458      0.0000      0.0000
 27      0.0000      0.2667      0.0000      0.0000      0.0867      0.0000      0.0000      0.0000      0.0694
 28      0.0000      0.2372      0.0000      0.0000      0.1504      0.1104      0.3851      0.0000      0.0000
 29     11.7626     10.5163     10.9160     11.0101     10.7999     10.7408     10.6760     10.6301     10.5025
 30     16.7914     16.2841     16.6560     16.2434     16.6051     16.7881     16.4194     16.6661     16.9618
 31      0.0000      0.0485      0.0000      0.0000      0.0000      0.0000      0.0000      0.0000      0.0000
 32      0.0000      0.0313      0.0000      0.0000      0.0000      0.1108      0.0000      0.0000      0.0667
 33      0.0000      0.0809      0.2018      0.4291      0.0000      0.0000      0.3385      0.0000      0.1890
 34      0.0000      0.0543      0.0000      0.0000      0.1411      0.0853      0.0748      0.0873      0.0396
 35      0.0000      0.0239      0.0000      0.0000      0.0000      0.0000      0.0306      0.0000      0.0000
 36      0.0000      0.0186      0.0144      0.0747      0.0000      0.0000      0.0000      0.0000      0.0000
 37      0.0000      0.0503      0.0000      0.0000      0.0000      0.0000      0.0158      0.0000      0.0000
 38      0.0000      0.0242      0.0000      0.0000      0.0000      0.1376      0.0000      0.0013      0.0135
 39      0.0000      0.0651      0.2332      0.0000      0.0000      0.0578      0.0413      0.0000      0.0000
 40      0.0000      0.1071      0.0000      0.0349      0.0440      0.0935      0.0000      0.2361      0.3544
 41      0.0000      0.0807      0.0106      0.0000      0.0457      0.0000      0.0114      0.0000      0.0006
 42      0.0000      0.0640      0.0000      0.0628      0.0000      0.0000      0.0000      0.0000      0.0000
 43      0.0000      0.0578      0.0000      0.0136      0.0000      0.0000      0.0000      0.0000      0.0000
 44      0.0000      0.0620      0.0000      0.0000      0.0000      0.0171      0.0000      0.0561      0.0000
 45      0.0000      0.1437      0.0770      0.0000      0.0000      0.0000      0.1085      0.0000      0.0000

# j      m_j: min, <> & last-chain-values for 1 ...  7 chains
  1  0.0000E+00  1.6900E-04  0.0000E+00  0.0000E+00  1.4183E-04  0.0000E+00  0.0000E+00  0.0000E+00  0.0000E+00
  2  0.0000E+00  3.4829E-04  2.0340E-04  4.6897E-04  3.5824E-04  3.0922E-04  3.1329E-04  4.2664E-04  3.1397E-04
  3  0.0000E+00  9.0009E-05  0.0000E+00  0.0000E+00  1.2054E-04  0.0000E+00  1.8974E-04  0.0000E+00  3.4938E-04
  4  2.0512E-02  1.5864E-02  1.7023E-02  1.6156E-02  1.7370E-02  1.7765E-02  1.6132E-02  1.5861E-02  1.6387E-02
  5  0.0000E+00  1.1605E-03  1.4893E-03  1.6233E-03  3.9591E-04  9.4263E-04  2.8965E-03  1.7208E-03  1.1964E-03
  6  0.0000E+00  1.8976E-03  2.2835E-03  0.0000E+00  1.1834E-04  1.8987E-03  0.0000E+00  3.5368E-03  1.1814E-03
  7  0.0000E+00  7.5037E-04  2.4917E-04  0.0000E+00  3.0444E-04  0.0000E+00  2.9804E-04  0.0000E+00  0.0000E+00
  8  0.0000E+00  1.5027E-03  0.0000E+00  0.0000E+00  0.0000E+00  0.0000E+00  0.0000E+00  0.0000E+00  3.0170E-03
  9  0.0000E+00  6.2760E-03  5.7668E-03  0.0000E+00  2.1302E-02  6.3901E-03  1.1343E-03  0.0000E+00  5.5451E-03
 10  1.4544E-01  1.4971E-02  1.4115E-02  3.0101E-02  3.4032E-02  3.0561E-02  1.9184E-02  4.7114E-02  3.2568E-02
 11  0.0000E+00  4.0498E-02  2.4951E-02  1.0080E-01  4.2947E-02  3.3236E-02  4.8732E-02  7.7484E-03  4.0780E-02
 12  4.8927E+00  4.8272E+00  4.7353E+00  4.8443E+00  4.8902E+00  4.8797E+00  5.0729E+00  4.8404E+00  4.9127E+00
 13  2.5319E+01  2.6601E+01  2.6695E+01  2.6989E+01  2.6735E+01  2.6491E+01  2.6424E+01  2.6884E+01  2.6631E+01
 14  0.0000E+00  1.7547E-01  0.0000E+00  0.0000E+00  0.0000E+00  2.0974E-02  0.0000E+00  0.0000E+00  0.0000E+00
 15  0.0000E+00  1.9844E-01  0.0000E+00  0.0000E+00  9.0535E-02  0.0000E+00  0.0000E+00  1.0319E-02  0.0000E+00
 16  0.0000E+00  3.4010E-05  0.0000E+00  1.4655E-04  1.3399E-04  1.9015E-06  0.0000E+00  2.0920E-04  0.0000E+00
 17  0.0000E+00  3.8530E-05  7.3423E-05  0.0000E+00  1.5615E-05  0.0000E+00  0.0000E+00  0.0000E+00  0.0000E+00
 18  7.7973E-04  5.6523E-04  5.8584E-04  6.6837E-04  5.6338E-04  4.7629E-04  5.9940E-04  6.5825E-04  7.2931E-04
 19  0.0000E+00  3.0041E-04  6.8998E-04  0.0000E+00  0.0000E+00  6.2949E-04  1.3013E-04  0.0000E+00  0.0000E+00
 20  0.0000E+00  6.7791E-04  5.3209E-04  0.0000E+00  0.0000E+00  0.0000E+00  0.0000E+00  1.8212E-03  0.0000E+00
 21  0.0000E+00  5.9431E-04  0.0000E+00  0.0000E+00  0.0000E+00  1.1792E-03  0.0000E+00  0.0000E+00  0.0000E+00
 22  0.0000E+00  9.1984E-04  3.7405E-06  0.0000E+00  2.3802E-03  0.0000E+00  0.0000E+00  2.7054E-03  0.0000E+00
 23  0.0000E+00  1.5218E-03  0.0000E+00  3.6904E-04  6.1967E-04  0.0000E+00  1.9847E-03  0.0000E+00  0.0000E+00
 24  0.0000E+00  7.5922E-03  3.7512E-02  3.3723E-02  3.5033E-03  0.0000E+00  0.0000E+00  2.1750E-02  1.0140E-03
 25  1.1269E-03  2.5707E-02  2.4979E-02  2.7701E-02  0.0000E+00  4.4095E-02  3.1602E-02  3.7409E-02  2.1496E-02
 26  0.0000E+00  3.5696E-02  1.1283E-02  0.0000E+00  0.0000E+00  1.4220E-02  8.8522E-02  0.0000E+00  0.0000E+00
 27  0.0000E+00  1.3830E-01  0.0000E+00  0.0000E+00  4.4893E-02  0.0000E+00  0.0000E+00  0.0000E+00  3.5958E-02
 28  0.0000E+00  2.4886E-01  0.0000E+00  0.0000E+00  1.5770E-01  1.1570E-01  4.0484E-01  0.0000E+00  0.0000E+00
 29  2.5756E+01  2.3357E+01  2.4120E+01  2.4591E+01  2.3967E+01  2.3820E+01  2.3759E+01  2.3638E+01  2.3309E+01
 30  4.3865E+01  4.3149E+01  4.3907E+01  4.3283E+01  4.3963E+01  4.4419E+01  4.3595E+01  4.4215E+01  4.4911E+01
 31  0.0000E+00  9.3135E-05  0.0000E+00  0.0000E+00  0.0000E+00  0.0000E+00  0.0000E+00  0.0000E+00  0.0000E+00
 32  0.0000E+00  3.1682E-05  0.0000E+00  0.0000E+00  0.0000E+00  1.1193E-04  0.0000E+00  0.0000E+00  6.7443E-05
 33  0.0000E+00  1.2147E-04  3.0131E-04  6.4755E-04  0.0000E+00  0.0000E+00  5.0907E-04  0.0000E+00  2.8340E-04
 34  0.0000E+00  2.6319E-04  0.0000E+00  0.0000E+00  6.8301E-04  4.1251E-04  3.6291E-04  4.2329E-04  1.9179E-04
 35  0.0000E+00  2.2811E-04  0.0000E+00  0.0000E+00  0.0000E+00  0.0000E+00  2.9348E-04  0.0000E+00  0.0000E+00
 36  0.0000E+00  2.2568E-04  1.7333E-04  9.1070E-04  0.0000E+00  0.0000E+00  0.0000E+00  0.0000E+00  0.0000E+00
 37  0.0000E+00  1.0573E-03  0.0000E+00  0.0000E+00  0.0000E+00  0.0000E+00  3.3339E-04  0.0000E+00  0.0000E+00
 38  0.0000E+00  1.1571E-03  0.0000E+00  0.0000E+00  0.0000E+00  6.5640E-03  0.0000E+00  6.2646E-05  6.4583E-04
 39  0.0000E+00  7.8667E-03  2.8031E-02  0.0000E+00  0.0000E+00  6.9759E-03  5.0055E-03  0.0000E+00  0.0000E+00
 40  0.0000E+00  2.2352E-02  0.0000E+00  7.3175E-03  9.1732E-03  1.9489E-02  0.0000E+00  4.9335E-02  7.3921E-02
 41  0.0000E+00  3.0674E-02  4.0051E-03  0.0000E+00  1.7364E-02  0.0000E+00  4.3556E-03  0.0000E+00  2.3944E-04
 42  0.0000E+00  4.8375E-02  0.0000E+00  4.7691E-02  0.0000E+00  0.0000E+00  0.0000E+00  0.0000E+00  0.0000E+00
 43  0.0000E+00  1.0098E-01  0.0000E+00  2.3846E-02  0.0000E+00  0.0000E+00  0.0000E+00  0.0000E+00  0.0000E+00
 44  0.0000E+00  2.4475E-01  0.0000E+00  0.0000E+00  0.0000E+00  6.7442E-02  0.0000E+00  2.2168E-01  0.0000E+00
 45  0.0000E+00  6.9003E-01  3.6796E-01  0.0000E+00  0.0000E+00  0.0000E+00  5.2214E-01  0.0000E+00  0.0000E+00

# AV, chi2 & Mass for <> & i_chain = 1 ...  7 solutions
AV       1.3671      1.3674      1.3684      1.3724      1.3672      1.3704      1.3694      1.3706      1.3691
chi2 2.4791E+00  2.5005E+00  2.4916E+00  2.4926E+00  2.4915E+00  2.4892E+00  2.4920E+00  2.4928E+00  2.4906E+00
Mass 3.5707E-09  3.5217E-09  3.5445E-09  3.5254E-09  3.5238E-09  3.5410E-09  3.5239E-09  3.5324E-09  3.5321E-09
 -12.78                                  [v0_min (km/s) before EX0s...]
  26.45                                  [vd_min (km/s) before EX0s...]


## Synthetic spectrum (Best Model) ##l_obs f_obs f_syn wei
 3070    [Nl_obs]
 3359.00    0.00000   0.34417   -2.000
 3360.00    0.17896   0.31791   -1.000
 3361.00    0.19498   0.32052   -1.000
 3362.00    0.20957   0.35396   -1.000
 3363.00    0.21636   0.39624   -1.000
 3364.00    0.23555   0.42351   -1.000
 3365.00    0.24574   0.42382   -1.000
 3366.00    0.25475   0.40193   -1.000
 3367.00    0.25063   0.37403   -1.000
 3368.00    0.23361   0.35262   -1.000
 3369.00    0.22081   0.34342   -1.000
 3370.00    0.22230   0.34007   -1.000
 3371.00    0.21877   0.33723   -1.000
 3372.00    0.22401   0.33948   -1.000
 3373.00    0.23335   0.35746   -1.000
 3374.00    0.24608   0.38773   -1.000
 3375.00    0.25813   0.42376   -1.000
 3376.00    0.27748   0.44505   -1.000
 3377.00    0.28789   0.43614   -1.000
 3378.00    0.28927   0.40737   -1.000
 3379.00    0.28196   0.37759   -1.000
 3380.00    0.28130   0.36510   -1.000
 3381.00    0.27312   0.37564   -1.000
 3382.00    0.26992   0.39735   -1.000
 3383.00    0.27492   0.41596   -1.000
 3384.00    0.28614   0.42747   -1.000
 3385.00    0.29624   0.43896   -1.000
 3386.00    0.30015   0.44379   -1.000
 3387.00    0.29749   0.44054   -1.000
 3388.00    0.31131   0.43600   -1.000
 3389.00    0.31774   0.43427   -1.000
 3390.00    0.31930   0.42898   -1.000
 3391.00    0.31704   0.41481   -1.000
 3392.00    0.30933   0.39805   -1.000
 3393.00    0.31261   0.39343   -1.000
 3394.00    0.32217   0.40713   -1.000
 3395.00    0.33650   0.43326   -1.000
 3396.00    0.34566   0.45721   -1.000
 3397.00    0.36083   0.47789   -1.000
 3398.00    0.37437   0.49095   -1.000
 3399.00    0.38952   0.49250   -1.000
 3400.00    0.39974   0.48420   29.862
 3401.00    0.39137   0.46988   30.115
 3402.00    0.39269   0.45130   31.414
 3403.00    0.39284   0.43726   31.769
 3404.00    0.38197   0.43099   32.321
 3405.00    0.38180   0.42676   32.911
 3406.00    0.37208   0.41907   33.449
 3407.00    0.36524   0.41002   33.612
 3408.00    0.36341   0.40796   34.143
 3409.00    0.35961   0.41640   34.339
 3410.00    0.36056   0.42948   34.135
 3411.00    0.37124   0.43103   33.118
 3412.00    0.37704   0.41786   32.839
 3413.00    0.37861   0.40042   34.225
 3414.00    0.36189   0.39253   34.878
 3415.00    0.34640   0.40114   34.817
 3416.00    0.36079   0.41969   33.969
 3417.00    0.38029   0.44193   32.521
 3418.00    0.39998   0.46269   30.985
 3419.00    0.40833   0.48022   29.420
 3420.00    0.40600   0.48567   29.263
 3421.00    0.41025   0.47610   29.063
 3422.00    0.40900   0.45906   29.231
 3423.00    0.41038   0.44818   30.073
 3424.00    0.40666   0.44601   30.760
 3425.00    0.41059   0.44905   29.921
 3426.00    0.40777   0.45525   29.129
 3427.00    0.41424   0.46645   28.955
 3428.00    0.43095   0.48844   -1.000
 3429.00    0.44274   0.50747   -1.000
 3430.00    0.44967   0.50526   -1.000
 3431.00    0.43608   0.48525   -1.000
 3432.00    0.43253   0.46144   -1.000
 3433.00    0.42386   0.45192   30.347
 3434.00    0.42381   0.45810   28.876
 3435.00    0.42587   0.46759   -1.000
 3436.00    0.42762   0.46749   -1.000
 3437.00    0.42360   0.45534   30.127
 3438.00    0.39825   0.43058   30.162
 3439.00    0.38528   0.39732   31.967
 3440.00    0.37090   0.36413   34.496
 3441.00    0.35273   0.34175   35.936
 3442.00    0.34704   0.34161   36.044
 3443.00    0.34886   0.35507   35.897
 3444.00    0.36677   0.37279   34.513
 3445.00    0.37950   0.39091   32.638
 3446.00    0.38812   0.41338   30.831
 3447.00    0.40778   0.43907   29.738
 3448.00    0.42973   0.46473   -1.000
 3449.00    0.44653   0.48164   -1.000
 3450.00    0.45801   0.47964   -1.000
 3451.00    0.46453   0.46209  256.794
 3452.00    0.45418   0.44270   -1.000
 3453.00    0.44158   0.43666  256.794
 3454.00    0.44568   0.44618  256.794
 3455.00    0.45758   0.45730  256.794
 3456.00    0.46241   0.45709  256.794
 3457.00    0.45933   0.44154   -1.000
 3458.00    0.43910   0.42070   -1.000
 3459.00    0.42978   0.40568   30.222
 3460.00    0.42358   0.39500   29.323
 3461.00    0.41502   0.39802   29.149
 3462.00    0.42039   0.41860  199.787
 3463.00    0.43671   0.44146  256.794
 3464.00    0.46846   0.44727   -1.000
 3465.00    0.48116   0.44388   -1.000
 3466.00    0.46573   0.44172   -1.000
 3467.00    0.45594   0.45123  256.794
 3468.00    0.47402   0.46713  252.224
 3469.00    0.48535   0.47807  246.557
 3470.00    0.50062   0.48119   -1.000
 3471.00    0.49599   0.47265   -1.000
 3472.00    0.48299   0.45335   -1.000
 3473.00    0.46301   0.42699   -1.000
 3474.00    0.44473   0.39917   -1.000
 3475.00    0.42914   0.38063   30.479
 3476.00    0.42126   0.38608   30.242
 3477.00    0.43157   0.40932   29.642
 3478.00    0.45281   0.43692   -1.000
 3479.00    0.47153   0.45689   -1.000
 3480.00    0.48493   0.46443   -1.000
 3481.00    0.48059   0.46073   -1.000
 3482.00    0.48651   0.44993   -1.000
 3483.00    0.48291   0.43927   -1.000
 3484.00    0.46829   0.43914   -1.000
 3485.00    0.48529   0.45503   -1.000
 3486.00    0.51276   0.47723   -1.000
 3487.00    0.50975   0.48286   -1.000
 3488.00    0.50920   0.46350   -1.000
 3489.00    0.48742   0.43314   -1.000
 3490.00    0.45522   0.41225   -1.000
 3491.00    0.44510   0.41241   -1.000
 3492.00    0.44180   0.42382   -1.000
 3493.00    0.46486   0.43373   -1.000
 3494.00    0.46527   0.43301   -1.000
 3495.00    0.46284   0.42155   -1.000
 3496.00    0.45418   0.41400   -1.000
 3497.00    0.45054   0.42429   -1.000
 3498.00    0.46459   0.45454   -1.000
 3499.00    0.49196   0.47951   -1.000
 3500.00    0.51635   0.48596   -1.000
 3501.00    0.52605   0.48980   -1.000
 3502.00    0.53050   0.49670   -1.000
 3503.00    0.54318   0.50302   -1.000
 3504.00    0.53591   0.49775   -1.000
 3505.00    0.53540   0.48451   -1.000
 3506.00    0.52883   0.47679   -1.000
 3507.00    0.51530   0.47685   -1.000
 3508.00    0.52081   0.47624   -1.000
 3509.00    0.52535   0.46717   -1.000
 3510.00    0.51025   0.45480   -1.000
 3511.00    0.49415   0.44331   -1.000
 3512.00    0.48279   0.43337   -1.000
 3513.00    0.47390   0.42173   -1.000
 3514.00    0.45575   0.42178   -1.000
 3515.00    0.47105   0.44335   -1.000
 3516.00    0.50851   0.47796   -1.000
 3517.00    0.53097   0.50557   -1.000
 3518.00    0.53063   0.51100   -1.000
 3519.00    0.53180   0.49431   -1.000
 3520.00    0.50013   0.46696   -1.000
 3521.00    0.48311   0.44103   -1.000
 3522.00    0.47541   0.42341   -1.000
 3523.00    0.46395   0.40315   -1.000
 3524.00    0.43565   0.38573   30.238
 3525.00    0.42311   0.38144   29.933
 3526.00    0.42643   0.39777   29.785
 3527.00    0.44416   0.43125   -1.000
 3528.00    0.47821   0.46714   -1.000
 3529.00    0.49820   0.48772   -1.000
 3530.00    0.50789   0.49007   -1.000
 3531.00    0.51033   0.48199   -1.000
 3532.00    0.49701   0.48056   -1.000
 3533.00    0.49607   0.48939  244.368
 3534.00    0.50686   0.50236  240.317
 3535.00    0.52247   0.50964   -1.000
 3536.00    0.52572   0.51040   -1.000
 3537.00    0.52755   0.51523   -1.000
 3538.00    0.52852   0.52562  230.313
 3539.00    0.52749   0.53110  227.361
 3540.00    0.53749   0.52486   -1.000
 3541.00    0.52202   0.51465  233.474
 3542.00    0.51638   0.51664  235.568
 3543.00    0.51670   0.52694  234.180
 3544.00    0.52426   0.53584  230.687
 3545.00    0.52848   0.53599  229.891
 3546.00    0.52134   0.52805  234.002
 3547.00    0.51633   0.52255  239.363
 3548.00    0.51828   0.52305  240.458
 3549.00    0.51878   0.52746  239.991
 3550.00    0.52078   0.52875  238.322
 3551.00    0.51314   0.52258  241.443
 3552.00    0.49128   0.50823   -1.000
 3553.00    0.48138   0.49503  256.102
 3554.00    0.47066   0.49205   -1.000
 3555.00    0.46540   0.49781   -1.000
 3556.00    0.48385   0.50333   -1.000
 3557.00    0.48574   0.50144   -1.000
 3558.00    0.48379   0.49365  256.794
 3559.00    0.47720   0.49116  256.794
 3560.00    0.48020   0.50041   -1.000
 3561.00    0.48409   0.51675   -1.000
 3562.00    0.48660   0.52588   -1.000
 3563.00    0.48996   0.50900   -1.000
 3564.00    0.47467   0.46325   -1.000
 3565.00    0.44066   0.42179   30.552
 3566.00    0.41184   0.41135   30.373
 3567.00    0.40925   0.41556   30.082
 3568.00    0.42454   0.41310   29.907
 3569.00    0.42131   0.39699   30.887
 3570.00    0.40834   0.38493   31.475
 3571.00    0.40976   0.39475   30.543
 3572.00    0.42587   0.41563   29.188
 3573.00    0.44399   0.43121   -1.000
 3574.00    0.45150   0.43967   -1.000
 3575.00    0.45229   0.44294   -1.000
 3576.00    0.45366   0.44491   -1.000
 3577.00    0.45672   0.44055   -1.000
 3578.00    0.44341   0.42461   -1.000
 3579.00    0.42083   0.39461   31.589
 3580.00    0.40401   0.36718   32.507
 3581.00    0.37164   0.35422   34.324
 3582.00    0.36431   0.35844   34.609
 3583.00    0.36551   0.36602   34.754
 3584.00    0.37441   0.36118   35.607
 3585.00    0.36251   0.34799   36.775
 3586.00    0.36073   0.34360   37.320
 3587.00    0.36368   0.35346   35.516
 3588.00    0.37666   0.37644   33.623
 3589.00    0.39526   0.40874   31.992
 3590.00    0.41350   0.44234   29.169
 3591.00    0.44935   0.46870   -1.000
 3592.00    0.47346   0.47750  256.794
 3593.00    0.47483   0.47773  256.794
 3594.00    0.47661   0.48231  253.653
 3595.00    0.49531   0.49985  245.667
 3596.00    0.51785   0.52090  233.835
 3597.00    0.52815   0.53496  226.841
 3598.00    0.54837   0.54730  220.871
 3599.00    0.56166   0.55457  217.174
 3600.00    0.55805   0.54780  219.578
 3601.00    0.54352   0.52352   -1.000
 3602.00    0.52516   0.49169   -1.000
 3603.00    0.50002   0.46423   -1.000
 3604.00    0.48940   0.45243   -1.000
 3605.00    0.47771   0.45451   -1.000
 3606.00    0.46750   0.45567   -1.000
 3607.00    0.47877   0.44592   -1.000
 3608.00    0.46368   0.42823   -1.000
 3609.00    0.44383   0.42070   -1.000
 3610.00    0.44315   0.43566  256.794
 3611.00    0.47304   0.45860   -1.000
 3612.00    0.48672   0.47160   -1.000
 3613.00    0.49024   0.48345  249.495
 3614.00    0.50489   0.49827  244.928
 3615.00    0.51721   0.51069  236.116
 3616.00    0.52274   0.49975   -1.000
 3617.00    0.49641   0.45647   -1.000
 3618.00    0.45431   0.41629   -1.000
 3619.00    0.43815   0.41609   30.123
 3620.00    0.44183   0.44535  191.283
 3621.00    0.48645   0.48372  247.524
 3622.00    0.52162   0.50983   -1.000
 3623.00    0.53669   0.52457   -1.000
 3624.00    0.54803   0.54103  224.404
 3625.00    0.56396   0.57028  216.251
 3626.00    0.58262   0.59904   -1.000
 3627.00    0.60085   0.61463  203.943
 3628.00    0.59943   0.60086  207.475
 3629.00    0.57006   0.55097   -1.000
 3630.00    0.52041   0.48762   -1.000
 3631.00    0.47534   0.44932   -1.000
 3632.00    0.45730   0.44538   -1.000
 3633.00    0.47143   0.46687  256.794
 3634.00    0.48829   0.48915  253.357
 3635.00    0.50366   0.50405  247.414
 3636.00    0.51719   0.51314  238.239
 3637.00    0.53737   0.53199  227.052
 3638.00    0.55993   0.55760  216.801
 3639.00    0.57969   0.58094  209.447
 3640.00    0.58985   0.58799  208.976
 3641.00    0.58088   0.57364  214.078
 3642.00    0.56792   0.54682   -1.000
 3643.00    0.53924   0.52080   -1.000
 3644.00    0.52610   0.50322   -1.000
 3645.00    0.51734   0.49234   -1.000
 3646.00    0.50582   0.48000   -1.000
 3647.00    0.49062   0.46881   -1.000
 3648.00    0.48042   0.46946   -1.000
 3649.00    0.48896   0.48244  246.396
 3650.00    0.51428   0.50827  236.517
 3651.00    0.53587   0.53970  225.087
 3652.00    0.56331   0.56889  215.585
 3653.00    0.58486   0.58552  210.165
 3654.00    0.59492   0.59427  207.172
 3655.00    0.60124   0.60058  206.408
 3656.00    0.60667   0.61354  204.065
 3657.00    0.62451   0.62791  201.947
 3658.00    0.62747   0.63504  198.524
 3659.00    0.63103   0.63664  198.632
 3660.00    0.62578   0.63196  198.621
 3661.00    0.62578   0.62077  200.767
 3662.00    0.62095   0.60548   -1.000
 3663.00    0.59918   0.59331  206.380
 3664.00    0.59496   0.58884  208.017
 3665.00    0.60621   0.59183   -1.000
 3666.00    0.60761   0.59268   -1.000
 3667.00    0.60521   0.58450   -1.000
 3668.00    0.58961   0.56703   -1.000
 3669.00    0.57001   0.55858  217.457
 3670.00    0.57271   0.57118  216.264
 3671.00    0.60039   0.59454  208.294
 3672.00    0.61745   0.61157  203.994
 3673.00    0.61556   0.61494  203.177
 3674.00    0.62184   0.60906  203.111
 3675.00    0.61978   0.59459   -1.000
 3676.00    0.61027   0.57278   -1.000
 3677.00    0.59030   0.54957   -1.000
 3678.00    0.56573   0.52808   -1.000
 3679.00    0.54511   0.51733   -1.000
 3680.00    0.54507   0.51995   -1.000
 3681.00    0.55977   0.53410   -1.000
 3682.00    0.57243   0.55059   -1.000
 3683.00    0.57707   0.55930   -1.000
 3684.00    0.57618   0.55058   -1.000
 3685.00    0.56151   0.52364   -1.000
 3686.00    0.54058   0.49598   -1.000
 3687.00    0.52911   0.48939   -1.000
 3688.00    0.53313   0.50831   -1.000
 3689.00    0.55806   0.54651  219.625
 3690.00    0.59485   0.58680  205.051
 3691.00    0.62410   0.60912   -1.000
 3692.00    0.63293   0.60382   -1.000
 3693.00    0.62349   0.59009   -1.000
 3694.00    0.61309   0.58107   -1.000
 3695.00    0.60541   0.57655   -1.000
 3696.00    0.59756   0.57991   -1.000
 3697.00    0.60956   0.59528   -1.000
 3698.00    0.63084   0.62211  196.575
 3699.00    0.65105   0.64471  191.540
 3700.00    0.66377   0.65142  188.914
 3701.00    0.66156   0.63379   -1.000
 3702.00    0.63821   0.58829   -1.000
 3703.00    0.59179   0.53093   -1.000
 3704.00    0.54891   0.48290   -1.000
 3705.00    0.51869   0.45776   -1.000
 3706.00    0.50577   0.46102   -1.000
 3707.00    0.51778   0.47223   -1.000
 3708.00    0.52259   0.48471   -1.000
 3709.00    0.52425   0.49943   -1.000
 3710.00    0.55313   0.52112   -1.000
 3711.00    0.58554   0.54925   -1.000
 3712.00    0.61418   0.58960   -1.000
 3713.00    0.65106   0.62525   -1.000
 3714.00    0.68042   0.64494   -1.000
 3715.00    0.68294   0.64476   -1.000
 3716.00    0.66164   0.62625   -1.000
 3717.00    0.63890   0.58782   -1.000
 3718.00    0.59169   0.53245   -1.000
 3719.00    0.52837   0.46185   -1.000
 3720.00    0.46996   0.40702   -1.000
 3721.00    0.44414   0.39480   30.774
 3722.00    0.45530   0.42432   -1.000
 3723.00    0.50701   0.48130   -1.000
 3724.00    0.56329   0.54053   -1.000
 3725.00    0.60167   0.56985   -1.000
 3726.00    0.60820   0.56468   -1.000
 3727.00    0.59212   0.55623   -1.000
 3728.00    0.58017   0.56145   -1.000
 3729.00    0.59422   0.56720   -1.000
 3730.00    0.59318   0.55731   -1.000
 3731.00    0.56352   0.51671   -1.000
 3732.00    0.52648   0.45460   -1.000
 3733.00    0.47307   0.39585   30.194
 3734.00    0.42022   0.35362   32.146
 3735.00    0.39018   0.34502   33.470
 3736.00    0.39651   0.37103   31.908
 3737.00    0.43103   0.42138   28.950
 3738.00    0.48571   0.48452  181.832
 3739.00    0.53127   0.54464  230.153
 3740.00    0.58251   0.57710  216.459
 3741.00    0.60024   0.57873   -1.000
 3742.00    0.58178   0.55438   -1.000
 3743.00    0.55434   0.51774   -1.000
 3744.00    0.52306   0.48077   -1.000
 3745.00    0.49254   0.45667   -1.000
 3746.00    0.46710   0.43398   -1.000
 3747.00    0.45162   0.40569   30.645
 3748.00    0.42142   0.37339   31.051
 3749.00    0.40876   0.36553   31.458
 3750.00    0.42870   0.39836   -1.000
 3751.00    0.48139   0.46092   -1.000
 3752.00    0.54351   0.52587   -1.000
 3753.00    0.58834   0.58451  207.210
 3754.00    0.63294   0.62548  196.144
 3755.00    0.66349   0.63116   -1.000
 3756.00    0.64406   0.59604   -1.000
 3757.00    0.59141   0.54254   -1.000
 3758.00    0.53493   0.50360   -1.000
 3759.00    0.51629   0.50135   -1.000
 3760.00    0.53520   0.52149   -1.000
 3761.00    0.56207   0.53996   -1.000
 3762.00    0.57827   0.54614   -1.000
 3763.00    0.57562   0.54856   -1.000
 3764.00    0.57570   0.54856   -1.000
 3765.00    0.57562   0.53984   -1.000
 3766.00    0.56645   0.52618   -1.000
 3767.00    0.55706   0.51538   -1.000
 3768.00    0.55512   0.50770   -1.000
 3769.00    0.56157   0.50198   -1.000
 3770.00    0.56697   0.50396   -1.000
 3771.00    0.57371   0.52369   -1.000
 3772.00    0.60429   0.55959   -1.000
 3773.00    0.63072   0.59093   -1.000
 3774.00    0.63623   0.60537   -1.000
 3775.00    0.64012   0.61362   -1.000
 3776.00    0.64351   0.62216   -1.000
 3777.00    0.64968   0.63583   -1.000
 3778.00    0.66634   0.65502  195.976
 3779.00    0.67824   0.67487  189.470
 3780.00    0.69529   0.69114  184.991
 3781.00    0.70359   0.70009  183.654
 3782.00    0.70738   0.70559  182.536
 3783.00    0.71643   0.70463  182.606
 3784.00    0.71118   0.68616   -1.000
 3785.00    0.68565   0.64752   -1.000
 3786.00    0.64451   0.60633   -1.000
 3787.00    0.59867   0.57527   -1.000
 3788.00    0.58574   0.56082   -1.000
 3789.00    0.57963   0.56198   -1.000
 3790.00    0.57534   0.57136  222.380
 3791.00    0.58624   0.57643  220.049
 3792.00    0.58777   0.56593   -1.000
 3793.00    0.56959   0.54101   -1.000
 3794.00    0.53913   0.51286   -1.000
 3795.00    0.52315   0.48581   -1.000
 3796.00    0.50914   0.45756   -1.000
 3797.00    0.48148   0.42713   -1.000
 3798.00    0.46481   0.41835   -1.000
 3799.00    0.48703   0.45175   -1.000
 3800.00    0.52571   0.50927   -1.000
 3801.00    0.56741   0.56885  218.963
 3802.00    0.59509   0.61633   -1.000
 3803.00    0.62184   0.64070   -1.000
 3804.00    0.64325   0.64574  203.118
 3805.00    0.62698   0.63146  206.134
 3806.00    0.60331   0.61241  213.901
 3807.00    0.59232   0.61192   -1.000
 3808.00    0.60521   0.63483   -1.000
 3809.00    0.62919   0.66335   -1.000
 3810.00    0.64407   0.67617   -1.000
 3811.00    0.64406   0.66067  205.863
 3812.00    0.62372   0.62360  216.852
 3813.00    0.59436   0.58025   -1.000
 3814.00    0.55428   0.54416   -1.000
 3815.00    0.52730   0.53326  255.415
 3816.00    0.52964   0.54684   -1.000
 3817.00    0.54753   0.55936  241.927
 3818.00    0.55119   0.54981  245.655
 3819.00    0.52239   0.52041  256.794
 3820.00    0.48986   0.49820  256.794
 3821.00    0.48995   0.50413  256.794
 3822.00    0.50917   0.51904  256.794
 3823.00    0.51802   0.51209  256.794
 3824.00    0.48992   0.48395   -1.000
 3825.00    0.45514   0.45693   31.710
 3826.00    0.44786   0.44369   30.844
 3827.00    0.44355   0.44400   30.605
 3828.00    0.44614   0.45045   30.115
 3829.00    0.44867   0.45303   29.619
 3830.00    0.45228   0.44409   29.965
 3831.00    0.44219   0.42180   31.310
 3832.00    0.41459   0.39251   33.803
 3833.00    0.39393   0.36417   34.891
 3834.00    0.39090   0.35228   34.250
 3835.00    0.40297   0.35774   32.876
 3836.00    0.41159   0.37088   32.139
 3837.00    0.40952   0.37986   32.788
 3838.00    0.40178   0.38638   33.584
 3839.00    0.40168   0.40049   33.024
 3840.00    0.42593   0.43476   31.164
 3841.00    0.46334   0.48409   -1.000
 3842.00    0.51823   0.53285  255.795
 3843.00    0.54791   0.57246   -1.000
 3844.00    0.56409   0.59109   -1.000
 3845.00    0.56735   0.60073   -1.000
 3846.00    0.56370   0.61105   -1.000
 3847.00    0.57250   0.61936   -1.000
 3848.00    0.57356   0.61427   -1.000
 3849.00    0.54943   0.60437   -1.000
 3850.00    0.54187   0.60324   -1.000
 3851.00    0.54811   0.61425   -1.000
 3852.00    0.56233   0.62717   -1.000
 3853.00    0.56491   0.62707   -1.000
 3854.00    0.55749   0.61042   -1.000
 3855.00    0.54221   0.59294   -1.000
 3856.00    0.53439   0.57646   -1.000
 3857.00    0.52567   0.55521   -1.000
 3858.00    0.49963   0.53153   30.039
 3859.00    0.46627   0.52132   30.362
 3860.00    0.47033   0.53911   29.764
 3861.00    0.50557   0.57864   -1.000
 3862.00    0.55284   0.61933   -1.000
 3863.00    0.58917   0.63674   -1.000
 3864.00    0.59735   0.63207   -1.000
 3865.00    0.59052   0.62474   -1.000
 3866.00    0.57736   0.62075   -1.000
 3867.00    0.56424   0.61970   -1.000
 3868.00    0.54872   0.61598   -1.000
 3869.00    0.52780   0.60012   -1.000
 3870.00    0.50993   0.57267   -1.000
 3871.00    0.49340   0.54678   30.442
 3872.00    0.50175   0.54107   -1.000
 3873.00    0.53645   0.56140   -1.000
 3874.00    0.58498   0.59929  232.462
 3875.00    0.61239   0.62265  223.347
 3876.00    0.60375   0.60867  229.938
 3877.00    0.56866   0.57674  249.061
 3878.00    0.52650   0.55644   -1.000
 3879.00    0.51622   0.55436   -1.000
 3880.00    0.51790   0.55967   -1.000
 3881.00    0.50350   0.56103   -1.000
 3882.00    0.49887   0.56081   -1.000
 3883.00    0.53387   0.56246   -1.000
 3884.00    0.57510   0.55325   -1.000
 3885.00    0.57357   0.52214   -1.000
 3886.00    0.54521   0.47728   -1.000
 3887.00    0.52704   0.44601   -1.000
 3888.00    0.52649   0.44038   -1.000
 3889.00    0.54398   0.46815   -1.000
 3890.00    0.58387   0.51823   -1.000
 3891.00    0.63519   0.57484   -1.000
 3892.00    0.67671   0.61132   -1.000
 3893.00    0.69282   0.61814   -1.000
 3894.00    0.68240   0.61502   -1.000
 3895.00    0.67552   0.62075   -1.000
 3896.00    0.68898   0.63689   -1.000
 3897.00    0.70730   0.64857   -1.000
 3898.00    0.71142   0.64897   -1.000
 3899.00    0.70114   0.64887   -1.000
 3900.00    0.69974   0.65815   -1.000
 3901.00    0.70672   0.66682   -1.000
 3902.00    0.71113   0.66518   -1.000
 3903.00    0.70688   0.64971   -1.000
 3904.00    0.68527   0.62934   -1.000
 3905.00    0.65302   0.62384   -1.000
 3906.00    0.65311   0.63852   -1.000
 3907.00    0.68857   0.67193   -1.000
 3908.00    0.73801   0.71147   -1.000
 3909.00    0.76803   0.73828   -1.000
 3910.00    0.78005   0.75121   -1.000
 3911.00    0.79163   0.75911   -1.000
 3912.00    0.79923   0.76082   -1.000
 3913.00    0.78453   0.75544   -1.000
 3914.00    0.76053   0.74513   -1.000
 3915.00    0.76035   0.73202   -1.000
 3916.00    0.75971   0.71991   -1.000
 3917.00    0.73947   0.70665   -1.000
 3918.00    0.72666   0.68547   -1.000
 3919.00    0.70042   0.66029   -1.000
 3920.00    0.66240   0.63920   -1.000
 3921.00    0.64764   0.63173   -1.000
 3922.00    0.64943   0.64111  215.954
 3923.00    0.66326   0.65334  211.992
 3924.00    0.67043   0.65089   -1.000
 3925.00    0.65925   0.62748   -1.000
 3926.00    0.61495   0.58652   -1.000
 3927.00    0.54999   0.53410   -1.000
 3928.00    0.49958   0.47692   33.599
 3929.00    0.44572   0.42241   37.196
 3930.00    0.39132   0.36273   43.518
 3931.00    0.33442   0.30657   51.484
 3932.00    0.27677   0.25792   60.256
 3933.00    0.24102   0.23376   66.024
 3934.00    0.23724   0.24539   63.592
 3935.00    0.27148   0.29030   55.368
 3936.00    0.32671   0.35215   45.848
 3937.00    0.39129   0.42316   37.652
 3938.00    0.45438   0.49012   31.624
 3939.00    0.51764   0.54274   -1.000
 3940.00    0.56204   0.58110  256.794
 3941.00    0.58450   0.59714  248.120
 3942.00    0.58822   0.60004  245.615
 3943.00    0.57568   0.60071   -1.000
 3944.00    0.57767   0.61460   -1.000
 3945.00    0.62555   0.64372  212.260
 3946.00    0.68004   0.66938  199.724
 3947.00    0.70842   0.68180   -1.000
 3948.00    0.70834   0.69065   -1.000
 3949.00    0.72528   0.70729   -1.000
 3950.00    0.75659   0.72201   -1.000
 3951.00    0.76467   0.72221   -1.000
 3952.00    0.75231   0.72226   -1.000
 3953.00    0.75694   0.72959   -1.000
 3954.00    0.77225   0.73540   -1.000
 3955.00    0.77500   0.72719   -1.000
 3956.00    0.74935   0.71121   -1.000
 3957.00    0.73068   0.70637   -1.000
 3958.00    0.73259   0.70818   -1.000
 3959.00    0.72858   0.68850   -1.000
 3960.00    0.67185   0.63838   -1.000
 3961.00    0.59969   0.57884   -1.000
 3962.00    0.54525   0.53163   -1.000
 3963.00    0.51110   0.50212   -1.000
 3964.00    0.49003   0.46781   31.636
 3965.00    0.44036   0.41404   35.045
 3966.00    0.36453   0.33775   43.152
 3967.00    0.30049   0.27186   52.819
 3968.00    0.25739   0.24082   58.627
 3969.00    0.25720   0.25074   54.815
 3970.00    0.29432   0.29527   45.361
 3971.00    0.35642   0.36137   37.265
 3972.00    0.43072   0.43061   31.156
 3973.00    0.49946   0.49783  188.540
 3974.00    0.56303   0.56227  236.891
 3975.00    0.62615   0.61687  213.276
 3976.00    0.67464   0.66670  196.404
 3977.00    0.71936   0.71038  184.720
 3978.00    0.76805   0.75402  174.996
 3979.00    0.80935   0.78927   -1.000
 3980.00    0.83790   0.80242   -1.000
 3981.00    0.83426   0.79819   -1.000
 3982.00    0.82556   0.78928   -1.000
 3983.00    0.83066   0.79192   -1.000
 3984.00    0.84582   0.80532   -1.000
 3985.00    0.86091   0.82025   -1.000
 3986.00    0.88309   0.83802   -1.000
 3987.00    0.88768   0.85693   -1.000
 3988.00    0.90615   0.86906   -1.000
 3989.00    0.91461   0.87452   -1.000
 3990.00    0.89730   0.87925  152.303
 3991.00    0.91473   0.89065   -1.000
 3992.00    0.94359   0.90478   -1.000
 3993.00    0.94469   0.90774   -1.000
 3994.00    0.92963   0.89554   -1.000
 3995.00    0.90552   0.87462   -1.000
 3996.00    0.88250   0.85514   -1.000
 3997.00    0.87411   0.85328   -1.000
 3998.00    0.87976   0.87186  154.692
 3999.00    0.92216   0.90025   -1.000
 4000.00    0.96125   0.92907   -1.000
 4001.00    0.97895   0.94854   -1.000
 4002.00    0.98769   0.94873   -1.000
 4003.00    0.98049   0.92269   -1.000
 4004.00    0.93604   0.87605   -1.000
 4005.00    0.87358   0.83774   -1.000
 4006.00    0.87003   0.84215   -1.000
 4007.00    0.91586   0.88120   -1.000
 4008.00    0.95334   0.92474   -1.000
 4009.00    0.97920   0.94937   -1.000
 4010.00    0.99168   0.95839   -1.000
 4011.00    0.98919   0.96134   -1.000
 4012.00    0.98759   0.96357   -1.000
 4013.00    0.98914   0.96868  140.058
 4014.00    0.99593   0.97422   -1.000
 4015.00    1.00723   0.97465   -1.000
 4016.00    1.00803   0.97052   -1.000
 4017.00    0.99472   0.97012   -1.000
 4018.00    1.00000   0.97986  139.294
 4019.00    1.01925   0.99021   -1.000
 4020.00    1.02301   0.99558   -1.000
 4021.00    1.02145   0.99099   -1.000
 4022.00    1.01586   0.98344   -1.000
 4023.00    1.00192   0.97554   -1.000
 4024.00    0.99242   0.97107  142.286
 4025.00    1.00698   0.97937   -1.000
 4026.00    1.03604   1.00157   -1.000
 4027.00    1.06036   1.02286   -1.000
 4028.00    1.06248   1.01349   -1.000
 4029.00    1.02261   0.96825   -1.000
 4030.00    0.96526   0.90965   -1.000
 4031.00    0.91463   0.86674   -1.000
 4032.00    0.89689   0.84995   -1.000
 4033.00    0.89364   0.85742   -1.000
 4034.00    0.91261   0.88808   -1.000
 4035.00    0.96109   0.93710   -1.000
 4036.00    1.02009   0.99330   -1.000
 4037.00    1.06263   1.04080  129.401
 4038.00    1.08369   1.05336   -1.000
 4039.00    1.07500   1.03551   -1.000
 4040.00    1.04140   1.01638   -1.000
 4041.00    1.02259   1.00784  136.158
 4042.00    1.03319   0.98919   -1.000
 4043.00    0.99695   0.93742   -1.000
 4044.00    0.90770   0.85641   -1.000
 4045.00    0.82526   0.80892  169.587
 4046.00    0.82998   0.83141  163.129
 4047.00    0.91049   0.90088  147.378
 4048.00    0.99574   0.97075   -1.000
 4049.00    1.03766   1.01779  134.222
 4050.00    1.06150   1.03311   -1.000
 4051.00    1.05243   1.02773   -1.000
 4052.00    1.02528   1.00740  137.107
 4053.00    1.00242   0.98194  140.677
 4054.00    0.98409   0.96501  142.901
 4055.00    0.97400   0.95387  144.064
 4056.00    0.96100   0.93969   -1.000
 4057.00    0.95141   0.93213  146.556
 4058.00    0.95150   0.94401  144.903
 4059.00    0.97392   0.97307  139.692
 4060.00    1.01435   0.98911   -1.000
 4061.00    1.01168   0.96123   -1.000
 4062.00    0.95255   0.90357   -1.000
 4063.00    0.88037   0.85943   -1.000
 4064.00    0.87106   0.85380  157.459
 4065.00    0.92058   0.87542   -1.000
 4066.00    0.95880   0.90522   -1.000
 4067.00    0.97409   0.93518   -1.000
 4068.00    1.00296   0.96182   -1.000
 4069.00    1.02498   0.96497   -1.000
 4070.00    0.99451   0.93479   -1.000
 4071.00    0.95033   0.90094   -1.000
 4072.00    0.94718   0.90068   -1.000
 4073.00    0.97869   0.92697   -1.000
 4074.00    0.99428   0.93889   -1.000
 4075.00    0.96044   0.90917   -1.000
 4076.00    0.90422   0.86431   -1.000
 4077.00    0.86263   0.84341   -1.000
 4078.00    0.87159   0.86479  159.340
 4079.00    0.92693   0.91890  148.461
 4080.00    0.99021   0.97687  138.202
 4081.00    1.03338   1.00475   -1.000
 4082.00    1.02397   0.99376   -1.000
 4083.00    0.99593   0.96529   -1.000
 4084.00    0.98059   0.94920   -1.000
 4085.00    0.98181   0.96279  140.845
 4086.00    1.01252   0.99893  136.116
 4087.00    1.05717   1.03774  130.878
 4088.00    1.09641   1.06055   -1.000
 4089.00    1.09028   1.05699   -1.000
 4090.00    1.07447   1.03587   -1.000
 4091.00    1.05032   1.01498   -1.000
 4092.00    1.03540   1.00484   -1.000
 4093.00    1.04000   0.99347   -1.000
 4094.00    1.03073   0.97170   -1.000
 4095.00    0.99600   0.93622   -1.000
 4096.00    0.94686   0.90278   -1.000
 4097.00    0.92900   0.87736   -1.000
 4098.00    0.91827   0.84735   -1.000
 4099.00    0.88683   0.79689   -1.000
 4100.00    0.82630   0.73117   -1.000
 4101.00    0.75148   0.69147   -1.000
 4102.00    0.75246   0.70551   -1.000
 4103.00    0.80338   0.76590   -1.000
 4104.00    0.87251   0.84352   -1.000
 4105.00    0.93475   0.90415   -1.000
 4106.00    0.97256   0.93620   -1.000
 4107.00    0.99119   0.95210   -1.000
 4108.00    0.98158   0.95322   -1.000
 4109.00    0.97039   0.94826  144.650
 4110.00    0.96193   0.94814  146.815
 4111.00    0.96272   0.95740  145.074
 4112.00    0.97952   0.97436  141.803
 4113.00    0.99950   0.99601  139.347
 4114.00    1.02351   1.02048  137.199
 4115.00    1.03932   1.03493  135.841
 4116.00    1.04140   1.03123  136.472
 4117.00    1.02386   1.01237  139.350
 4118.00    0.99806   0.99248  144.061
 4119.00    0.98242   0.98212  145.827
 4120.00    0.99207   0.98596  144.067
 4121.00    1.00186   0.99454  142.560
 4122.00    0.99424   1.00156  142.674
 4123.00    0.99440   1.01061  141.177
 4124.00    1.01840   1.02280  138.675
 4125.00    1.02748   1.02908  138.162
 4126.00    1.02660   1.02040  139.986
 4127.00    1.01218   1.00545  143.008
 4128.00    0.99520   0.99650  144.237
 4129.00    0.98643   0.99105  144.969
 4130.00    0.97390   0.97385  146.778
 4131.00    0.95492   0.94385  151.378
 4132.00    0.92428   0.91882  156.182
 4133.00    0.91718   0.92185  156.699
 4134.00    0.94236   0.95630  151.637
 4135.00    0.99065   1.00140  143.984
 4136.00    1.02840   1.04284  139.233
 4137.00    1.04424   1.06818   -1.000
 4138.00    1.06826   1.08390  134.800
 4139.00    1.07066   1.08946   -1.000
 4140.00    1.05765   1.06847  136.927
 4141.00    1.02429   1.01425  144.088
 4142.00    0.95408   0.95314  156.254
 4143.00    0.89561   0.91753   -1.000
 4144.00    0.89531   0.93149   -1.000
 4145.00    0.94765   0.97904   -1.000
 4146.00    1.00462   1.02048  143.739
 4147.00    1.01975   1.03282  142.164
 4148.00    1.01139   1.02389  144.799
 4149.00    0.99352   1.01480   -1.000
 4150.00    0.96837   1.01573   -1.000
 4151.00    0.96703   1.01659   -1.000
 4152.00    0.96364   1.00900   -1.000
 4153.00    0.96082   0.99296   -1.000
 4154.00    0.96036   0.97927   -1.000
 4155.00    0.95150   0.97970   -1.000
 4156.00    0.95379   0.99560   -1.000
 4157.00    1.07934   1.01785   -1.000
 4158.00    1.05622   1.04423  143.170
 4159.00    0.97055   1.06681   -1.000
 4160.00    0.96947   1.08042   -1.000
 4161.00    1.01712   1.09242   -1.000
 4162.00    1.04917   1.10321   -1.000
 4163.00    1.06083   1.10940   -1.000
 4164.00    1.05734   1.10381   -1.000
 4165.00    1.03359   1.08326   -1.000
 4166.00    1.00810   1.05879   -1.000
 4167.00    0.98016   1.04695   -1.000
 4168.00    0.98269   1.04917   -1.000
 4169.00    1.01387   1.05113   -1.000
 4170.00    1.01035   1.02799  146.028
 4171.00    0.97049   0.98416  154.657
 4172.00    0.90871   0.94413   -1.000
 4173.00    0.88146   0.93679   -1.000
 4174.00    0.90640   0.96164   -1.000
 4175.00    0.94246   0.99152   -1.000
 4176.00    0.95287   1.00449   -1.000
 4177.00    0.94676   1.01152   -1.000
 4178.00    0.94584   1.02601   -1.000
 4179.00    0.95833   1.04107   -1.000
 4180.00    0.96634   1.04240   -1.000
 4181.00    0.98025   1.03005   -1.000
 4182.00    0.98154   1.02558   -1.000
 4183.00    0.99446   1.04283   -1.000
 4184.00    1.03118   1.06115   -1.000
 4185.00    1.03807   1.05756   -1.000
 4186.00    1.01807   1.03427  147.285
 4187.00    0.98316   1.01530   -1.000
 4188.00    0.97442   1.01839   -1.000
 4189.00    1.00388   1.03605   -1.000
 4190.00    1.00669   1.05324   -1.000
 4191.00    1.00704   1.06820   -1.000
 4192.00    1.03309   1.08572   -1.000
 4193.00    1.05728   1.09242   -1.000
 4194.00    1.05300   1.07508   -1.000
 4195.00    1.00807   1.03629   -1.000
 4196.00    0.95960   0.99619   -1.000
 4197.00    0.93854   0.96842   -1.000
 4198.00    0.93210   0.95687   -1.000
 4199.00    0.94683   0.95514  157.031
 4200.00    0.97194   0.96233  154.505
 4201.00    0.97431   0.97180  154.057
 4202.00    0.96971   0.98352  153.074
 4203.00    0.98217   1.00470   -1.000
 4204.00    1.00345   1.03597   -1.000
 4205.00    1.02457   1.06742   -1.000
 4206.00    1.03783   1.09429   -1.000
 4207.00    1.06179   1.11207   -1.000
 4208.00    1.08265   1.11523   -1.000
 4209.00    1.07756   1.10917   -1.000
 4210.00    1.07391   1.10637   -1.000
 4211.00    1.08242   1.11464   -1.000
 4212.00    1.08305   1.11918   -1.000
 4213.00    1.06716   1.09658   -1.000
 4214.00    1.02113   1.05486   -1.000
 4215.00    0.97718   1.02834   -1.000
 4216.00    0.99196   1.03658   -1.000
 4217.00    1.06095   1.07881  140.299
 4218.00    1.12415   1.12570  134.035
 4219.00    1.16054   1.15719  130.276
 4220.00    1.17491   1.16259  128.842
 4221.00    1.17596   1.14321   -1.000
 4222.00    1.14690   1.09609   -1.000
 4223.00    1.08516   1.01818   -1.000
 4224.00    0.99855   0.92036   -1.000
 4225.00    0.89357   0.83606   -1.000
 4226.00    0.79751   0.80085  195.500
 4227.00    0.80489   0.84334   -1.000
 4228.00    0.92522   0.94832   -1.000
 4229.00    1.04971   1.04833  142.610
 4230.00    1.11902   1.09688  135.073
 4231.00    1.14276   1.10355   -1.000
 4232.00    1.12567   1.08431   -1.000
 4233.00    1.08907   1.06002   -1.000
 4234.00    1.06581   1.03972   -1.000
 4235.00    1.05207   1.02871   -1.000
 4236.00    1.03769   1.02389  147.951
 4237.00    1.04196   1.03057  146.893
 4238.00    1.05547   1.05198  143.452
 4239.00    1.06728   1.07723  141.404
 4240.00    1.09207   1.10095  138.676
 4241.00    1.12231   1.12082  136.799
 4242.00    1.14222   1.13698  136.194
 4243.00    1.14515   1.15564  133.861
 4244.00    1.16116   1.17072  131.027
 4245.00    1.17166   1.16414  132.361
 4246.00    1.14071   1.12977  138.483
 4247.00    1.10055   1.08377  143.787
 4248.00    1.07038   1.04482   -1.000
 4249.00    1.04697   1.02969  148.842
 4250.00    1.03754   1.03970  148.685
 4251.00    1.05361   1.06168  144.417
 4252.00    1.09170   1.07495  140.328
 4253.00    1.10183   1.06260   -1.000
 4254.00    1.07050   1.04416   -1.000
 4255.00    1.05726   1.05742  143.141
 4256.00    1.10463   1.09360  137.525
 4257.00    1.13498   1.10551   -1.000
 4258.00    1.09511   1.07250   -1.000
 4259.00    1.04222   1.02193  149.447
 4260.00    1.01094   1.00349  153.434
 4261.00    1.02112   1.03932   -1.000
 4262.00    1.08893   1.10805   -1.000
 4263.00    1.16794   1.16859  131.915
 4264.00    1.20044   1.19760  128.804
 4265.00    1.21307   1.19888  128.470
 4266.00    1.21312   1.18336   -1.000
 4267.00    1.17599   1.15356  134.914
 4268.00    1.13655   1.10878   -1.000
 4269.00    1.10084   1.05025   -1.000
 4270.00    1.03051   0.98588   -1.000
 4271.00    0.95655   0.94013  163.480
 4272.00    0.93059   0.92543  165.288
 4273.00    0.94946   0.94176  161.600
 4274.00    0.97563   0.97510  157.529
 4275.00    1.01844   1.02493  150.478
 4276.00    1.08376   1.08851  140.681
 4277.00    1.14499   1.14216  134.107
 4278.00    1.17613   1.15411  133.973
 4279.00    1.16085   1.12939   -1.000
 4280.00    1.10875   1.10082  144.879
 4281.00    1.08578   1.09283  145.297
 4282.00    1.09812   1.10259  143.240
 4283.00    1.10990   1.10425  141.929
 4284.00    1.10581   1.09077  143.745
 4285.00    1.07792   1.07378  148.003
 4286.00    1.05173   1.05560  151.747
 4287.00    1.03632   1.03162  153.915
 4288.00    1.00863   0.99310  159.832
 4289.00    0.95793   0.95184  167.874
 4290.00    0.93668   0.94540  168.301
 4291.00    0.97181   0.98254  159.865
 4292.00    1.03314   1.03024  149.635
 4293.00    1.08057   1.05543   -1.000
 4294.00    1.08076   1.05128   -1.000
 4295.00    1.06259   1.03161   -1.000
 4296.00    1.04785   1.00027   -1.000
 4297.00    1.01050   0.95220   -1.000
 4298.00    0.94202   0.88908   -1.000
 4299.00    0.87596   0.83768   -1.000
 4300.00    0.84499   0.81961   -1.000
 4301.00    0.86275   0.82904   -1.000
 4302.00    0.87740   0.84725   -1.000
 4303.00    0.89317   0.86399   -1.000
 4304.00    0.91253   0.87694   -1.000
 4305.00    0.91895   0.87205   -1.000
 4306.00    0.89406   0.84117   -1.000
 4307.00    0.85496   0.80398   -1.000
 4308.00    0.81750   0.78618   -1.000
 4309.00    0.82509   0.80603   -1.000
 4310.00    0.88340   0.85469   -1.000
 4311.00    0.93724   0.90989   -1.000
 4312.00    0.98714   0.96070   -1.000
 4313.00    1.01762   1.02390  157.892
 4314.00    1.05955   1.10110   -1.000
 4315.00    1.12834   1.19010   -1.000
 4316.00    1.23179   1.27001   -1.000
 4317.00    1.29864   1.31094  121.049
 4318.00    1.30602   1.30928  121.026
 4319.00    1.28437   1.28636  122.929
 4320.00    1.26403   1.25687  125.725
 4321.00    1.22937   1.20953  130.000
 4322.00    1.18267   1.13704   -1.000
 4323.00    1.11323   1.04294   -1.000
 4324.00    1.03034   0.96766   -1.000
 4325.00    0.95745   0.95160  166.316
 4326.00    0.97317   1.00617   -1.000
 4327.00    1.08077   1.10911   -1.000
 4328.00    1.19528   1.19969  129.076
 4329.00    1.24444   1.23840  126.583
 4330.00    1.24611   1.24174  127.135
 4331.00    1.23246   1.23980  126.432
 4332.00    1.24397   1.25107  124.202
 4333.00    1.25584   1.26282  122.932
 4334.00    1.26711   1.25897  122.666
 4335.00    1.26690   1.22185   -1.000
 4336.00    1.20900   1.14287   -1.000
 4337.00    1.10780   1.02909   -1.000
 4338.00    1.01005   0.92161   -1.000
 4339.00    0.93176   0.86050   -1.000
 4340.00    0.88969   0.86312   -1.000
 4341.00    0.92472   0.92637  163.835
 4342.00    1.01540   1.02208  147.585
 4343.00    1.10726   1.10024  138.497
 4344.00    1.15282   1.15048  134.135
 4345.00    1.19126   1.18938  130.489
 4346.00    1.22489   1.22148  128.279
 4347.00    1.24246   1.25282  126.934
 4348.00    1.26880   1.27394  124.835
 4349.00    1.28484   1.25882   -1.000
 4350.00    1.24019   1.19856   -1.000
 4351.00    1.14223   1.13203  142.197
 4352.00    1.09676   1.10851  144.195
 4353.00    1.14190   1.13888  138.259
 4354.00    1.20674   1.19510  131.960
 4355.00    1.24185   1.23999  127.903
 4356.00    1.27810   1.26133  125.244
 4357.00    1.30151   1.26526   -1.000
 4358.00    1.27455   1.25768  128.074
 4359.00    1.25123   1.25564  129.652
 4360.00    1.26014   1.27395  127.136
 4361.00    1.29822   1.30528  123.223
 4362.00    1.33626   1.32993  121.870
 4363.00    1.34817   1.34499  121.381
 4364.00    1.34634   1.35732  120.003
 4365.00    1.36327   1.35276  119.903
 4366.00    1.34065   1.32028  123.653
 4367.00    1.28301   1.28219  128.212
 4368.00    1.25193   1.26090  129.623
 4369.00    1.25737   1.25333  128.326
 4370.00    1.26812   1.25071  127.533
 4371.00    1.27115   1.23982   -1.000
 4372.00    1.26663   1.21297   -1.000
 4373.00    1.22527   1.17370   -1.000
 4374.00    1.17048   1.14026   -1.000
 4375.00    1.15302   1.14172  139.447
 4376.00    1.19108   1.18588  133.639
 4377.00    1.25540   1.23874  126.893
 4378.00    1.29834   1.26748   -1.000
 4379.00    1.30127   1.26356   -1.000
 4380.00    1.28031   1.22193   -1.000
 4381.00    1.23785   1.13552   -1.000
 4382.00    1.13527   1.02835   -1.000
 4383.00    0.99588   0.94698   -1.000
 4384.00    0.93763   0.94615  167.388
 4385.00    1.01008   1.02508   -1.000
 4386.00    1.13079   1.11720  137.467
 4387.00    1.20686   1.16659   -1.000
 4388.00    1.22198   1.17327   -1.000
 4389.00    1.21299   1.16927   -1.000
 4390.00    1.20186   1.17444   -1.000
 4391.00    1.21884   1.19226  132.393
 4392.00    1.25016   1.21241   -1.000
 4393.00    1.24945   1.21781   -1.000
 4394.00    1.23096   1.21676  133.235
 4395.00    1.23269   1.23420  132.721
 4396.00    1.26899   1.27355  126.577
 4397.00    1.32777   1.29998   -1.000
 4398.00    1.33960   1.28773   -1.000
 4399.00    1.28546   1.25485   -1.000
 4400.00    1.23376   1.23190  133.189
 4401.00    1.23006   1.22498  131.592
 4402.00    1.26041   1.21455   -1.000
 4403.00    1.23899   1.17181   -1.000
 4404.00    1.15627   1.12141   -1.000
 4405.00    1.11246   1.10656  142.848
 4406.00    1.15288   1.13103  137.984
 4407.00    1.18933   1.16721  135.991
 4408.00    1.19231   1.20397  134.787
 4409.00    1.22440   1.25369   -1.000
 4410.00    1.28831   1.32102   -1.000
 4411.00    1.33783   1.36585   -1.000
 4412.00    1.36847   1.35840  118.413
 4413.00    1.34749   1.30904   -1.000
 4414.00    1.27187   1.24502  128.770
 4415.00    1.19923   1.20072  133.412
 4416.00    1.19864   1.21274  132.610
 4417.00    1.24368   1.27211   -1.000
 4418.00    1.28980   1.33859   -1.000
 4419.00    1.33182   1.38164   -1.000
 4420.00    1.34371   1.38201   -1.000
 4421.00    1.30907   1.35037   -1.000
 4422.00    1.26836   1.31913   -1.000
 4423.00    1.25073   1.30817   -1.000
 4424.00    1.25695   1.31491   -1.000
 4425.00    1.26340   1.31953   -1.000
 4426.00    1.26433   1.31758   -1.000
 4427.00    1.26294   1.32411   -1.000
 4428.00    1.27780   1.33165   -1.000
 4429.00    1.27334   1.33307   -1.000
 4430.00    1.25891   1.33131   -1.000
 4431.00    1.26069   1.32998   -1.000
 4432.00    1.27089   1.32378   -1.000
 4433.00    1.25655   1.29279   -1.000
 4434.00    1.21151   1.24887   -1.000
 4435.00    1.18199   1.23760   -1.000
 4436.00    1.21730   1.28037   -1.000
 4437.00    1.29583   1.35676   -1.000
 4438.00    1.36868   1.41120   -1.000
 4439.00    1.38993   1.42093   -1.000
 4440.00    1.36963   1.38362  119.624
 4441.00    1.30362   1.32311  125.427
 4442.00    1.25058   1.28280   -1.000
 4443.00    1.24364   1.29163   -1.000
 4444.00    1.28183   1.34535   -1.000
 4445.00    1.35080   1.39977   -1.000
 4446.00    1.39540   1.42999   -1.000
 4447.00    1.40063   1.43370   -1.000
 4448.00    1.38998   1.42940   -1.000
 4449.00    1.38943   1.42631   -1.000
 4450.00    1.37094   1.42014   -1.000
 4451.00    1.36952   1.40699   -1.000
 4452.00    1.37267   1.37878  121.223
 4453.00    1.33663   1.32563  125.754
 4454.00    1.27410   1.26529  131.604
 4455.00    1.23071   1.23550  134.311
 4456.00    1.23952   1.24042  131.999
 4457.00    1.26152   1.25975  129.637
 4458.00    1.26919   1.26896  129.738
 4459.00    1.26254   1.26599  130.420
 4460.00    1.24679   1.26499   -1.000
 4461.00    1.23736   1.27483   -1.000
 4462.00    1.25393   1.30217   -1.000
 4463.00    1.30791   1.34361   -1.000
 4464.00    1.35275   1.37641   -1.000
 4465.00    1.36235   1.38836   -1.000
 4466.00    1.36524   1.38123  122.134
 4467.00    1.36263   1.36710  123.542
 4468.00    1.33537   1.35457  125.952
 4469.00    1.31809   1.35356   -1.000
 4470.00    1.33506   1.37567   -1.000
 4471.00    1.35952   1.41699   -1.000
 4472.00    1.40560   1.45824   -1.000
 4473.00    1.45756   1.48985   -1.000
 4474.00    1.47807   1.50284   -1.000
 4475.00    1.47816   1.50884   -1.000
 4476.00    1.49993   1.51848  111.860
 4477.00    1.52286   1.52215  111.207
 4478.00    1.50911   1.50026  112.224
 4479.00    1.45856   1.44987  116.426
 4480.00    1.38319   1.38865  121.752
 4481.00    1.33101   1.35873   -1.000
 4482.00    1.34150   1.37673   -1.000
 4483.00    1.39525   1.43011   -1.000
 4484.00    1.46200   1.49001   -1.000
 4485.00    1.50375   1.53202   -1.000
 4486.00    1.51591   1.53577  111.755
 4487.00    1.49882   1.50316  114.331
 4488.00    1.44256   1.45550  118.764
 4489.00    1.38746   1.42517   -1.000
 4490.00    1.37867   1.42831   -1.000
 4491.00    1.41105   1.45479   -1.000
 4492.00    1.44481   1.47439   -1.000
 4493.00    1.44061   1.46387   -1.000
 4494.00    1.39694   1.43495   -1.000
 4495.00    1.36220   1.42134   -1.000
 4496.00    1.36825   1.43905   -1.000
 4497.00    1.41119   1.47288   -1.000
 4498.00    1.45293   1.50106   -1.000
 4499.00    1.47634   1.51343   -1.000
 4500.00    1.46131   1.51036   -1.000
 4501.00    1.43820   1.51265   -1.000
 4502.00    1.45326   1.53717   -1.000
 4503.00    1.52006   1.57298   -1.000
 4504.00    1.58007   1.60893   -1.000
 4505.00    1.58118   1.62185   -1.000
 4506.00    1.57884   1.61108   -1.000
 4507.00    1.57049   1.59283   -1.000
 4508.00    1.55234   1.58426   -1.000
 4509.00    1.55828   1.58782   -1.000
 4510.00    1.57299   1.59276  108.659
 4511.00    1.56586   1.58575  109.592
 4512.00    1.53917   1.56341   -1.000
 4513.00    1.50169   1.53897   -1.000
 4514.00    1.47629   1.52218   -1.000
 4515.00    1.48606   1.51538   -1.000
 4516.00    1.49343   1.51762   -1.000
 4517.00    1.48412   1.51722   -1.000
 4518.00    1.47254   1.51404   -1.000
 4519.00    1.48484   1.52317   -1.000
 4520.00    1.52556   1.54105  111.661
 4521.00    1.54102   1.55223  112.010
 4522.00    1.51658   1.54283   -1.000
 4523.00    1.47784   1.51607   -1.000
 4524.00    1.45838   1.48700   -1.000
 4525.00    1.43692   1.45587  120.008
 4526.00    1.38164   1.41427   -1.000
 4527.00    1.34358   1.36835   -1.000
 4528.00    1.32065   1.33584  128.729
 4529.00    1.31873   1.33317  127.783
 4530.00    1.33314   1.35347   -1.000
 4531.00    1.36307   1.38154  123.225
 4532.00    1.38417   1.39426  122.624
 4533.00    1.37423   1.38352  126.088
 4534.00    1.33963   1.36639   -1.000
 4535.00    1.32862   1.37210   -1.000
 4536.00    1.37437   1.41984   -1.000
 4537.00    1.47420   1.49053  114.144
 4538.00    1.53671   1.54628  111.072
 4539.00    1.53580   1.55848   -1.000
 4540.00    1.49625   1.54118   -1.000
 4541.00    1.48205   1.52512   -1.000
 4542.00    1.49771   1.52648   -1.000
 4543.00    1.50098   1.53353   -1.000
 4544.00    1.47267   1.52789   -1.000
 4545.00    1.51228   1.51042   53.457
 4546.00    0.54996   1.49594   -1.000
 4547.00   -0.03226   1.48390    0.000
 4548.00   -0.04967   1.46578    0.000
 4549.00    0.90288   1.44975   -1.000
 4550.00    0.57013   1.45304   -1.000
 4551.00    0.77352   1.47432   -1.000
 4552.00    1.49801   1.48661  118.993
 4553.00    1.44080   1.47608   -1.000
 4554.00    1.42655   1.46142   -1.000
 4555.00    1.42862   1.46351   -1.000
 4556.00    1.47216   1.49543   -1.000
 4557.00    1.53109   1.54748  111.069
 4558.00    1.56905   1.59063  109.113
 4559.00    1.58373   1.61395   -1.000
 4560.00    1.58301   1.62150   -1.000
 4561.00    1.58299   1.61781   -1.000
 4562.00    1.57233   1.60222   -1.000
 4563.00    1.52937   1.57085   -1.000
 4564.00    1.47915   1.53713   -1.000
 4565.00    1.46427   1.52355   -1.000
 4566.00    1.50179   1.54283   -1.000
 4567.00    1.55688   1.58377   -1.000
 4568.00    1.58771   1.61371   -1.000
 4569.00    1.58926   1.61345   -1.000
 4570.00    1.54911   1.58678   -1.000
 4571.00    1.49661   1.55591   -1.000
 4572.00    1.50163   1.54739   -1.000
 4573.00    1.54859   1.57071   -1.000
 4574.00    1.57860   1.60372   -1.000
 4575.00    1.58152   1.61947   -1.000
 4576.00    1.57521   1.61745   -1.000
 4577.00    1.56417   1.60415   -1.000
 4578.00    1.54561   1.57794   -1.000
 4579.00    1.50700   1.53893   -1.000
 4580.00    1.45900   1.50345   -1.000
 4581.00    1.45991   1.48669   -1.000
 4582.00    1.47274   1.49349   -1.000
 4583.00    1.48369   1.50875   -1.000
 4584.00    1.48614   1.51587   -1.000
 4585.00    1.48211   1.51259   -1.000
 4586.00    1.49429   1.51961   -1.000
 4587.00    1.52370   1.54628   -1.000
 4588.00    1.56686   1.58139  109.885
 4589.00    1.58868   1.60460  109.710
 4590.00    1.57515   1.60227   -1.000
 4591.00    1.53766   1.57852   -1.000
 4592.00    1.51927   1.55157   -1.000
 4593.00    1.51146   1.53782   -1.000
 4594.00    1.51242   1.53835   -1.000
 4595.00    1.51083   1.54435   -1.000
 4596.00    1.51546   1.55136   -1.000
 4597.00    1.52498   1.55999   -1.000
 4598.00    1.53163   1.56745   -1.000
 4599.00    1.53669   1.56675   -1.000
 4600.00    1.51965   1.55968   -1.000
 4601.00    1.50725   1.55223   -1.000
 4602.00    1.51645   1.55151   -1.000
 4603.00    1.53674   1.55548  112.672
 4604.00    1.54886   1.56087  112.852
 4605.00    1.55048   1.56912  112.668
 4606.00    1.56718   1.58553  111.445
 4607.00    1.59450   1.61427  109.241
 4608.00    1.63779   1.64907  106.897
 4609.00    1.66898   1.67606  105.630
 4610.00    1.66754   1.67851  106.094
 4611.00    1.64144   1.65772  107.559
 4612.00    1.61475   1.63822   -1.000
 4613.00    1.60333   1.62965   -1.000
 4614.00    1.61492   1.63338  108.931
 4615.00    1.62336   1.64335  107.957
 4616.00    1.62481   1.64995   -1.000
 4617.00    1.62680   1.64950  108.238
 4618.00    1.62440   1.64515  109.046
 4619.00    1.60891   1.64396   -1.000
 4620.00    1.62014   1.65171   -1.000
 4621.00    1.64916   1.66774  106.188
 4622.00    1.65431   1.67922   -1.000
 4623.00    1.64245   1.67656   -1.000
 4624.00    1.63650   1.66799   -1.000
 4625.00    1.63418   1.66208   -1.000
 4626.00    1.63964   1.65560  107.875
 4627.00    1.64624   1.65357  107.819
 4628.00    1.63894   1.65514  108.515
 4629.00    1.62729   1.65828   -1.000
 4630.00    1.63478   1.66313   -1.000
 4631.00    1.65714   1.67135  106.954
 4632.00    1.64530   1.67322   -1.000
 4633.00    1.62132   1.65864   -1.000
 4634.00    1.61148   1.64014   -1.000
 4635.00    1.60884   1.62824  110.113
 4636.00    1.59806   1.61888  111.001
 4637.00    1.58254   1.60505   -1.000
 4638.00    1.55972   1.59309   -1.000
 4639.00    1.55911   1.59064   -1.000
 4640.00    1.58945   1.60267  110.876
 4641.00    1.62339   1.62534  108.151
 4642.00    1.65089   1.64651  106.662
 4643.00    1.65764   1.64724  107.090
 4644.00    1.62895   1.62295  109.089
 4645.00    1.59247   1.58638  112.174
 4646.00    1.54515   1.54597  115.287
 4647.00    1.51641   1.52001  115.794
 4648.00    1.52057   1.52913  113.747
 4649.00    1.56690   1.56579  111.077
 4650.00    1.60546   1.60744  109.548
 4651.00    1.61932   1.63414  109.354
 4652.00    1.63321   1.64159  109.129
 4653.00    1.62262   1.63453  110.425
 4654.00    1.59878   1.61453  112.997
 4655.00    1.56216   1.59693   -1.000
 4656.00    1.55793   1.60023   -1.000
 4657.00    1.58832   1.63173   -1.000
 4658.00    1.65515   1.68331   -1.000
 4659.00    1.70840   1.73190   -1.000
 4660.00    1.73098   1.74900  103.016
 4661.00    1.69831   1.73379   -1.000
 4662.00    1.66023   1.69968   -1.000
 4663.00    1.62854   1.66240   -1.000
 4664.00    1.60916   1.62824  109.244
 4665.00    1.58639   1.58934  111.034
 4666.00    1.52793   1.53941  115.821
 4667.00    1.45706   1.49382   -1.000
 4668.00    1.43055   1.48121   -1.000
 4669.00    1.47526   1.51521   -1.000
 4670.00    1.56335   1.57291  112.181
 4671.00    1.61322   1.62264  109.138
 4672.00    1.63485   1.64596  108.484
 4673.00    1.63391   1.65077  108.570
 4674.00    1.62881   1.65547   -1.000
 4675.00    1.64631   1.66961   -1.000
 4676.00    1.68058   1.68439  105.429
 4677.00    1.69293   1.67719  105.954
 4678.00    1.65800   1.64832  108.264
 4679.00    1.60902   1.61378  110.411
 4680.00    1.57939   1.58997  112.238
 4681.00    1.57725   1.58339  113.327
 4682.00    1.59079   1.59172  111.922
 4683.00    1.62374   1.61291  109.087
 4684.00    1.66371   1.63508  107.649
 4685.00    1.67078   1.64742  108.013
 4686.00    1.65087   1.64911  108.060
 4687.00    1.64308   1.64570  108.678
 4688.00    1.64927   1.64200  108.686
 4689.00    1.64480   1.63916  108.695
 4690.00    1.63686   1.63777  109.480
 4691.00    1.63450   1.63433  109.711
 4692.00    1.63932   1.63609  108.411
 4693.00    1.66316   1.64838  106.792
 4694.00    1.69290   1.66534  104.407
 4695.00    1.71805   1.67865   -1.000
 4696.00    1.72288   1.68230   -1.000
 4697.00    1.69487   1.66675  106.571
 4698.00    1.64250   1.63419  109.804
 4699.00    1.60262   1.60321  111.093
 4700.00    1.60404   1.58226  110.201
 4701.00    1.59720   1.56898  111.019
 4702.00    1.57358   1.55783  112.994
 4703.00    1.56448   1.55754  113.589
 4704.00    1.58536   1.57663  111.436
 4705.00    1.61871   1.59987  109.784
 4706.00    1.61364   1.60336  111.309
 4707.00    1.59238   1.58719  113.558
 4708.00    1.56109   1.57305  114.660
 4709.00    1.55555   1.57969   -1.000
 4710.00    1.59461   1.60416  110.701
 4711.00    1.64780   1.63202  107.657
 4712.00    1.67134   1.65124  106.585
 4713.00    1.66973   1.64856  107.604
 4714.00    1.64565   1.63573  109.651
 4715.00    1.62854   1.63771  109.665
 4716.00    1.66252   1.66277  107.487
 4717.00    1.70162   1.69957  105.414
 4718.00    1.71591   1.72765  104.757
 4719.00    1.72488   1.74323  104.388
 4720.00    1.72944   1.74735  104.030
 4721.00    1.71583   1.74350   -1.000
 4722.00    1.70736   1.73762   -1.000
 4723.00    1.71161   1.73921   -1.000
 4724.00    1.71993   1.74657   -1.000
 4725.00    1.72455   1.74301  104.062
 4726.00    1.68227   1.71662   -1.000
 4727.00    1.61955   1.66773   -1.000
 4728.00    1.57751   1.62019   -1.000
 4729.00    1.57262   1.59918   -1.000
 4730.00    1.58505   1.60489   -1.000
 4731.00    1.60562   1.62417  110.712
 4732.00    1.63114   1.64752  109.376
 4733.00    1.64932   1.66806  108.425
 4734.00    1.67606   1.67709  107.809
 4735.00    1.68713   1.67606  107.208
 4736.00    1.66706   1.67398  108.359
 4737.00    1.65626   1.67551  108.505
 4738.00    1.67927   1.68659  107.099
 4739.00    1.69539   1.70312  107.138
 4740.00    1.68638   1.71087   -1.000
 4741.00    1.67161   1.70879   -1.000
 4742.00    1.67966   1.71211   -1.000
 4743.00    1.70440   1.72150  105.873
 4744.00    1.71686   1.72997  106.083
 4745.00    1.71819   1.73626  106.180
 4746.00    1.71953   1.74369   -1.000
 4747.00    1.73177   1.75586  104.317
 4748.00    1.73455   1.76980   -1.000
 4749.00    1.73295   1.77989   -1.000
 4750.00    1.73132   1.78692   -1.000
 4751.00    1.71917   1.78329   -1.000
 4752.00    1.71172   1.76614   -1.000
 4753.00    1.69130   1.74048   -1.000
 4754.00    1.66935   1.71759   -1.000
 4755.00    1.66205   1.70897   -1.000
 4756.00    1.65551   1.71285   -1.000
 4757.00    1.65768   1.72384   -1.000
 4758.00    1.66444   1.73940   -1.000
 4759.00    1.68162   1.75512   -1.000
 4760.00    1.68099   1.75878   -1.000
 4761.00    1.65581   1.74145   -1.000
 4762.00    1.60683   1.70509   -1.000
 4763.00    1.58291   1.66570   -1.000
 4764.00    1.57899   1.64446   -1.000
 4765.00    1.57715   1.63414   -1.000
 4766.00    1.59112   1.63204   -1.000
 4767.00    1.61997   1.64848   -1.000
 4768.00    1.65671   1.69110   -1.000
 4769.00    1.69298   1.73630   -1.000
 4770.00    1.70830   1.75890   -1.000
 4771.00    1.69837   1.75340   -1.000
 4772.00    1.67940   1.74370   -1.000
 4773.00    1.68476   1.75109   -1.000
 4774.00    1.72309   1.77763   -1.000
 4775.00    1.74798   1.80480   -1.000
 4776.00    1.74773   1.81728   -1.000
 4777.00    1.74033   1.81794   -1.000
 4778.00    1.73113   1.81242   -1.000
 4779.00    1.71246   1.80276   -1.000
 4780.00    1.70205   1.78950   -1.000
 4781.00    1.70298   1.77713   -1.000
 4782.00    1.69153   1.76040   -1.000
 4783.00    1.68137   1.74092   -1.000
 4784.00    1.68667   1.72947   -1.000
 4785.00    1.68516   1.72577   -1.000
 4786.00    1.66813   1.72279   -1.000
 4787.00    1.65596   1.71959   -1.000
 4788.00    1.65462   1.72155   -1.000
 4789.00    1.66037   1.72714   -1.000
 4790.00    1.66603   1.73648   -1.000
 4791.00    1.68212   1.75488   -1.000
 4792.00    1.70596   1.78649   -1.000
 4793.00    1.73362   1.82500   -1.000
 4794.00    1.78230   1.86050   -1.000
 4795.00    1.80355   1.88222   -1.000
 4796.00    1.78340   1.87895   -1.000
 4797.00    1.75915   1.85342   -1.000
 4798.00    1.71652   1.82074   -1.000
 4799.00    1.68210   1.79395   -1.000
 4800.00    1.68915   1.78790   -1.000
 4801.00    1.72622   1.80814   -1.000
 4802.00    1.76879   1.84034   -1.000
 4803.00    1.78094   1.85831   -1.000
 4804.00    1.75959   1.85159   -1.000
 4805.00    1.72569   1.82821   -1.000
 4806.00    1.71335   1.80598   -1.000
 4807.00    1.70443   1.79311   -1.000
 4808.00    1.70239   1.79017   -1.000
 4809.00    1.71416   1.80028   -1.000
 4810.00    1.73538   1.81759   -1.000
 4811.00    1.74388   1.83099   -1.000
 4812.00    1.74551   1.83634   -1.000
 4813.00    1.75501   1.84030   -1.000
 4814.00    1.75659   1.84704   -1.000
 4815.00    1.76578   1.85865   -1.000
 4816.00    1.78386   1.87409   -1.000
 4817.00    1.79251   1.88857   -1.000
 4818.00    1.80653   1.89805   -1.000
 4819.00    1.80610   1.90379   -1.000
 4820.00    1.80194   1.90331   -1.000
 4821.00    1.79521   1.88701   -1.000
 4822.00    1.75904   1.85093   -1.000
 4823.00    1.72119   1.80572   -1.000
 4824.00    1.69495   1.77627   -1.000
 4825.00    1.72636   1.78653   -1.000
 4826.00    1.76744   1.81954   -1.000
 4827.00    1.77507   1.83869   -1.000
 4828.00    1.75513   1.83598   -1.000
 4829.00    1.74000   1.82507   -1.000
 4830.00    1.73486   1.81770   -1.000
 4831.00    1.72548   1.80385   -1.000
 4832.00    1.71458   1.78809   -1.000
 4833.00    1.72805   1.78820   -1.000
 4834.00    1.75585   1.80533   -1.000
 4835.00    1.76722   1.82912   -1.000
 4836.00    1.76269   1.84193   -1.000
 4837.00    1.75887   1.83917   -1.000
 4838.00    1.74162   1.82362   -1.000
 4839.00    1.71532   1.79854   -1.000
 4840.00    1.70079   1.77667   -1.000
 4841.00    1.70400   1.76781   -1.000
 4842.00    1.71200   1.77196   -1.000
 4843.00    1.71209   1.77958   -1.000
 4844.00    1.72681   1.79147   -1.000
 4845.00    1.75956   1.81544   -1.000
 4846.00    1.78283   1.83782   -1.000
 4847.00    1.77007   1.83543   -1.000
 4848.00    1.72835   1.81353   -1.000
 4849.00    1.71397   1.79994   -1.000
 4850.00    1.73903   1.80606   -1.000
 4851.00    1.75212   1.81877   -1.000
 4852.00    1.74618   1.81791   -1.000
 4853.00    1.73011   1.79517   -1.000
 4854.00    1.68599   1.74842   -1.000
 4855.00    1.62831   1.69509   -1.000
 4856.00    1.61266   1.66334   -1.000
 4857.00    1.62685   1.65438   -1.000
 4858.00    1.59857   1.63252   -1.000
 4859.00    1.51040   1.54509   -1.000
 4860.00    1.35864   1.40828   -1.000
 4861.00    1.24876   1.30540   -1.000
 4862.00    1.27663   1.30114   -1.000
 4863.00    1.40012   1.39711  126.176
 4864.00    1.50796   1.51584  118.647
 4865.00    1.57331   1.61085   -1.000
 4866.00    1.62148   1.67364   -1.000
 4867.00    1.64442   1.71434   -1.000
 4868.00    1.65526   1.73400   -1.000
 4869.00    1.65205   1.72795   -1.000
 4870.00    1.61477   1.68993   -1.000
 4871.00    1.55909   1.63426   -1.000
 4872.00    1.53867   1.60216   -1.000
 4873.00    1.58638   1.63403   -1.000
 4874.00    1.63160   1.69865   -1.000
 4875.00    1.64456   1.74771   -1.000
 4876.00    1.66170   1.76606   -1.000
 4877.00    1.67701   1.77458   -1.000
 4878.00    1.70289   1.79562   -1.000
 4879.00    1.72877   1.82586   -1.000
 4880.00    1.73044   1.84707   -1.000
 4881.00    1.70087   1.84295   -1.000
 4882.00    1.68489   1.82084   -1.000
 4883.00    1.69442   1.80850   -1.000
 4884.00    1.68246   1.79719   -1.000
 4885.00    1.64663   1.77172   -1.000
 4886.00    1.62965   1.74476   -1.000
 4887.00    1.63769   1.73493   -1.000
 4888.00    1.64717   1.73574   -1.000
 4889.00    1.63750   1.72110   -1.000
 4890.00    1.60723   1.68447   -1.000
 4891.00    1.58666   1.65953   -1.000
 4892.00    1.62787   1.68839   -1.000
 4893.00    1.73383   1.77802   -1.000
 4894.00    1.82262   1.88740   -1.000
 4895.00    1.85938   1.95499   -1.000
 4896.00    1.87493   1.98120   -1.000
 4897.00    1.87639   1.98015   -1.000
 4898.00    1.85790   1.96366   -1.000
 4899.00    1.81573   1.93719   -1.000
 4900.00    1.79078   1.91284   -1.000
 4901.00    1.79506   1.89735   -1.000
 4902.00    1.78953   1.88617   -1.000
 4903.00    1.76896   1.87154   -1.000
 4904.00    1.77618   1.86766   -1.000
 4905.00    1.80862   1.89473   -1.000
 4906.00    1.83756   1.93398   -1.000
 4907.00    1.83599   1.94211   -1.000
 4908.00    1.80361   1.91185   -1.000
 4909.00    1.74945   1.85818   -1.000
 4910.00    1.71743   1.81203   -1.000
 4911.00    1.71674   1.79707   -1.000
 4912.00    1.74843   1.82162   -1.000
 4913.00    1.78366   1.86503   -1.000
 4914.00    1.81615   1.90442   -1.000
 4915.00    1.84662   1.93217   -1.000
 4916.00    1.85457   1.93331   -1.000
 4917.00    1.80253   1.88160   -1.000
 4918.00    1.69918   1.77949   -1.000
 4919.00    1.60412   1.66890   -1.000
 4920.00    1.56014   1.60102   -1.000
 4921.00    1.58730   1.60889   -1.000
 4922.00    1.66507   1.67126  112.017
 4923.00    1.71721   1.73886   -1.000
 4924.00    1.72126   1.77504   -1.000
 4925.00    1.73842   1.80027   -1.000
 4926.00    1.78150   1.83912   -1.000
 4927.00    1.82536   1.88959   -1.000
 4928.00    1.85326   1.93594   -1.000
 4929.00    1.87612   1.96734   -1.000
 4930.00    1.88663   1.98270   -1.000
 4931.00    1.88292   1.97224   -1.000
 4932.00    1.84905   1.93053   -1.000
 4933.00    1.77982   1.87339   -1.000
 4934.00    1.74932   1.83711   -1.000
 4935.00    1.77641   1.83518   -1.000
 4936.00    1.79271   1.84500   -1.000
 4937.00    1.75488   1.82176   -1.000
 4938.00    1.69591   1.76893   -1.000
 4939.00    1.68468   1.74426   -1.000
 4940.00    1.74216   1.77818   -1.000
 4941.00    1.81515   1.85363   -1.000
 4942.00    1.85607   1.92554   -1.000
 4943.00    1.87797   1.96213   -1.000
 4944.00    1.89206   1.97012   -1.000
 4945.00    1.87754   1.96085   -1.000
 4946.00    1.85240   1.94948   -1.000
 4947.00    1.86452   1.95132   -1.000
 4948.00    1.89309   1.97270   -1.000
 4949.00    1.90330   1.99672   -1.000
 4950.00    1.90943   2.00673   -1.000
 4951.00    1.91613   2.00336   -1.000
 4952.00    1.90470   1.99251   -1.000
 4953.00    1.88469   1.97887   -1.000
 4954.00    1.87519   1.95916   -1.000
 4955.00    1.84680   1.91593   -1.000
 4956.00    1.76410   1.82702   -1.000
 4957.00    1.66592   1.72341   -1.000
 4958.00    1.66030   1.69053   -1.000
 4959.00    1.75628   1.75488  108.610
 4960.00    1.85081   1.86270  104.770
 4961.00    1.89026   1.93840   -1.000
 4962.00    1.88178   1.96166   -1.000
 4963.00    1.87483   1.95596   -1.000
 4964.00    1.85732   1.93227   -1.000
 4965.00    1.80541   1.89486   -1.000
 4966.00    1.77909   1.86029   -1.000
 4967.00    1.77275   1.84327   -1.000
 4968.00    1.77554   1.84172   -1.000
 4969.00    1.78364   1.85093   -1.000
 4970.00    1.80191   1.87051   -1.000
 4971.00    1.83205   1.89732   -1.000
 4972.00    1.85559   1.92704   -1.000
 4973.00    1.87965   1.95181   -1.000
 4974.00    1.89102   1.96610   -1.000
 4975.00    1.89175   1.96652   -1.000
 4976.00    1.87795   1.95507   -1.000
 4977.00    1.84184   1.93102   -1.000
 4978.00    1.80585   1.90124   -1.000
 4979.00    1.78164   1.87281   -1.000
 4980.00    1.76575   1.84232   -1.000
 4981.00    1.71928   1.79296   -1.000
 4982.00    1.64975   1.72276   -1.000
 4983.00    1.62185   1.66519   -1.000
 4984.00    1.63945   1.65983  117.210
 4985.00    1.68610   1.70959   -1.000
 4986.00    1.75848   1.78452   -1.000
 4987.00    1.81649   1.85136   -1.000
 4988.00    1.83291   1.89285   -1.000
 4989.00    1.81533   1.89338   -1.000
 4990.00    1.78979   1.87142   -1.000
 4991.00    1.78848   1.85519   -1.000
 4992.00    1.80402   1.85742   -1.000
 4993.00    1.81889   1.86968   -1.000
 4994.00    1.82796   1.87977   -1.000
 4995.00    1.83454   1.88900   -1.000
 4996.00    1.84574   1.90283   -1.000
 4997.00    1.83840   1.90758   -1.000
 4998.00    1.81774   1.88689   -1.000
 4999.00    1.78136   1.84345   -1.000
 5000.00    1.75271   1.79566   -1.000
 5001.00    1.75227   1.76745  113.561
 5002.00    1.74970   1.76789  112.523
 5003.00    1.76532   1.78160  111.765
 5004.00    1.76859   1.77856  113.280
 5005.00    1.72364   1.74528   -1.000
 5006.00    1.68721   1.70646  116.888
 5007.00    1.71738   1.71086  114.150
 5008.00    1.78097   1.76600  110.679
 5009.00    1.82126   1.82664  109.410
 5010.00    1.81296   1.85171   -1.000
 5011.00    1.77945   1.82398   -1.000
 5012.00    1.71098   1.76326   -1.000
 5013.00    1.65747   1.70193   -1.000
 5014.00    1.64036   1.67581   -1.000
 5015.00    1.67532   1.68775  118.055
 5016.00    1.71176   1.71438  115.571
 5017.00    1.72397   1.73331  115.009
 5018.00    1.72194   1.74183  115.019
 5019.00    1.74099   1.75834  113.758
 5020.00    1.77181   1.78010  112.810
 5021.00    1.77458   1.78826  113.258
 5022.00    1.76009   1.78489   -1.000
 5023.00    1.76705   1.78921   -1.000
 5024.00    1.79449   1.81799   -1.000
 5025.00    1.81229   1.85134   -1.000
 5026.00    1.80445   1.85392   -1.000
 5027.00    1.77872   1.83496   -1.000
 5028.00    1.78573   1.82642   -1.000
 5029.00    1.82224   1.84190  108.952
 5030.00    1.85580   1.87845  107.377
 5031.00    1.87584   1.91998   -1.000
 5032.00    1.90619   1.95615   -1.000
 5033.00    1.93236   1.97464   -1.000
 5034.00    1.90007   1.95534   -1.000
 5035.00    1.83059   1.89928   -1.000
 5036.00    1.77947   1.84420   -1.000
 5037.00    1.76836   1.81570   -1.000
 5038.00    1.75759   1.80087   -1.000
 5039.00    1.71203   1.75633   -1.000
 5040.00    1.62947   1.68033   -1.000
 5041.00    1.58675   1.63315   -1.000
 5042.00    1.64398   1.66199  119.583
 5043.00    1.75428   1.76053  112.214
 5044.00    1.85498   1.87753  107.551
 5045.00    1.91497   1.95802   -1.000
 5046.00    1.97080   1.99239  101.238
 5047.00    1.83875   1.97864   -1.000
 5048.00    1.09576   1.92670   -1.000
 5049.00    0.24541   1.85929   -1.000
 5050.00    0.19538   1.81326   -1.000
 5051.00    1.46380   1.80337   -1.000
 5052.00    1.80324   1.82601  110.228
 5053.00    1.86056   1.87151  107.446
 5054.00    1.91383   1.92249  105.461
 5055.00    1.94108   1.95371  104.427
 5056.00    1.95236   1.97090  104.069
 5057.00    1.94957   1.98265   -1.000
 5058.00    1.95397   1.99341   -1.000
 5059.00    1.95588   2.00692   -1.000
 5060.00    1.96683   2.02004   -1.000
 5061.00    1.97577   2.02945   -1.000
 5062.00    1.96791   2.02482   -1.000
 5063.00    1.92954   1.98394   -1.000
 5064.00    1.85104   1.91558   -1.000
 5065.00    1.79590   1.86197   -1.000
 5066.00    1.81971   1.84508   -1.000
 5067.00    1.84368   1.85754  110.365
 5068.00    1.84954   1.87283  109.971
 5069.00    1.85927   1.88457   -1.000
 5070.00    1.88481   1.89831  108.738
 5071.00    1.88150   1.90235  109.570
 5072.00    1.85537   1.88850   -1.000
 5073.00    1.86068   1.87557  109.150
 5074.00    1.88965   1.88326  108.276
 5075.00    1.89325   1.90083  108.110
 5076.00    1.88599   1.91096  108.024
 5077.00    1.88593   1.90186  109.042
 5078.00    1.84103   1.86263  112.774
 5079.00    1.75679   1.79499   -1.000
 5080.00    1.70939   1.74225   -1.000
 5081.00    1.72748   1.73957  117.224
 5082.00    1.77563   1.76885  114.710
 5083.00    1.81343   1.80494  113.142
 5084.00    1.84599   1.83677  111.020
 5085.00    1.88415   1.87444  109.109
 5086.00    1.91066   1.91139  108.298
 5087.00    1.91773   1.93418  108.133
 5088.00    1.91804   1.94436   -1.000
 5089.00    1.92668   1.95160  106.826
 5090.00    1.93832   1.95958  106.231
 5091.00    1.94823   1.97222  105.680
 5092.00    1.96842   1.99303  104.476
 5093.00    1.99059   2.01571  103.528
 5094.00    1.98967   2.02092   -1.000
 5095.00    1.97186   1.99330  106.579
 5096.00    1.92013   1.93887  108.885
 5097.00    1.86626   1.87700  111.522
 5098.00    1.80870   1.82615  113.873
 5099.00    1.78895   1.80680  114.293
 5100.00    1.81951   1.83166  111.565
 5101.00    1.88832   1.88763  108.330
 5102.00    1.91719   1.93675  107.319
 5103.00    1.91738   1.94833   -1.000
 5104.00    1.89560   1.93530   -1.000
 5105.00    1.87926   1.91262   -1.000
 5106.00    1.85250   1.88496   -1.000
 5107.00    1.83071   1.85622  113.474
 5108.00    1.83298   1.83501  113.344
 5109.00    1.82590   1.82929  112.628
 5110.00    1.83789   1.84355  111.820
 5111.00    1.87408   1.87565  110.229
 5112.00    1.90564   1.91618  108.871
 5113.00    1.92817   1.94623  107.544
 5114.00    1.94458   1.96794  106.565
 5115.00    1.96203   1.98847   -1.000
 5116.00    1.97544   2.01011   -1.000
 5117.00    1.99457   2.02703   -1.000
 5118.00    2.00943   2.03204  104.271
 5119.00    1.99525   2.02178  105.615
 5120.00    1.96159   1.99500   -1.000
 5121.00    1.92146   1.95715   -1.000
 5122.00    1.87622   1.91341   -1.000
 5123.00    1.82733   1.86805   -1.000
 5124.00    1.79426   1.82923   -1.000
 5125.00    1.80104   1.81529  115.010
 5126.00    1.82753   1.82325  114.433
 5127.00    1.83715   1.83502  113.753
 5128.00    1.83335   1.83899  113.897
 5129.00    1.83364   1.84315  113.803
 5130.00    1.83884   1.85719  112.348
 5131.00    1.87084   1.88209  110.434
 5132.00    1.91244   1.90764  109.513
 5133.00    1.92390   1.92618  108.474
 5134.00    1.94010   1.94130  107.516
 5135.00    1.96163   1.95292  107.223
 5136.00    1.94108   1.94891  109.109
 5137.00    1.89272   1.91458  111.763
 5138.00    1.84656   1.86845  113.572
 5139.00    1.82006   1.84073  113.764
 5140.00    1.83944   1.83998  112.762
 5141.00    1.85090   1.84839  113.558
 5142.00    1.83326   1.84933  115.398
 5143.00    1.82552   1.85069   -1.000
 5144.00    1.85563   1.86509  112.867
 5145.00    1.87266   1.87835  112.440
 5146.00    1.85711   1.86812  113.467
 5147.00    1.84286   1.84778  113.769
 5148.00    1.86065   1.84757  112.402
 5149.00    1.87731   1.86772  111.750
 5150.00    1.87608   1.87503  113.095
 5151.00    1.84957   1.86132  115.159
 5152.00    1.81673   1.84408   -1.000
 5153.00    1.80889   1.83515   -1.000
 5154.00    1.83808   1.84299  113.207
 5155.00    1.88015   1.87321  110.337
 5156.00    1.93846   1.92268  107.528
 5157.00    1.99114   1.97049  105.500
 5158.00    2.01195   2.00326  104.699
 5159.00    2.01814   2.01690  104.669
 5160.00    2.01989   2.01666  105.014
 5161.00    2.00543   2.00400  105.615
 5162.00    1.97673   1.97463  106.798
 5163.00    1.94795   1.92876  108.450
 5164.00    1.90565   1.87008   -1.000
 5165.00    1.79571   1.77623  121.774
 5166.00    1.62905   1.63278  134.509
 5167.00    1.48911   1.49521  143.697
 5168.00    1.46408   1.44894  141.032
 5169.00    1.55961   1.51219   -1.000
 5170.00    1.62999   1.57786   -1.000
 5171.00    1.57599   1.54587   -1.000
 5172.00    1.44889   1.46133  148.880
 5173.00    1.44629   1.43473  143.056
 5174.00    1.60399   1.53839   -1.000
 5175.00    1.78778   1.71089   -1.000
 5176.00    1.88407   1.83855   -1.000
 5177.00    1.92338   1.90075  111.200
 5178.00    1.93478   1.91816  110.959
 5179.00    1.92953   1.91348  112.041
 5180.00    1.88882   1.87344  115.920
 5181.00    1.79454   1.76750   -1.000
 5182.00    1.62730   1.60517   -1.000
 5183.00    1.45587   1.45856  149.686
 5184.00    1.44235   1.42720  143.051
 5185.00    1.59971   1.53883   -1.000
 5186.00    1.80016   1.71263   -1.000
 5187.00    1.91070   1.84909   -1.000
 5188.00    1.93658   1.90554   -1.000
 5189.00    1.95027   1.92459  110.814
 5190.00    1.94802   1.91903   -1.000
 5191.00    1.89242   1.87672  115.524
 5192.00    1.82326   1.81905  118.737
 5193.00    1.81838   1.79630  117.898
 5194.00    1.84412   1.81405   -1.000
 5195.00    1.87871   1.84421   -1.000
 5196.00    1.90588   1.87255   -1.000
 5197.00    1.93692   1.90833  110.226
 5198.00    1.97003   1.95386  108.347
 5199.00    2.00712   1.99384  107.447
 5200.00    2.02840   2.01422  107.332
 5201.00    2.02071   2.01156  108.189
 5202.00    1.99405   1.98234  110.144
 5203.00    1.94276   1.92757  112.665
 5204.00    1.88467   1.85093   -1.000
 5205.00    1.82624   1.77467   -1.000
 5206.00    1.79004   1.72346   -1.000
 5207.00    1.78752   1.70755   -1.000
 5208.00    1.77899   1.71129   -1.000
 5209.00    1.78954   1.73318   -1.000
 5210.00    1.85139   1.78794   -1.000
 5211.00    1.93544   1.87465   -1.000
 5212.00    2.01371   1.96677   -1.000
 5213.00    2.05666   2.02627  104.724
 5214.00    2.04329   2.02961  105.853
 5215.00    1.99986   1.98722  108.359
 5216.00    1.95922   1.94427  109.698
 5217.00    1.97823   1.94451   -1.000
 5218.00    2.01878   1.98850  106.463
 5219.00    2.06972   2.04763  104.838
 5220.00    2.09108   2.09126  104.026
 5221.00    2.09635   2.11087  103.605
 5222.00    2.08562   2.10033  104.931
 5223.00    2.04273   2.05810  108.129
 5224.00    1.96037   1.98323   -1.000
 5225.00    1.86105   1.87878  117.883
 5226.00    1.79071   1.78253  121.180
 5227.00    1.79547   1.75494   -1.000
 5228.00    1.88950   1.81402   -1.000
 5229.00    1.98827   1.92515   -1.000
 5230.00    2.05460   2.00991   -1.000
 5231.00    2.06731   2.02823   -1.000
 5232.00    2.03494   1.99613   -1.000
 5233.00    1.98529   1.95132   -1.000
 5234.00    1.97743   1.93936   -1.000
 5235.00    2.00794   1.97756  106.678
 5236.00    2.05995   2.04166  104.123
 5237.00    2.10695   2.09998  102.942
 5238.00    2.12879   2.13214  102.843
 5239.00    2.12862   2.13721  103.170
 5240.00    2.13318   2.13099  102.990
 5241.00    2.14509   2.12157  102.382
 5242.00    2.14088   2.11487  102.534
 5243.00    2.13452   2.12015  102.326
 5244.00    2.14568   2.13515  102.162
 5245.00    2.13204   2.13201  104.204
 5246.00    2.06671   2.09292  107.479
 5247.00    2.00769   2.03838   -1.000
 5248.00    1.99918   1.99999  110.284
 5249.00    2.00303   1.98719  110.486
 5250.00    1.98751   1.98492  111.196
 5251.00    1.98745   1.99135  110.675
 5252.00    2.02079   2.01087  109.139
 5253.00    2.04324   2.02776  108.055
 5254.00    2.03607   2.02856  108.067
 5255.00    2.03595   2.03163  107.295
 5256.00    2.08376   2.06688  104.790
 5257.00    2.15306   2.12675  101.953
 5258.00    2.19668   2.17347  101.043
 5259.00    2.18877   2.17977  101.983
 5260.00    2.14308   2.13915  104.782
 5261.00    2.06026   2.05904  109.231
 5262.00    1.95942   1.95647  114.442
 5263.00    1.87164   1.85728  118.418
 5264.00    1.81036   1.77943   -1.000
 5265.00    1.78810   1.74183   -1.000
 5266.00    1.80925   1.75119   -1.000
 5267.00    1.85874   1.77835   -1.000
 5268.00    1.85229   1.77187   -1.000
 5269.00    1.76691   1.72163   -1.000
 5270.00    1.75142   1.68507   -1.000
 5271.00    1.85214   1.73871   -1.000
 5272.00    1.97561   1.85762   -1.000
 5273.00    2.02770   1.94167   -1.000
 5274.00    2.02491   1.96685   -1.000
 5275.00    2.01316   1.97700   -1.000
 5276.00    2.05288   2.01292   -1.000
 5277.00    2.13238   2.08081   -1.000
 5278.00    2.19607   2.14543   -1.000
 5279.00    2.20204   2.16601   -1.000
 5280.00    2.15407   2.13202  104.105
 5281.00    2.09488   2.07240  106.824
 5282.00    2.05452   2.01605   -1.000
 5283.00    2.02963   1.98532   -1.000
 5284.00    2.04468   2.00368   -1.000
 5285.00    2.13363   2.07583   -1.000
 5286.00    2.19145   2.16524  100.557
 5287.00    2.22742   2.22013   99.791
 5288.00    2.24619   2.23383  100.321
 5289.00    2.24223   2.23490  100.309
 5290.00    2.25809   2.24229   99.721
 5291.00    2.26236   2.24721   99.507
 5292.00    2.25049   2.24008  100.092
 5293.00    2.23237   2.22837  101.041
 5294.00    2.21324   2.21060  102.385
 5295.00    2.17918   2.17047  105.168
 5296.00    2.09433   2.09564  109.221
 5297.00    2.00385   2.01056  112.160
 5298.00    1.98464   1.96801  111.469
 5299.00    2.03130   1.99172   -1.000
 5300.00    2.09343   2.04289   -1.000
 5301.00    2.11892   2.08358   -1.000
 5302.00    2.13688   2.10982  104.623
 5303.00    2.19249   2.15067   -1.000
 5304.00    2.25121   2.20780   -1.000
 5305.00    2.27745   2.24488   -1.000
 5306.00    2.26610   2.24576  100.638
 5307.00    2.24862   2.22982  101.515
 5308.00    2.24668   2.22453  100.854
 5309.00    2.27645   2.24466   -1.000
 5310.00    2.30224   2.27041   -1.000
 5311.00    2.30568   2.27987   99.251
 5312.00    2.28930   2.27093   99.812
 5313.00    2.27014   2.25141  100.244
 5314.00    2.26150   2.22862   -1.000
 5315.00    2.24911   2.20283   -1.000
 5316.00    2.22017   2.17577   -1.000
 5317.00    2.20422   2.16487   -1.000
 5318.00    2.22412   2.17908   -1.000
 5319.00    2.24193   2.20302   -1.000
 5320.00    2.23770   2.21145  102.088
 5321.00    2.22853   2.19926   -1.000
 5322.00    2.20462   2.16934   -1.000
 5323.00    2.16119   2.12189   -1.000
 5324.00    2.12227   2.07559   -1.000
 5325.00    2.10968   2.03944   -1.000
 5326.00    2.08252   1.99197   -1.000
 5327.00    1.98324   1.90415   -1.000
 5328.00    1.88143   1.82002   -1.000
 5329.00    1.90350   1.82286   -1.000
 5330.00    2.03881   1.92617   -1.000
 5331.00    2.15217   2.05226   -1.000
 5332.00    2.19418   2.12548   -1.000
 5333.00    2.20609   2.15199   -1.000
 5334.00    2.23089   2.17784   -1.000
 5335.00    2.26437   2.20926   -1.000
 5336.00    2.25853   2.22238   -1.000
 5337.00    2.23612   2.21061  103.026
 5338.00    2.22007   2.17656   -1.000
 5339.00    2.16987   2.11891   -1.000
 5340.00    2.11609   2.05769   -1.000
 5341.00    2.10775   2.03759   -1.000
 5342.00    2.15746   2.07755   -1.000
 5343.00    2.21514   2.13991   -1.000
 5344.00    2.23649   2.17312   -1.000
 5345.00    2.22456   2.16791   -1.000
 5346.00    2.21190   2.14589   -1.000
 5347.00    2.20322   2.12447   -1.000
 5348.00    2.17823   2.10988   -1.000
 5349.00    2.16495   2.10614   -1.000
 5350.00    2.20172   2.12780   -1.000
 5351.00    2.26035   2.17288   -1.000
 5352.00    2.29432   2.22104   -1.000
 5353.00    2.29874   2.25138   -1.000
 5354.00    2.31665   2.27090   -1.000
 5355.00    2.35003   2.29688   -1.000
 5356.00    2.36524   2.32063   -1.000
 5357.00    2.36864   2.33129   -1.000
 5358.00    2.37126   2.32964   -1.000
 5359.00    2.36151   2.32173   -1.000
 5360.00    2.34228   2.30476   -1.000
 5361.00    2.30861   2.27513   -1.000
 5362.00    2.27304   2.24089   -1.000
 5363.00    2.23227   2.20885  103.182
 5364.00    2.21012   2.18131   -1.000
 5365.00    2.21232   2.16205   -1.000
 5366.00    2.21821   2.15370   -1.000
 5367.00    2.22214   2.15533   -1.000
 5368.00    2.20972   2.14210   -1.000
 5369.00    2.16227   2.09305   -1.000
 5370.00    2.09151   2.02130   -1.000
 5371.00    2.05670   1.97205   -1.000
 5372.00    2.11128   1.99276   -1.000
 5373.00    2.22621   2.08053   -1.000
 5374.00    2.31326   2.18510   -1.000
 5375.00    2.34930   2.25135   -1.000
 5376.00    2.34740   2.27094   -1.000
 5377.00    2.33416   2.26732   -1.000
 5378.00    2.32764   2.26318   -1.000
 5379.00    2.32245   2.26091   -1.000
 5380.00    2.31270   2.25124   -1.000
 5381.00    2.28729   2.23035   -1.000
 5382.00    2.27259   2.20704   -1.000
 5383.00    2.26529   2.19342   -1.000
 5384.00    2.28943   2.20117   -1.000
 5385.00    2.31852   2.22864   -1.000
 5386.00    2.32348   2.25754   -1.000
 5387.00    2.31263   2.26476   -1.000
 5388.00    2.28925   2.24658   -1.000
 5389.00    2.25565   2.21238   -1.000
 5390.00    2.23224   2.17584   -1.000
 5391.00    2.21591   2.15010   -1.000
 5392.00    2.20640   2.13529   -1.000
 5393.00    2.19472   2.12953   -1.000
 5394.00    2.19239   2.12780   -1.000
 5395.00    2.18272   2.11010   -1.000
 5396.00    2.14267   2.07112   -1.000
 5397.00    2.10690   2.03709   -1.000
 5398.00    2.14583   2.04292   -1.000
 5399.00    2.21192   2.09652   -1.000
 5400.00    2.23792   2.15490   -1.000
 5401.00    2.24615   2.18506   -1.000
 5402.00    2.24376   2.18291   -1.000
 5403.00    2.20040   2.13992   -1.000
 5404.00    2.10870   2.05757   -1.000
 5405.00    2.04874   1.97974   -1.000
 5406.00    2.05774   1.96447   -1.000
 5407.00    2.12089   2.00900   -1.000
 5408.00    2.15992   2.05986   -1.000
 5409.00    2.14154   2.07246   -1.000
 5410.00    2.14622   2.06683   -1.000
 5411.00    2.19881   2.09591   -1.000
 5412.00    2.26480   2.15596   -1.000
 5413.00    2.30091   2.20439   -1.000
 5414.00    2.29456   2.21944   -1.000
 5415.00    2.28331   2.22239   -1.000
 5416.00    2.29785   2.24411   -1.000
 5417.00    2.32939   2.27299   -1.000
 5418.00    2.32932   2.28390   -1.000
 5419.00    2.29040   2.27277  102.369
 5420.00    2.26976   2.25498  102.974
 5421.00    2.28238   2.24521   -1.000
 5422.00    2.29556   2.23695   -1.000
 5423.00    2.27937   2.21605   -1.000
 5424.00    2.25024   2.19634   -1.000
 5425.00    2.26718   2.20704   -1.000
 5426.00    2.31559   2.25225   -1.000
 5427.00    2.33300   2.28061   -1.000
 5428.00    2.27829   2.23992   -1.000
 5429.00    2.19692   2.15856   -1.000
 5430.00    2.16379   2.10708   -1.000
 5431.00    2.21300   2.11683   -1.000
 5432.00    2.23406   2.14689   -1.000
 5433.00    2.20638   2.13992   -1.000
 5434.00    2.17037   2.10618   -1.000
 5435.00    2.16738   2.09208   -1.000
 5436.00    2.20159   2.12351   -1.000
 5437.00    2.26364   2.19404   -1.000
 5438.00    2.33257   2.26980   -1.000
 5439.00    2.38317   2.32421   -1.000
 5440.00    2.41921   2.34858   -1.000
 5441.00    2.41030   2.36021   -1.000
 5442.00    2.40919   2.36414   -1.000
 5443.00    2.38435   2.34935   -1.000
 5444.00    2.33415   2.29947   -1.000
 5445.00    2.24377   2.21107   -1.000
 5446.00    2.15457   2.12008   -1.000
 5447.00    2.14271   2.08103   -1.000
 5448.00    2.20877   2.11595   -1.000
 5449.00    2.29183   2.19864   -1.000
 5450.00    2.33873   2.26439   -1.000
 5451.00    2.34877   2.28865   -1.000
 5452.00    2.33343   2.27986   -1.000
 5453.00    2.29383   2.23980   -1.000
 5454.00    2.22774   2.17252   -1.000
 5455.00    2.16813   2.10732   -1.000
 5456.00    2.18800   2.09363   -1.000
 5457.00    2.27584   2.15740   -1.000
 5458.00    2.34818   2.24823   -1.000
 5459.00    2.36828   2.29875   -1.000
 5460.00    2.34949   2.29442   -1.000
 5461.00    2.31350   2.25314   -1.000
 5462.00    2.27077   2.20325   -1.000
 5463.00    2.24491   2.17451   -1.000
 5464.00    2.26769   2.18339   -1.000
 5465.00    2.31077   2.21742   -1.000
 5466.00    2.32848   2.25109   -1.000
 5467.00    2.33423   2.27143   -1.000
 5468.00    2.34927   2.28243   -1.000
 5469.00    2.34919   2.28350   -1.000
 5470.00    2.33113   2.27205   -1.000
 5471.00    2.31543   2.25529   -1.000
 5472.00    2.30680   2.24032   -1.000
 5473.00    2.28908   2.22454   -1.000
 5474.00    2.25836   2.19642   -1.000
 5475.00    2.23254   2.14835   -1.000
 5476.00    2.17539   2.09704   -1.000
 5477.00    2.15621   2.08204   -1.000
 5478.00    2.22801   2.12466   -1.000
 5479.00    2.29504   2.18681   -1.000
 5480.00    2.28539   2.21247   -1.000
 5481.00    2.23836   2.19488   -1.000
 5482.00    2.23687   2.18187   -1.000
 5483.00    2.26100   2.20916   -1.000
 5484.00    2.31345   2.26175   -1.000
 5485.00    2.34572   2.29896   -1.000
 5486.00    2.33401   2.29563   -1.000
 5487.00    2.28340   2.26324  105.252
 5488.00    2.26839   2.23538   -1.000
 5489.00    2.28627   2.23475   -1.000
 5490.00    2.30593   2.25742   -1.000
 5491.00    2.33437   2.27671   -1.000
 5492.00    2.34778   2.28336   -1.000
 5493.00    2.33416   2.28054   -1.000
 5494.00    2.33264   2.27831   -1.000
 5495.00    2.35117   2.27690   -1.000
 5496.00    2.34116   2.26605   -1.000
 5497.00    2.32181   2.25165   -1.000
 5498.00    2.33591   2.25211   -1.000
 5499.00    2.37227   2.26705   -1.000
 5500.00    2.37561   2.27075   -1.000
 5501.00    2.33102   2.24451   -1.000
 5502.00    2.30575   2.21328   -1.000
 5503.00    2.32121   2.21197   -1.000
 5504.00    2.33293   2.22154   -1.000
 5505.00    2.31209   2.21463   -1.000
 5506.00    2.26977   2.19271   -1.000
 5507.00    2.26972   2.18418   -1.000
 5508.00    2.31901   2.21148   -1.000
 5509.00    2.34454   2.24844   -1.000
 5510.00    2.33264   2.25706   -1.000
 5511.00    2.29829   2.22947   -1.000
 5512.00    2.25389   2.18585   -1.000
 5513.00    2.23307   2.15528   -1.000
 5514.00    2.25568   2.15683   -1.000
 5515.00    2.28755   2.18447   -1.000
 5516.00    2.33369   2.22213   -1.000
 5517.00    2.36729   2.26264   -1.000
 5518.00    2.40819   2.30220   -1.000
 5519.00    2.43225   2.33301   -1.000
 5520.00    2.43766   2.34333   -1.000
 5521.00    2.42581   2.33876   -1.000
 5522.00    2.41623   2.33459   -1.000
 5523.00    2.40810   2.33504   -1.000
 5524.00    2.39837   2.32967   -1.000
 5525.00    2.36826   2.30296   -1.000
 5526.00    2.32494   2.25118   -1.000
 5527.00    2.27312   2.18710   -1.000
 5528.00    2.23799   2.14479   -1.000
 5529.00    2.26390   2.16010   -1.000
 5530.00    2.33430   2.22450   -1.000
 5531.00    2.38667   2.28751   -1.000
 5532.00    2.38396   2.31006   -1.000
 5533.00    2.36388   2.30061   -1.000
 5534.00    2.33616   2.28194   -1.000
 5535.00    2.32880   2.26982   -1.000
 5536.00    2.34345   2.27160   -1.000
 5537.00    2.36648   2.28628   -1.000
 5538.00    2.37786   2.30143   -1.000
 5539.00    2.41213   2.31603   -1.000
 5540.00    2.44502   2.33722   -1.000
 5541.00    2.45321   2.35193   -1.000
 5542.00    2.42687   2.34421   -1.000
 5543.00    2.39321   2.32247   -1.000
 5544.00    2.38825   2.30708   -1.000
 5545.00    2.39137   2.30749   -1.000
 5546.00    2.39994   2.31711   -1.000
 5547.00    2.41709   2.33122   -1.000
 5548.00    2.44870   2.35613   -1.000
 5549.00    2.47585   2.38209   -1.000
 5550.00    2.48110   2.39356   -1.000
 5551.00    2.47604   2.39066   -1.000
 5552.00    2.46132   2.37529   -1.000
 5553.00    2.43545   2.35099   -1.000
 5554.00    2.41060   2.33212   -1.000
 5555.00    2.41932   2.32887   -1.000
 5556.00    2.42915   2.33700   -1.000
 5557.00    2.42798   2.34292   -1.000
 5558.00    2.43343   2.34459   -1.000
 5559.00    2.43860   2.34872   -1.000
 5560.00    2.43417   2.35003   -1.000
 5561.00    2.42523   2.33803   -1.000
 5562.00    2.40448   2.31550   -1.000
 5563.00    2.38682   2.29830   -1.000
 5564.00    2.37692   2.29096   -1.000
 5565.00    2.37186   2.28643   -1.000
 5566.00    2.37432   2.27909   -1.000
 5567.00    2.37437   2.27178   -1.000
 5568.00    2.38049   2.26926   -1.000
 5569.00    2.37522   2.27104   -1.000
 5570.00    2.37886   2.27440   -1.000
 5571.00    2.38527   2.27461   -1.000
 5572.00    2.36697   2.26787   -1.000
 5573.00    2.36396   2.25907   -1.000
 5574.00    2.39485   2.26804   -1.000
 5575.00    2.37793   2.29504   -1.000
 5576.00    2.32775   2.31187  102.222
 5577.00    2.30492   2.31879  100.515
 5578.00    2.33422   2.33188  102.345
 5579.00    2.42134   2.34675   -1.000
 5580.00    2.46042   2.35220   -1.000
 5581.00    2.44841   2.34823   -1.000
 5582.00    2.43511   2.33907   -1.000
 5583.00    2.43419   2.33206   -1.000
 5584.00    2.42545   2.32164   -1.000
 5585.00    2.37833   2.28719   -1.000
 5586.00    2.30788   2.21848   -1.000
 5587.00    2.24664   2.14296   -1.000
 5588.00    2.22201   2.10406   -1.000
 5589.00    2.23684   2.11143   -1.000
 5590.00    2.28056   2.15195   -1.000
 5591.00    2.32069   2.20160   -1.000
 5592.00    2.33273   2.23378   -1.000
 5593.00    2.33090   2.24281   -1.000
 5594.00    2.34029   2.24925   -1.000
 5595.00    2.37217   2.27169   -1.000
 5596.00    2.41177   2.30146   -1.000
 5597.00    2.40941   2.30723   -1.000
 5598.00    2.35958   2.27640   -1.000
 5599.00    2.32827   2.23769   -1.000
 5600.00    2.31781   2.21532   -1.000
 5601.00    2.30365   2.19593   -1.000
 5602.00    2.29680   2.18471   -1.000
 5603.00    2.32161   2.20963   -1.000
 5604.00    2.38891   2.27379   -1.000
 5605.00    2.46156   2.34881   -1.000
 5606.00    2.49938   2.40309   -1.000
 5607.00    2.51276   2.42701   -1.000
 5608.00    2.50341   2.43086   -1.000
 5609.00    2.50195   2.42747   -1.000
 5610.00    2.51334   2.42867   -1.000
 5611.00    2.51226   2.43730   -1.000
 5612.00    2.51178   2.43558   -1.000
 5613.00    2.47688   2.39535   -1.000
 5614.00    2.39145   2.31082   -1.000
 5615.00    2.30148   2.22035   -1.000
 5616.00    2.30222   2.18318   -1.000
 5617.00    2.35355   2.22167   -1.000
 5618.00    2.40921   2.28372   -1.000
 5619.00    2.42268   2.31867   -1.000
 5620.00    2.43811   2.33644   -1.000
 5621.00    2.45118   2.35397   -1.000
 5622.00    2.45673   2.35701   -1.000
 5623.00    2.42035   2.32741   -1.000
 5624.00    2.36542   2.27927   -1.000
 5625.00    2.34978   2.25235   -1.000
 5626.00    2.38636   2.27250   -1.000
 5627.00    2.43027   2.31774   -1.000
 5628.00    2.46548   2.36059   -1.000
 5629.00    2.49102   2.39262   -1.000
 5630.00    2.50949   2.41478   -1.000
 5631.00    2.51970   2.42149   -1.000
 5632.00    2.51541   2.41187   -1.000
 5633.00    2.50741   2.39479   -1.000
 5634.00    2.49270   2.37579   -1.000
 5635.00    2.46116   2.35359   -1.000
 5636.00    2.43195   2.33425   -1.000
 5637.00    2.41299   2.32204   -1.000
 5638.00    2.41373   2.32100   -1.000
 5639.00    2.42251   2.32853   -1.000
 5640.00    2.41824   2.33049   -1.000
 5641.00    2.41011   2.32021   -1.000
 5642.00    2.41068   2.31505   -1.000
 5643.00    2.42375   2.32537   -1.000
 5644.00    2.43990   2.33893   -1.000
 5645.00    2.45760   2.35118   -1.000
 5646.00    2.46721   2.36277   -1.000
 5647.00    2.46570   2.36890   -1.000
 5648.00    2.46501   2.36640   -1.000
 5649.00    2.46804   2.35933   -1.000
 5650.00    2.47113   2.35775   -1.000
 5651.00    2.48593   2.36993   -1.000
 5652.00    2.49845   2.38333   -1.000
 5653.00    2.48452   2.37890   -1.000
 5654.00    2.46250   2.36023   -1.000
 5655.00    2.43721   2.34064   -1.000
 5656.00    2.40783   2.31700   -1.000
 5657.00    2.34951   2.27675   -1.000
 5658.00    2.29075   2.22849   -1.000
 5659.00    2.30153   2.21129   -1.000
 5660.00    2.36067   2.24156   -1.000
 5661.00    2.39593   2.27661   -1.000
 5662.00    2.38157   2.28923   -1.000
 5663.00    2.39471   2.29969   -1.000
 5664.00    2.42843   2.32834   -1.000
 5665.00    2.45572   2.35973   -1.000
 5666.00    2.44952   2.36833   -1.000
 5667.00    2.42851   2.35509   -1.000
 5668.00    2.41888   2.34267   -1.000
 5669.00    2.42738   2.34390   -1.000
 5670.00    2.43465   2.35545   -1.000
 5671.00    2.45516   2.37421   -1.000
 5672.00    2.48206   2.39952   -1.000
 5673.00    2.50836   2.42166   -1.000
 5674.00    2.52910   2.43161   -1.000
 5675.00    2.52434   2.42982   -1.000
 5676.00    2.52844   2.42718   -1.000
 5677.00    2.53875   2.43049   -1.000
 5678.00    2.52625   2.43023   -1.000
 5679.00    2.51107   2.41814   -1.000
 5680.00    2.50093   2.39849   -1.000
 5681.00    2.47272   2.37126   -1.000
 5682.00    2.44378   2.33807   -1.000
 5683.00    2.42200   2.31708   -1.000
 5684.00    2.42965   2.32317   -1.000
 5685.00    2.43949   2.34074   -1.000
 5686.00    2.42847   2.34325   -1.000
 5687.00    2.40113   2.32908   -1.000
 5688.00    2.39149   2.31836   -1.000
 5689.00    2.42745   2.32765   -1.000
 5690.00    2.46963   2.35835   -1.000
 5691.00    2.50637   2.39513   -1.000
 5692.00    2.53115   2.42143   -1.000
 5693.00    2.53696   2.43272   -1.000
 5694.00    2.53115   2.43308   -1.000
 5695.00    2.52912   2.43048   -1.000
 5696.00    2.52551   2.42509   -1.000
 5697.00    2.50066   2.41363   -1.000
 5698.00    2.47265   2.39255   -1.000
 5699.00    2.44553   2.36787   -1.000
 5700.00    2.41220   2.34510   -1.000
 5701.00    2.39198   2.32688   -1.000
 5702.00    2.39276   2.32569   -1.000
 5703.00    2.40110   2.34293   -1.000
 5704.00    2.41508   2.36014   -1.000
 5705.00    2.40703   2.35762   -1.000
 5706.00    2.37659   2.33049   -1.000
 5707.00    2.34515   2.29299   -1.000
 5708.00    2.30730   2.25849   -1.000
 5709.00    2.29352   2.23122   -1.000
 5710.00    2.30914   2.22335   -1.000
 5711.00    2.32912   2.23929   -1.000
 5712.00    2.37017   2.27597   -1.000
 5713.00    2.42781   2.33109   -1.000
 5714.00    2.48343   2.38222   -1.000
 5715.00    2.51323   2.41107   -1.000
 5716.00    2.52247   2.42331   -1.000
 5717.00    2.52637   2.43254   -1.000
 5718.00    2.53293   2.44198   -1.000
 5719.00    2.55302   2.45490   -1.000
 5720.00    2.56570   2.47189   -1.000
 5721.00    2.58468   2.48887   -1.000
 5722.00    2.59279   2.50185   -1.000
 5723.00    2.59455   2.50850   -1.000
 5724.00    2.59183   2.50651   -1.000
 5725.00    2.56935   2.49062   -1.000
 5726.00    2.53827   2.46274   -1.000
 5727.00    2.51738   2.44113   -1.000
 5728.00    2.52711   2.44310   -1.000
 5729.00    2.54734   2.45777   -1.000
 5730.00    2.53880   2.46143   -1.000
 5731.00    2.52129   2.44996   -1.000
 5732.00    2.53124   2.44353   -1.000
 5733.00    2.56080   2.45929   -1.000
 5734.00    2.58314   2.48658   -1.000
 5735.00    2.58837   2.50053   -1.000
 5736.00    2.58034   2.49672   -1.000
 5737.00    2.57171   2.48589   -1.000
 5738.00    2.55750   2.48050   -1.000
 5739.00    2.54687   2.48341   -1.000
 5740.00    2.55090   2.48541   -1.000
 5741.00    2.55512   2.48138   -1.000
 5742.00    2.55298   2.47390   -1.000
 5743.00    2.54241   2.47566   -1.000
 5744.00    2.55236   2.49010   -1.000
 5745.00    2.57315   2.50507   -1.000
 5746.00    2.56684   2.50248   -1.000
 5747.00    2.54545   2.48089   -1.000
 5748.00    2.53362   2.46594   -1.000
 5749.00    2.54533   2.47483   -1.000
 5750.00    2.57196   2.48926   -1.000
 5751.00    2.55102   2.48089   -1.000
 5752.00    2.50372   2.44187   -1.000
 5753.00    2.46991   2.40075   -1.000
 5754.00    2.47339   2.39024   -1.000
 5755.00    2.51666   2.42211   -1.000
 5756.00    2.56723   2.47523   -1.000
 5757.00    2.60281   2.51422   -1.000
 5758.00    2.60525   2.52475   -1.000
 5759.00    2.58533   2.50837   -1.000
 5760.00    2.54535   2.47376   -1.000
 5761.00    2.50493   2.43301   -1.000
 5762.00    2.48351   2.40515   -1.000
 5763.00    2.50626   2.41189   -1.000
 5764.00    2.54231   2.45472   -1.000
 5765.00    2.58892   2.50639   -1.000
 5766.00    2.61383   2.53694   -1.000
 5767.00    2.61428   2.54564   -1.000
 5768.00    2.62156   2.54303   -1.000
 5769.00    2.60311   2.53596   -1.000
 5770.00    2.59027   2.52778   -1.000
 5771.00    2.57187   2.51827   -1.000
 5772.00    2.54875   2.50458   -1.000
 5773.00    2.53490   2.49055   -1.000
 5774.00    2.53539   2.48384   -1.000
 5775.00    2.53054   2.48600   -1.000
 5776.00    2.52939   2.49893   -1.000
 5777.00    2.51376   2.50995  102.140
 5778.00    2.45826   2.49925   -1.000
 5779.00    2.37550   2.46175   -1.000
 5780.00    2.29717   2.40867   -1.000
 5781.00    2.27785   2.36185   -1.000
 5782.00    2.32098   2.34144  107.504
 5783.00    2.37723   2.34667   -1.000
 5784.00    2.40997   2.35398   -1.000
 5785.00    2.43044   2.35797   -1.000
 5786.00    2.46755   2.37864   -1.000
 5787.00    2.51164   2.41967   -1.000
 5788.00    2.53713   2.45650   -1.000
 5789.00    2.54800   2.47015   -1.000
 5790.00    2.54803   2.46249   -1.000
 5791.00    2.54184   2.45290   -1.000
 5792.00    2.55113   2.46260   -1.000
 5793.00    2.56280   2.49210   -1.000
 5794.00    2.56055   2.52260   -1.000
 5795.00    2.55477   2.53941  101.125
 5796.00    2.53739   2.53307  101.763
 5797.00    2.51342   2.50984  102.414
 5798.00    2.52941   2.49790   -1.000
 5799.00    2.59355   2.51612   -1.000
 5800.00    2.64547   2.55215   -1.000
 5801.00    2.66688   2.57704   -1.000
 5802.00    2.65475   2.57876   -1.000
 5803.00    2.62200   2.55980   -1.000
 5804.00    2.59652   2.53034   -1.000
 5805.00    2.57632   2.50956   -1.000
 5806.00    2.56945   2.50708   -1.000
 5807.00    2.59023   2.51697   -1.000
 5808.00    2.60220   2.52807   -1.000
 5809.00    2.60878   2.53730   -1.000
 5810.00    2.62117   2.54804   -1.000
 5811.00    2.62955   2.55687   -1.000
 5812.00    2.63505   2.55666   -1.000
 5813.00    2.63277   2.54659   -1.000
 5814.00    2.62031   2.52702   -1.000
 5815.00    2.60135   2.50170   -1.000
 5816.00    2.59690   2.48868   -1.000
 5817.00    2.62107   2.50521   -1.000
 5818.00    2.65086   2.54102   -1.000
 5819.00    2.66917   2.57115   -1.000
 5820.00    2.68579   2.57995   -1.000
 5821.00    2.68056   2.57453   -1.000
 5822.00    2.67349   2.56686   -1.000
 5823.00    2.68085   2.56439   -1.000
 5824.00    2.68420   2.56670   -1.000
 5825.00    2.68076   2.56886   -1.000
 5826.00    2.67791   2.57213   -1.000
 5827.00    2.67713   2.57605   -1.000
 5828.00    2.67837   2.58091   -1.000
 5829.00    2.67785   2.58513   -1.000
 5830.00    2.67781   2.58627   -1.000
 5831.00    2.68530   2.58412   -1.000
 5832.00    2.68289   2.57881   -1.000
 5833.00    2.68085   2.56954   -1.000
 5834.00    2.67109   2.55860   -1.000
 5835.00    2.66433   2.55407   -1.000
 5836.00    2.67636   2.55927   -1.000
 5837.00    2.67699   2.56508   -1.000
 5838.00    2.66631   2.56602   -1.000
 5839.00    2.67433   2.57055   -1.000
 5840.00    2.68802   2.58245   -1.000
 5841.00    2.68441   2.59699   -1.000
 5842.00    2.69467   2.60328   -1.000
 5843.00    2.69706   2.59801   -1.000
 5844.00    2.67002   2.58562   -1.000
 5845.00    2.65306   2.56815   -1.000
 5846.00    2.64402   2.54790   -1.000
 5847.00    2.63598   2.53319   -1.000
 5848.00    2.63404   2.53134   -1.000
 5849.00    2.63852   2.53813   -1.000
 5850.00    2.63060   2.53745   -1.000
 5851.00    2.61444   2.52066   -1.000
 5852.00    2.58873   2.49444   -1.000
 5853.00    2.57827   2.47444   -1.000
 5854.00    2.57724   2.46693   -1.000
 5855.00    2.57393   2.46031   -1.000
 5856.00    2.55512   2.43343   -1.000
 5857.00    2.51839   2.39104   -1.000
 5858.00    2.52075   2.37398   -1.000
 5859.00    2.55700   2.40253   -1.000
 5860.00    2.59188   2.44931   -1.000
 5861.00    2.61460   2.48136   -1.000
 5862.00    2.60963   2.49352   -1.000
 5863.00    2.62041   2.49894   -1.000
 5864.00    2.62744   2.50727   -1.000
 5865.00    2.62431   2.50498   -1.000
 5866.00    2.60812   2.48870   -1.000
 5867.00    2.61077   2.47941   -1.000
 5868.00    2.63649   2.49456   -1.000
 5869.00    2.66258   2.52517   -1.000
 5870.00    2.67325   2.55032   -1.000
 5871.00    2.66800   2.55818   -1.000
 5872.00    2.66454   2.55098   -1.000
 5873.00    2.65802   2.54141   -1.000
 5874.00    2.66084   2.53780   -1.000
 5875.00    2.66106   2.53787   -1.000
 5876.00    2.65512   2.53210   -1.000
 5877.00    2.64213   2.51817   -1.000
 5878.00    2.63387   2.50020   -1.000
 5879.00    2.60949   2.48230   -1.000
 5880.00    2.58767   2.47097   -1.000
 5881.00    2.58289   2.46926   -1.000
 5882.00    2.59277   2.46952   -1.000
 5883.00    2.57564   2.45995   -1.000
 5884.00    2.55067   2.44669   -1.000
 5885.00    2.51838   2.43846   -1.000
 5886.00    2.42594   2.41395  105.227
 5887.00    2.20943   2.32763   -1.000
 5888.00    1.86605   2.15999   -1.000
 5889.00    1.55680   1.96062   -1.000
 5890.00    1.52723   1.84460   -1.000
 5891.00    1.74509   1.88832   -1.000
 5892.00    1.93818   2.01518   -1.000
 5893.00    1.94813   2.09802   -1.000
 5894.00    1.80238   2.08739   -1.000
 5895.00    1.66294   2.01199   -1.000
 5896.00    1.72384   1.96909   -1.000
 5897.00    1.96078   2.03332   -1.000
 5898.00    2.18275   2.16206  111.669
 5899.00    2.32230   2.27230   -1.000
 5900.00    2.43296   2.34738   -1.000
 5901.00    2.52496   2.40434   -1.000
 5902.00    2.56926   2.44205   -1.000
 5903.00    2.59125   2.46148   -1.000
 5904.00    2.60104   2.46807   -1.000
 5905.00    2.59661   2.46756   -1.000
 5906.00    2.59852   2.47078   -1.000
 5907.00    2.61339   2.48127   -1.000
 5908.00    2.61646   2.49319   -1.000
 5909.00    2.60550   2.50283   -1.000
 5910.00    2.60810   2.51132   -1.000
 5911.00    2.61214   2.51424   -1.000
 5912.00    2.60397   2.50285   -1.000
 5913.00    2.57178   2.47226   -1.000
 5914.00    2.54060   2.43802   -1.000
 5915.00    2.53142   2.42430   -1.000
 5916.00    2.54796   2.43401   -1.000
 5917.00    2.56713   2.45683   -1.000
 5918.00    2.57958   2.48455   -1.000
 5919.00    2.59585   2.50509   -1.000
 5920.00    2.59682   2.51227   -1.000
 5921.00    2.60270   2.50960   -1.000
 5922.00    2.59457   2.50294   -1.000
 5923.00    2.59581   2.50203   -1.000
 5924.00    2.60857   2.51195   -1.000
 5925.00    2.62107   2.52717   -1.000
 5926.00    2.63818   2.53711   -1.000
 5927.00    2.63566   2.53029   -1.000
 5928.00    2.61704   2.50569   -1.000
 5929.00    2.60201   2.48033   -1.000
 5930.00    2.60720   2.47228   -1.000
 5931.00    2.62491   2.48901   -1.000
 5932.00    2.63316   2.51088   -1.000
 5933.00    2.63201   2.51274   -1.000
 5934.00    2.61420   2.50024   -1.000
 5935.00    2.61453   2.49902   -1.000
 5936.00    2.62554   2.51862   -1.000
 5937.00    2.64128   2.53986   -1.000
 5938.00    2.64951   2.54722   -1.000
 5939.00    2.64520   2.54021   -1.000
 5940.00    2.62893   2.52148   -1.000
 5941.00    2.59802   2.50084   -1.000
 5942.00    2.58945   2.49460   -1.000
 5943.00    2.60058   2.50621   -1.000
 5944.00    2.62529   2.52502   -1.000
 5945.00    2.64526   2.53940   -1.000
 5946.00    2.63874   2.53961   -1.000
 5947.00    2.61052   2.52272   -1.000
 5948.00    2.59159   2.50049   -1.000
 5949.00    2.58708   2.49406   -1.000
 5950.00    2.59696   2.50531   -1.000
 5951.00    2.60937   2.51313   -1.000
 5952.00    2.61169   2.50452   -1.000
 5953.00    2.61025   2.49418   -1.000
 5954.00    2.61439   2.50030   -1.000
 5955.00    2.62129   2.50839   -1.000
 5956.00    2.60957   2.50025   -1.000
 5957.00    2.59491   2.49083   -1.000
 5958.00    2.61254   2.49772   -1.000
 5959.00    2.64583   2.52115   -1.000
 5960.00    2.66757   2.54922   -1.000
 5961.00    2.68704   2.56739   -1.000
 5962.00    2.69537   2.57260   -1.000
 5963.00    2.69175   2.56829   -1.000
 5964.00    2.68659   2.55695   -1.000
 5965.00    2.66151   2.54381   -1.000
 5966.00    2.64551   2.53866   -1.000
 5967.00    2.65604   2.54677   -1.000
 5968.00    2.66862   2.55963   -1.000
 5969.00    2.67987   2.57096   -1.000
 5970.00    2.69608   2.58276   -1.000
 5971.00    2.70244   2.59113   -1.000
 5972.00    2.69927   2.59210   -1.000
 5973.00    2.68829   2.58496   -1.000
 5974.00    2.66362   2.56663   -1.000
 5975.00    2.63248   2.53760   -1.000
 5976.00    2.61129   2.50910   -1.000
 5977.00    2.60246   2.49669   -1.000
 5978.00    2.61648   2.50512   -1.000
 5979.00    2.63697   2.52844   -1.000
 5980.00    2.65368   2.55285   -1.000
 5981.00    2.66511   2.56021   -1.000
 5982.00    2.64169   2.53967   -1.000
 5983.00    2.60896   2.50219   -1.000
 5984.00    2.58878   2.47412   -1.000
 5985.00    2.59364   2.47785   -1.000
 5986.00    2.61888   2.50397   -1.000
 5987.00    2.63763   2.52787   -1.000
 5988.00    2.65959   2.54457   -1.000
 5989.00    2.66838   2.55583   -1.000
 5990.00    2.65703   2.55847   -1.000
 5991.00    2.65720   2.55738   -1.000
 5992.00    2.66328   2.56509   -1.000
 5993.00    2.68710   2.58684   -1.000
 5994.00    2.69889   2.60321   -1.000
 5995.00    2.69302   2.59569   -1.000
 5996.00    2.68461   2.57085   -1.000
 5997.00    2.65987   2.54573   -1.000
 5998.00    2.64895   2.53619   -1.000
 5999.00    2.64792   2.54516   -1.000
 6000.00    2.66542   2.55698   -1.000
 6001.00    2.66600   2.55819   -1.000
 6002.00    2.64787   2.54749   -1.000
 6003.00    2.63652   2.53779   -1.000
 6004.00    2.63613   2.54264   -1.000
 6005.00    2.63172   2.54523   -1.000
 6006.00    2.61966   2.52529   -1.000
 6007.00    2.58812   2.49355   -1.000
 6008.00    2.57563   2.48000   -1.000
 6009.00    2.59662   2.50399   -1.000
 6010.00    2.62548   2.54341   -1.000
 6011.00    2.64415   2.55837   -1.000
 6012.00    2.63578   2.54484   -1.000
 6013.00    2.62733   2.52707   -1.000
 6014.00    2.63352   2.52220   -1.000
 6015.00    2.63705   2.52583   -1.000
 6016.00    2.63106   2.52422   -1.000
 6017.00    2.62703   2.52216   -1.000
 6018.00    2.63162   2.52246   -1.000
 6019.00    2.61133   2.51241   -1.000
 6020.00    2.60048   2.49566   -1.000
 6021.00    2.61439   2.49136   -1.000
 6022.00    2.62390   2.50251   -1.000
 6023.00    2.63851   2.51715   -1.000
 6024.00    2.65171   2.53141   -1.000
 6025.00    2.66218   2.55225   -1.000
 6026.00    2.67972   2.57333   -1.000
 6027.00    2.69337   2.58660   -1.000
 6028.00    2.70173   2.60023   -1.000
 6029.00    2.71923   2.61522   -1.000
 6030.00    2.72342   2.62354   -1.000
 6031.00    2.72199   2.62700   -1.000
 6032.00    2.73448   2.63213   -1.000
 6033.00    2.74077   2.64348   -1.000
 6034.00    2.73515   2.66009   -1.000
 6035.00    2.72492   2.66884   -1.000
 6036.00    2.72656   2.66430   -1.000
 6037.00    2.72832   2.65409   -1.000
 6038.00    2.72079   2.64096   -1.000
 6039.00    2.71035   2.62757   -1.000
 6040.00    2.70276   2.61800   -1.000
 6041.00    2.70737   2.61797   -1.000
 6042.00    2.71149   2.62721   -1.000
 6043.00    2.72637   2.64086   -1.000
 6044.00    2.74255   2.65198   -1.000
 6045.00    2.74153   2.65715   -1.000
 6046.00    2.74748   2.66105   -1.000
 6047.00    2.75029   2.66583   -1.000
 6048.00    2.74668   2.67092   -1.000
 6049.00    2.75635   2.67472   -1.000
 6050.00    2.76222   2.67525   -1.000
 6051.00    2.75568   2.66927   -1.000
 6052.00    2.75014   2.65652   -1.000
 6053.00    2.74276   2.63832   -1.000
 6054.00    2.73579   2.61879   -1.000
 6055.00    2.70307   2.60110   -1.000
 6056.00    2.69424   2.59440   -1.000
 6057.00    2.70725   2.60383   -1.000
 6058.00    2.72605   2.62231   -1.000
 6059.00    2.72790   2.63857   -1.000
 6060.00    2.73713   2.64558   -1.000
 6061.00    2.76778   2.64081   -1.000
 6062.00    2.59051   2.62298  105.270
 6063.00    1.35105   2.59333   -1.000
 6064.00    2.20212   2.55981   -1.000
 6065.00    2.65608   2.54436   -1.000
 6066.00    2.28648   2.56752   -1.000
 6067.00    0.79614   2.61302   -1.000
 6068.00    1.08300   2.64996   -1.000
 6069.00    2.43396   2.66995   -1.000
 6070.00    2.66637   2.67982  100.746
 6071.00    2.71447   2.68589   -1.000
 6072.00    2.69361   2.68897  101.876
 6073.00    2.73980   2.68964   -1.000
 6074.00    2.77216   2.68711   -1.000
 6075.00    2.76540   2.67805   -1.000
 6076.00    2.75626   2.66151   -1.000
 6077.00    2.72704   2.63902   -1.000
 6078.00    2.69921   2.61528   -1.000
 6079.00    2.68933   2.60307   -1.000
 6080.00    2.68640   2.59990   -1.000
 6081.00    2.68260   2.59356   -1.000
 6082.00    2.66963   2.58676   -1.000
 6083.00    2.66547   2.58684   -1.000
 6084.00    2.67656   2.58907   -1.000
 6085.00    2.68239   2.59388   -1.000
 6086.00    2.68353   2.60580   -1.000
 6087.00    2.69518   2.61856   -1.000
 6088.00    2.69557   2.62032   -1.000
 6089.00    2.67800   2.60780   -1.000
 6090.00    2.67003   2.59117   -1.000
 6091.00    2.66583   2.58383   -1.000
 6092.00    2.67200   2.59020   -1.000
 6093.00    2.68386   2.60679   -1.000
 6094.00    2.70124   2.62674   -1.000
 6095.00    2.73103   2.64123   -1.000
 6096.00    2.74045   2.64664   -1.000
 6097.00    2.73444   2.65035   -1.000
 6098.00    2.72701   2.65714   -1.000
 6099.00    2.71779   2.65292   -1.000
 6100.00    2.69398   2.61917   -1.000
 6101.00    2.64500   2.55471   -1.000
 6102.00    2.59019   2.49022   -1.000
 6103.00    2.58219   2.47794   -1.000
 6104.00    2.62842   2.52355   -1.000
 6105.00    2.68220   2.58134   -1.000
 6106.00    2.71468   2.61649   -1.000
 6107.00    2.70212   2.63353   -1.000
 6108.00    2.69212   2.64641   -1.000
 6109.00    2.70376   2.65774   -1.000
 6110.00    2.71440   2.65853   -1.000
 6111.00    2.70476   2.65495   -1.000
 6112.00    2.71203   2.65948   -1.000
 6113.00    2.73043   2.67113   -1.000
 6114.00    2.73608   2.67928   -1.000
 6115.00    2.72991   2.67485   -1.000
 6116.00    2.71604   2.66516   -1.000
 6117.00    2.70087   2.65900   -1.000
 6118.00    2.69422   2.64863   -1.000
 6119.00    2.66459   2.61989   -1.000
 6120.00    2.63208   2.56915   -1.000
 6121.00    2.59589   2.51295   -1.000
 6122.00    2.58821   2.48697   -1.000
 6123.00    2.61822   2.50910   -1.000
 6124.00    2.65711   2.55610   -1.000
 6125.00    2.69196   2.59220   -1.000
 6126.00    2.68699   2.60674   -1.000
 6127.00    2.66574   2.60935   -1.000
 6128.00    2.66172   2.61449   -1.000
 6129.00    2.67432   2.63249   -1.000
 6130.00    2.69985   2.65695   -1.000
 6131.00    2.72968   2.67868   -1.000
 6132.00    2.71929   2.68823   -1.000
 6133.00    2.70211   2.67230   -1.000
 6134.00    2.65260   2.61646   -1.000
 6135.00    2.57612   2.52736   -1.000
 6136.00    2.49930   2.44269   -1.000
 6137.00    2.47246   2.41833   -1.000
 6138.00    2.52751   2.46341   -1.000
 6139.00    2.60881   2.52279   -1.000
 6140.00    2.64960   2.55053   -1.000
 6141.00    2.64708   2.56792   -1.000
 6142.00    2.65349   2.59628   -1.000
 6143.00    2.67314   2.63434   -1.000
 6144.00    2.70176   2.66486   -1.000
 6145.00    2.70728   2.67353   -1.000
 6146.00    2.70463   2.66526   -1.000
 6147.00    2.68968   2.64737   -1.000
 6148.00    2.66683   2.62637   -1.000
 6149.00    2.64468   2.60723   -1.000
 6150.00    2.64147   2.59604   -1.000
 6151.00    2.64843   2.60364   -1.000
 6152.00    2.65838   2.62179   -1.000
 6153.00    2.67023   2.62626   -1.000
 6154.00    2.65644   2.61083   -1.000
 6155.00    2.63823   2.59501   -1.000
 6156.00    2.62721   2.59085   -1.000
 6157.00    2.62193   2.58982   -1.000
 6158.00    2.59879   2.57492   -1.000
 6159.00    2.56094   2.52760   -1.000
 6160.00    2.48995   2.44227   -1.000
 6161.00    2.41250   2.34715   -1.000
 6162.00    2.37443   2.29416   -1.000
 6163.00    2.39107   2.31039   -1.000
 6164.00    2.44870   2.37031   -1.000
 6165.00    2.50575   2.43483   -1.000
 6166.00    2.52881   2.47707   -1.000
 6167.00    2.52155   2.48140   -1.000
 6168.00    2.49854   2.44805   -1.000
 6169.00    2.45896   2.41387   -1.000
 6170.00    2.46440   2.42377   -1.000
 6171.00    2.49616   2.47110   -1.000
 6172.00    2.53178   2.51779  110.867
 6173.00    2.55539   2.54610  111.066
 6174.00    2.56441   2.56012  111.137
 6175.00    2.56949   2.56457  110.843
 6176.00    2.56533   2.56614  110.640
 6177.00    2.56720   2.57461  110.333
 6178.00    2.58292   2.58719  109.771
 6179.00    2.60082   2.59554  109.386
 6180.00    2.60928   2.60286  109.038
 6181.00    2.61847   2.61613  108.518
 6182.00    2.62683   2.62849  108.261
 6183.00    2.62898   2.62893  108.508
 6184.00    2.62827   2.61688  108.897
 6185.00    2.60349   2.59647  109.801
 6186.00    2.57611   2.57248  111.023
 6187.00    2.55510   2.55137  112.163
 6188.00    2.53222   2.53559  113.225
 6189.00    2.51700   2.51119  114.026
 6190.00    2.49422   2.47227   -1.000
 6191.00    2.47383   2.44870   -1.000
 6192.00    2.49113   2.47116  114.834
 6193.00    2.54665   2.52256   -1.000
 6194.00    2.58868   2.56846   -1.000
 6195.00    2.60324   2.59770  109.523
 6196.00    2.61382   2.61100  109.386
 6197.00    2.60925   2.60653  110.159
 6198.00    2.58563   2.58585  111.476
 6199.00    2.55086   2.56403  112.350
 6200.00    2.53009   2.56393   -1.000
 6201.00    2.54270   2.58526   -1.000
 6202.00    2.55674   2.61107   -1.000
 6203.00    2.55950   2.63073   -1.000
 6204.00    2.58274   2.64265   -1.000
 6205.00    2.60609   2.65005   -1.000
 6206.00    2.62138   2.65431  109.174
 6207.00    2.63566   2.65690  109.628
 6208.00    2.63953   2.65467  109.580
 6209.00    2.62750   2.64501  110.108
 6210.00    2.60716   2.62684  111.154
 6211.00    2.57593   2.59599  112.003
 6212.00    2.54539   2.55217  113.123
 6213.00    2.50487   2.50832  114.897
 6214.00    2.48265   2.48184  116.002
 6215.00    2.48619   2.48113  116.255
 6216.00    2.50388   2.49594  114.606
 6217.00    2.52456   2.50793  114.147
 6218.00    2.52740   2.50279   -1.000
 6219.00    2.51988   2.49059   -1.000
 6220.00    2.50684   2.49239  113.709
 6221.00    2.52358   2.51134  114.530
 6222.00    2.57365   2.53159   -1.000
 6223.00    2.45226   2.54211   -1.000
 6224.00    2.16861   2.54760   -1.000
 6225.00    2.53038   2.55282  113.201
 6226.00    2.57541   2.55590  113.238
 6227.00    2.55874   2.54602  113.926
 6228.00    2.53670   2.51291   -1.000
 6229.00    2.49046   2.46096   -1.000
 6230.00    2.45389   2.41685   -1.000
 6231.00    2.44359   2.40802   -1.000
 6232.00    2.46600   2.43963   -1.000
 6233.00    2.52043   2.49434   -1.000
 6234.00    2.57201   2.54664   -1.000
 6235.00    2.59098   2.57384  112.042
 6236.00    2.58477   2.57109  112.864
 6237.00    2.55885   2.54899  114.024
 6238.00    2.53568   2.52283  115.180
 6239.00    2.50264   2.50299  116.415
 6240.00    2.48308   2.49158  116.848
 6241.00    2.48937   2.48349  116.780
 6242.00    2.47411   2.47030  117.701
 6243.00    2.45864   2.45315  118.460
 6244.00    2.45875   2.44123  118.334
 6245.00    2.46964   2.44061   -1.000
 6246.00    2.49446   2.45807   -1.000
 6247.00    2.51556   2.49577   -1.000
 6248.00    2.54715   2.53706  113.678
 6249.00    2.55978   2.55880  113.623
 6250.00    2.55363   2.54817  114.740
 6251.00    2.51150   2.51100  116.927
 6252.00    2.45731   2.46768  118.315
 6253.00    2.43474   2.44058  119.096
 6254.00    2.43945   2.43300  119.404
 6255.00    2.43970   2.43079  119.337
 6256.00    2.42477   2.42175  120.493
 6257.00    2.40481   2.41144  121.555
 6258.00    2.40494   2.41675  120.952
 6259.00    2.44626   2.44297  119.068
 6260.00    2.48849   2.48435  117.288
 6261.00    2.52672   2.52731  115.706
 6262.00    2.55177   2.56157  113.896
 6263.00    2.56722   2.57541  113.395
 6264.00    2.56175   2.57069  114.366
 6265.00    2.54605   2.56443  115.108
 6266.00    2.53623   2.57080   -1.000
 6267.00    2.54081   2.58268   -1.000
 6268.00    2.53508   2.58353   -1.000
 6269.00    2.52123   2.57574   -1.000
 6270.00    2.51905   2.57385   -1.000
 6271.00    2.54223   2.58271   -1.000
 6272.00    2.55396   2.59440   -1.000
 6273.00    2.56153   2.59506  114.209
 6274.00    2.54031   2.57657   -1.000
 6275.00    2.51326   2.54678  115.995
 6276.00    2.47621   2.51599   -1.000
 6277.00    2.42245   2.49232   -1.000
 6278.00    2.36815   2.47566   -1.000
 6279.00    2.32377   2.46314   -1.000
 6280.00    2.30014   2.46342   -1.000
 6281.00    2.27482   2.48426   -1.000
 6282.00    2.26131   2.52046   -1.000
 6283.00    2.26500   2.55931   -1.000
 6284.00    2.30630   2.58844   -1.000
 6285.00    2.36194   2.60545   -1.000
 6286.00    2.43470   2.61788   -1.000
 6287.00    2.49545   2.62990   -1.000
 6288.00    2.53733   2.63373   -1.000
 6289.00    2.55575   2.62186   -1.000
 6290.00    2.54007   2.60070   -1.000
 6291.00    2.53945   2.58369   -1.000
 6292.00    2.53421   2.57707   -1.000
 6293.00    2.53505   2.57812   -1.000
 6294.00    2.54277   2.57839   -1.000
 6295.00    2.52714   2.56564   -1.000
 6296.00    2.50424   2.54069   -1.000
 6297.00    2.49003   2.52194   -1.000
 6298.00    2.47730   2.52065   -1.000
 6299.00    2.47802   2.52452   -1.000
 6300.00    2.47421   2.51551   -1.000
 6301.00    2.45950   2.50111   -1.000
 6302.00    2.46429   2.50538   -1.000
 6303.00    2.49530   2.53288   -1.000
 6304.00    2.52440   2.56711   -1.000
 6305.00    2.53917   2.59493   -1.000
 6306.00    2.55024   2.61796   -1.000
 6307.00    2.56976   2.63574   -1.000
 6308.00    2.57573   2.64244   -1.000
 6309.00    2.57163   2.63701   -1.000
 6310.00    2.55899   2.62568   -1.000
 6311.00    2.54166   2.61377   -1.000
 6312.00    2.53274   2.60379   -1.000
 6313.00    2.52630   2.58924   -1.000
 6314.00    2.50599   2.56866   -1.000
 6315.00    2.47948   2.55061   -1.000
 6316.00    2.46855   2.53643   -1.000
 6317.00    2.46499   2.52386   -1.000
 6318.00    2.46419   2.52352   -1.000
 6319.00    2.48141   2.54834   -1.000
 6320.00    2.52280   2.58328   -1.000
 6321.00    2.55191   2.60691   -1.000
 6322.00    2.56482   2.62173   -1.000
 6323.00    2.57518   2.64082   -1.000
 6324.00    2.58607   2.66104   -1.000
 6325.00    2.59367   2.67132   -1.000
 6326.00    2.59829   2.67199   -1.000
 6327.00    2.60068   2.67033   -1.000
 6328.00    2.60349   2.67086   -1.000
 6329.00    2.61465   2.67059   -1.000
 6330.00    2.61161   2.67163   -1.000
 6331.00    2.60900   2.67945   -1.000
 6332.00    2.60789   2.68351   -1.000
 6333.00    2.59564   2.66651   -1.000
 6334.00    2.56826   2.62616   -1.000
 6335.00    2.53497   2.58304   -1.000
 6336.00    2.52504   2.56620   -1.000
 6337.00    2.53403   2.57975   -1.000
 6338.00    2.56193   2.60662   -1.000
 6339.00    2.58944   2.63619   -1.000
 6340.00    2.60583   2.66141   -1.000
 6341.00    2.60690   2.66813   -1.000
 6342.00    2.59054   2.65440   -1.000
 6343.00    2.57603   2.63398   -1.000
 6344.00    2.56430   2.62575   -1.000
 6345.00    2.56879   2.63612   -1.000
 6346.00    2.58195   2.65628   -1.000
 6347.00    2.59375   2.68039   -1.000
 6348.00    2.60805   2.70308   -1.000
 6349.00    2.61475   2.71818   -1.000
 6350.00    2.62327   2.72451   -1.000
 6351.00    2.62145   2.72244   -1.000
 6352.00    2.61266   2.70929   -1.000
 6353.00    2.58294   2.68536   -1.000
 6354.00    2.55411   2.66123   -1.000
 6355.00    2.54981   2.64815   -1.000
 6356.00    2.54501   2.64051   -1.000
 6357.00    2.52452   2.62368   -1.000
 6358.00    2.50420   2.60061   -1.000
 6359.00    2.49366   2.58333   -1.000
 6360.00    2.49114   2.57120   -1.000
 6361.00    2.48485   2.56018   -1.000
 6362.00    2.47586   2.55729   -1.000
 6363.00    2.48319   2.56951   -1.000
 6364.00    2.50300   2.59387   -1.000
 6365.00    2.52603   2.62133   -1.000
 6366.00    2.53923   2.64876   -1.000
 6367.00    2.55858   2.67410   -1.000
 6368.00    2.57981   2.68859   -1.000
 6369.00    2.59081   2.69081   -1.000
 6370.00    2.58250   2.69170   -1.000
 6371.00    2.57624   2.70111   -1.000
 6372.00    2.59316   2.71697   -1.000
 6373.00    2.59830   2.72773   -1.000
 6374.00    2.59275   2.72924   -1.000
 6375.00    2.58081   2.72596   -1.000
 6376.00    2.56221   2.71782   -1.000
 6377.00    2.54926   2.70395   -1.000
 6378.00    2.54249   2.69057   -1.000
 6379.00    2.53692   2.68100   -1.000
 6380.00    2.52633   2.67672   -1.000
 6381.00    2.52656   2.67740   -1.000
 6382.00    2.53388   2.68032   -1.000
 6383.00    2.54414   2.68296   -1.000
 6384.00    2.53937   2.68808   -1.000
 6385.00    2.53266   2.69903   -1.000
 6386.00    2.52762   2.71082   -1.000
 6387.00    2.52410   2.71565   -1.000
 6388.00    2.52504   2.71592   -1.000
 6389.00    2.51730   2.71471   -1.000
 6390.00    2.48764   2.70377   -1.000
 6391.00    2.45462   2.67315   -1.000
 6392.00    2.42546   2.63302   -1.000
 6393.00    2.39051   2.61165   -1.000
 6394.00    2.38377   2.62717   -1.000
 6395.00    2.41035   2.66615   -1.000
 6396.00    2.42356   2.69842   -1.000
 6397.00    2.41499   2.69748   -1.000
 6398.00    2.37913   2.65981   -1.000
 6399.00    2.33807   2.61422   -1.000
 6400.00    2.30767   2.60433   -1.000
 6401.00    2.32370   2.63950   -1.000
 6402.00    2.35409   2.68963   -1.000
 6403.00    2.38734   2.72753   -1.000
 6404.00    2.38379   2.74124   -1.000
 6405.00    2.36218   2.72814   -1.000
 6406.00    2.32951   2.69827   -1.000
 6407.00    2.29294   2.67545   -1.000
 6408.00    2.26626   2.67382   -1.000
 6409.00    2.25435   2.68191   -1.000
 6410.00    2.24374   2.67930   -1.000
 6411.00    2.21973   2.66936   -1.000
 6412.00    2.20091   2.66992   -1.000
 6413.00    2.18889   2.68271   -1.000
 6414.00    2.18764   2.69722   -1.000
 6415.00    2.18617   2.70965   -1.000
 6416.00    2.17803   2.71639   -1.000
 6417.00    2.16613   2.71092   -1.000
 6418.00    2.13854   2.68828   -1.000
 6419.00    2.10172   2.65584   -1.000
 6420.00    2.05584   2.63321   -1.000
 6421.00    2.03871   2.64202   -1.000
 6422.00    2.04858   2.68104   -1.000
 6423.00    2.05880   2.72093   -1.000
 6424.00    2.05594   2.74567   -1.000
 6425.00    2.05065   2.76170   -1.000
 6426.00    2.03708   2.77304   -1.000
 6427.00    2.02086   2.77194   -1.000
 6428.00    1.99232   2.74606   -1.000
