###################################################################
## OUTPUT of StarlightChains_v04.for    [Cid@UFSC - 01/Apr/2007] ##
###################################################################

## Some input info
NGC6266_a_1.cxt                          [arq_obs]
Base.BC03.N                              [arq_base]
NGC6266_a_1.msk                          [arq_masks]
StCv04.C99.config                        [arq_config]
   45                                    [N_base]
    0                                    [N_YAV_components = # of components with extra extinction!]
    0                                    [i_FitPowerLaw (1/0 = Yes/No)]
-9.99                                    [alpha_PowerLaw]
CCM                                      [red_law_option]
 1.458241                                [q_norm = A(l_norm)/A(V)]

## (Re)Sampling Parameters
 3359.00                                 [l_ini (A)]
 6428.00                                 [l_fin (A)]
    1.00                                 [dl    (A)]     (OBS: dl_cushion =    50.00 A)

## Normalization info
 4020.00                                 [l_norm (A) - for base]
 4010.00                                 [llow_norm (A) - window for f_obs]
 4060.00                                 [lupp_norm (A) - window for f_obs]
4.260575E-14                             [fobs_norm (in input units)]

## S/N
 4730.00                                 [llow_SN (A) - window for S/N]
 4780.00                                 [lupp_SN (A) - window for S/N]
  58.893                                 [S/N in S/N window]
  42.056                                 [S/N in norm. window]
 225.721                                 [S/N_err in S/N window]
 161.191                                 [S/N_err in norm. window]
  1.0000                                 [fscale_chi2]

## etc...
  2147483622                             [idum_orig]
  3068                                   [NOl_eff]
   708                                   [Nl_eff]
  2360    NSIGMA                         [Ntot_cliped & clip_method]
  1467900                                [Nglobal_steps]
   7                                     [N_chains]
   6                                     [NEX0s_base = N_base in EX0s-fits]
 0   0   1        2   2.0   4.774E+02    [Clip-Bug, RC-Crash & Burn-In warning-flags, n_censored_weights, wei_nsig_threshold & wei_limit]
    23     23.361     23.353      0.008  [idt_all, wdt_TotTime, wdt_UsrTime & wdt_SysTime (sec)]

## Synthesis Results - Best model ##

 2.47351E+00                             [chi2/Nl_eff]
     1.08393                             [adev (%)]

    98.67849                             [sum-of-x (%)]
 3.87411E-13                             [Flux_tot (units of input spectrum!)]
 3.77481E-09                             [Mini_tot (???)]
 2.02015E-09                             [Mcor_tot (???)]

 -12.55                                  [v0_min  (km/s)]
  50.48                                  [vd_min  (km/s)]
 1.6535                                  [AV_min  (mag)]
 0.0000                                  [YAV_min (mag)]

# j     x_j(%)      Mini_j(%)     Mcor_j(%)     age_j(yr)     Z_j      (L/M)_j    YAV?  Mstars   component_j        a/Fe...       SSP_chi2r SSP_adev(%)   SSP_AV   SSP_x(%)
  1      0.0000     0.0000E+00    0.0000E+00    1.000000E+06  0.00400  1.114E-02    0   1.0000   age020_m42            0.0000     2.9185E+03    26.0432   4.0000    89.7757
  2      8.8243     2.2533E-02    4.2101E-02    3.160000E+06  0.00400  4.073E-02    0   0.9999   age045_m42            0.0000     1.1728E+02     5.5391   3.8747    89.7574
  3      0.0000     0.0000E+00    0.0000E+00    5.010000E+06  0.00400  2.534E-02    0   0.9488   age055_m42            0.0000     4.7803E+02    11.9214   4.0000    89.3793
  4     16.0072     1.3099E-01    2.1690E-01    1.000000E+07  0.00400  1.271E-02    0   0.8862   age070_m42            0.0000     2.3597E+02     8.5332   3.4752    87.3653
  5      0.0000     0.0000E+00    0.0000E+00    2.512000E+07  0.00400  5.070E-03    0   0.8174   age090_m42            0.0000     2.0078E+02     7.9242   3.3482    89.0293
  6      0.0000     0.0000E+00    0.0000E+00    4.000000E+07  0.00400  3.505E-03    0   0.7851   age104_m42            0.0000     1.1739E+02     6.0447   3.0338    92.3730
  7      0.0000     0.0000E+00    0.0000E+00    1.015200E+08  0.00400  2.268E-03    0   0.7207   age116_m42            0.0000     5.9969E+02    10.1081   3.0232   103.3038
  8      0.0000     0.0000E+00    0.0000E+00    2.861200E+08  0.00400  1.079E-03    0   0.6613   age125_m42            0.0000     6.5146E+02    11.0445   2.5278   105.7056
  9      0.0000     0.0000E+00    0.0000E+00    6.405400E+08  0.00400  5.077E-04    0   0.6197   age132_m42            0.0000     7.0099E+02    11.4969   2.1500   110.2730
 10     14.4560     4.2532E+00    4.7875E+00    9.047900E+08  0.00400  3.535E-04    0   0.6024   age135_m42            0.0000     4.4821E+02     9.3767   1.9143   109.3394
 11      0.0000     0.0000E+00    0.0000E+00    1.434000E+09  0.00400  1.910E-04    0   0.5716   age139_m42            0.0000     2.2125E+02     7.0195   1.4041   108.1080
 12     27.9363     2.9594E+01    3.0210E+01    2.500000E+09  0.00400  9.818E-05    0   0.5463   age150_m42            0.0000     9.2317E+01     4.8555   1.1464   102.7926
 13     28.9125     6.3736E+01    6.2263E+01    5.000000E+09  0.00400  4.718E-05    0   0.5228   age161_m42            0.0000     9.5891E+01     4.3847   0.9847    99.3320
 14      0.0000     0.0000E+00    0.0000E+00    1.100000E+10  0.00400  2.205E-05    0   0.4980   age185_m42            0.0000     2.2271E+02     6.1576   0.7294    97.5149
 15      0.0000     0.0000E+00    0.0000E+00    1.300000E+10  0.00400  1.883E-05    0   0.4927   age193_m42            0.0000     2.4513E+02     6.4370   0.7130    97.3775
 16      0.0000     0.0000E+00    0.0000E+00    1.000000E+06  0.02000  1.989E-02    0   1.0000   age020_m62            0.0000     2.7130E+03    24.9883   4.0000    90.0811
 17      0.0000     0.0000E+00    0.0000E+00    3.160000E+06  0.02000  3.772E-02    0   0.9858   age045_m62            0.0000     1.9367E+03    21.8199   4.0000    90.7233
 18      0.0000     0.0000E+00    0.0000E+00    5.010000E+06  0.02000  3.227E-02    0   0.9342   age055_m62            0.0000     2.1732E+02     8.3031   4.0000    89.4607
 19      0.0000     0.0000E+00    0.0000E+00    1.000000E+07  0.02000  1.011E-02    0   0.8751   age070_m62            0.0000     6.4754E+02    13.2513   3.5144    82.9487
 20      0.0000     0.0000E+00    0.0000E+00    2.512000E+07  0.02000  4.206E-03    0   0.8099   age090_m62            0.0000     4.3521E+02    11.0008   3.4501    84.0272
 21      0.0000     0.0000E+00    0.0000E+00    4.000000E+07  0.02000  3.373E-03    0   0.7799   age104_m62            0.0000     1.3115E+02     5.6234   3.2527    93.9067
 22      0.0000     0.0000E+00    0.0000E+00    1.015200E+08  0.02000  1.878E-03    0   0.7221   age116_m62            0.0000     4.7100E+02     8.7016   3.0499   103.5740
 23      0.0000     0.0000E+00    0.0000E+00    2.861200E+08  0.02000  8.869E-04    0   0.6700   age125_m62            0.0000     1.0918E+03    14.2472   2.5374   111.2924
 24      0.0000     0.0000E+00    0.0000E+00    6.405400E+08  0.02000  3.657E-04    0   0.6322   age132_m62            0.0000     7.7366E+02    12.4973   1.8663   114.6416
 25      0.0000     0.0000E+00    0.0000E+00    9.047900E+08  0.02000  2.312E-04    0   0.6152   age135_m62            0.0000     4.6882E+02     9.9452   1.5010   113.3204
 26      2.5422     2.2638E+00    2.4809E+00    1.434000E+09  0.02000  1.168E-04    0   0.5865   age139_m62            0.0000     1.9085E+02     6.5574   1.1049   106.9043
 27      0.0000     0.0000E+00    0.0000E+00    2.500000E+09  0.02000  5.505E-05    0   0.5610   age150_m62            0.0000     2.5285E+02     7.1508   0.7418   104.1179
 28      0.0000     0.0000E+00    0.0000E+00    5.000000E+09  0.02000  2.596E-05    0   0.5353   age161_m62            0.0000     5.1438E+02     9.7032   0.4124   104.7124
 29      0.0000     0.0000E+00    0.0000E+00    1.100000E+10  0.02000  1.169E-05    0   0.5103   age185_m62            0.0000     8.5737E+02    12.2468   0.0530   106.7379
 30      0.0000     0.0000E+00    0.0000E+00    1.300000E+10  0.02000  9.691E-06    0   0.5047   age193_m62            0.0000     9.2463E+02    12.6606   0.0076   107.0715
 31      0.0000     0.0000E+00    0.0000E+00    1.000000E+06  0.05000  2.651E-02    0   0.9998   age020_m72            0.0000     2.6808E+03    24.5349   4.0000    91.1880
 32      0.0000     0.0000E+00    0.0000E+00    3.160000E+06  0.05000  4.817E-02    0   0.9577   age045_m72            0.0000     1.1762E+03    17.2808   4.0000    92.3365
 33      0.0000     0.0000E+00    0.0000E+00    5.010000E+06  0.05000  3.101E-02    0   0.9147   age055_m72            0.0000     3.6204E+02    10.4675   4.0000    87.8998
 34      0.0000     0.0000E+00    0.0000E+00    1.000000E+07  0.05000  8.954E-03    0   0.8524   age070_m72            0.0000     8.4009E+02    14.7018   4.0000    91.6139
 35      0.0000     0.0000E+00    0.0000E+00    2.512000E+07  0.05000  4.207E-03    0   0.7902   age090_m72            0.0000     1.4597E+02     6.1616   3.9653    88.8694
 36      0.0000     0.0000E+00    0.0000E+00    4.000000E+07  0.05000  3.198E-03    0   0.7618   age104_m72            0.0000     2.7123E+02     6.5766   3.4509    98.3942
 37      0.0000     0.0000E+00    0.0000E+00    1.015200E+08  0.05000  1.716E-03    0   0.7092   age116_m72            0.0000     6.0117E+02    10.0061   3.1580   103.5764
 38      0.0000     0.0000E+00    0.0000E+00    2.861200E+08  0.05000  7.047E-04    0   0.6618   age125_m72            0.0000     1.0914E+03    14.3090   2.3510   111.6275
 39      0.0000     0.0000E+00    0.0000E+00    6.405400E+08  0.05000  2.633E-04    0   0.6253   age132_m72            0.0000     6.3803E+02    11.4930   1.5100   113.8845
 40      0.0000     0.0000E+00    0.0000E+00    9.047900E+08  0.05000  1.484E-04    0   0.6088   age135_m72            0.0000     3.3564E+02     8.8989   1.0383   108.4854
 41      0.0000     0.0000E+00    0.0000E+00    1.434000E+09  0.05000  7.827E-05    0   0.5847   age139_m72            0.0000     3.8922E+02     8.9543   0.6626   104.9639
 42      0.0000     0.0000E+00    0.0000E+00    2.500000E+09  0.05000  3.759E-05    0   0.5583   age150_m72            0.0000     5.8023E+02    10.3705   0.3458   104.4173
 43      0.0000     0.0000E+00    0.0000E+00    5.000000E+09  0.05000  1.548E-05    0   0.5320   age161_m72            0.0000     8.9591E+02    12.3212  -0.0503   104.6650
 44      0.0000     0.0000E+00    0.0000E+00    1.100000E+10  0.05000  6.532E-06    0   0.5070   age185_m72            0.0000     1.2874E+03    14.6399  -0.4248   105.4561
 45      0.0000     0.0000E+00    0.0000E+00    1.300000E+10  0.05000  5.316E-06    0   0.5018   age193_m72            0.0000     1.4597E+03    15.6404  -0.5406   105.8568


## Synthesis Results - Average & Chains ##

# j      x_j: min, <> & last-chain-values for 1 ...  7 chains
  1      0.0000      0.0166      0.0000      0.0000      0.0751      0.0000      0.0197      0.0000      0.0000
  2      8.8243      8.3169      8.2762      8.5432      8.4007      8.4365      8.7965      8.3644      8.3363
  3      0.0000      0.0384      0.0469      0.0274      0.0183      0.0000      0.0772      0.0555      0.1097
  4     16.0072     15.3706     15.2134     15.6272     15.5403     15.6687     15.5385     15.5013     15.4700
  5      0.0000      0.1904      0.3335      0.1793      0.1485      0.1580      0.0000      0.1937      0.1624
  6      0.0000      0.0226      0.0000      0.0000      0.0000      0.0030      0.0000      0.0000      0.0000
  7      0.0000      0.0430      0.0000      0.0249      0.0613      0.0000      0.1723      0.0569      0.1213
  8      0.0000      0.0488      0.0000      0.0858      0.0000      0.2046      0.0000      0.0148      0.1065
  9      0.0000      0.1370      0.2479      0.2583      0.2602      0.0836      0.0000      0.0589      0.2308
 10     14.4560     14.3910     14.4507     14.2410     14.4518     14.5271     14.3343     14.4670     14.3554
 11      0.0000      0.2925      0.4000      0.0000      0.2505      0.0000      0.0000      0.3622      0.0000
 12     27.9363     28.1401     28.0927     28.3875     27.9710     28.0399     28.1242     28.0464     27.9722
 13     28.9125     29.7588     29.5180     29.5046     29.8513     29.5918     29.6618     29.6168     29.6668
 14      0.0000      0.0210      0.0199      0.1540      0.0000      0.0000      0.0067      0.0000      0.0000
 15      0.0000      0.0189      0.0000      0.0000      0.0007      0.0000      0.0000      0.0000      0.0000
 16      0.0000      0.0097      0.0000      0.0000      0.0000      0.0000      0.0000      0.0000      0.0035
 17      0.0000      0.0210      0.0000      0.0000      0.0391      0.0124      0.0000      0.0518      0.0000
 18      0.0000      0.0298      0.0763      0.0000      0.0000      0.0605      0.0476      0.0930      0.0559
 19      0.0000      0.0217      0.0000      0.0000      0.0000      0.0000      0.0000      0.0000      0.0000
 20      0.0000      0.0236      0.0000      0.0097      0.0716      0.0000      0.0000      0.0000      0.0000
 21      0.0000      0.0272      0.0000      0.0000      0.0257      0.0000      0.0000      0.0000      0.0000
 22      0.0000      0.0455      0.0000      0.0487      0.0655      0.0000      0.0000      0.0518      0.1230
 23      0.0000      0.0199      0.0000      0.0000      0.0476      0.0000      0.0000      0.0000      0.0000
 24      0.0000      0.0316      0.0000      0.0000      0.0604      0.0000      0.0000      0.0161      0.0985
 25      0.0000      0.0886      0.0017      0.0000      0.0000      0.0149      0.0000      0.0984      0.0879
 26      2.5422      0.3894      0.9754      0.4003      0.3250      0.7364      0.2399      0.3667      0.3422
 27      0.0000      0.2209      0.2660      0.3666      0.2920      0.2210      0.2916      0.4015      0.3178
 28      0.0000      0.0701      0.0000      0.0007      0.0000      0.1245      0.0352      0.0984      0.0000
 29      0.0000      0.0227      0.0000      0.0000      0.0000      0.0000      0.0898      0.0000      0.0000
 30      0.0000      0.0111      0.0387      0.0000      0.0000      0.0000      0.0342      0.0000      0.0597
 31      0.0000      0.0120      0.0000      0.0000      0.0000      0.0000      0.0000      0.0000      0.0000
 32      0.0000      0.0319      0.1498      0.0000      0.0000      0.0000      0.0000      0.0000      0.0000
 33      0.0000      0.1719      0.2711      0.1373      0.1057      0.1974      0.0400      0.1061      0.3140
 34      0.0000      0.0144      0.0000      0.0000      0.0000      0.0000      0.0000      0.0000      0.0000
 35      0.0000      0.0182      0.0000      0.0000      0.0010      0.0159      0.0400      0.0000      0.0112
 36      0.0000      0.0302      0.0000      0.0000      0.0000      0.0000      0.0529      0.1787      0.0000
 37      0.0000      0.0489      0.0257      0.0000      0.0465      0.0000      0.1371      0.0495      0.0000
 38      0.0000      0.0313      0.0011      0.1414      0.0393      0.0747      0.0000      0.0000      0.0119
 39      0.0000      0.0701      0.0473      0.0185      0.0684      0.1282      0.5295      0.0435      0.0000
 40      0.0000      0.0862      0.0000      0.0000      0.0000      0.0000      0.0000      0.0000      0.0982
 41      0.0000      0.2739      0.2468      0.4222      0.4892      0.4023      0.3504      0.2590      0.6378
 42      0.0000      0.0445      0.0000      0.1044      0.0000      0.0000      0.0679      0.1694      0.0000
 43      0.0000      0.0211      0.0031      0.0000      0.0000      0.0000      0.0000      0.0000      0.0000
 44      0.0000      0.0060      0.0000      0.0000      0.0000      0.0000      0.0000      0.0000      0.0000
 45      0.0000      0.0191      0.0123      0.0000      0.0000      0.0000      0.0000      0.0000      0.0000

# j      m_j: min, <> & last-chain-values for 1 ...  7 chains
  1  0.0000E+00  2.8293E-04  0.0000E+00  0.0000E+00  1.2919E-03  0.0000E+00  3.3516E-04  0.0000E+00  0.0000E+00
  2  4.2101E-02  3.8664E-02  3.8762E-02  3.9948E-02  3.9497E-02  3.9663E-02  4.1003E-02  3.9166E-02  3.9037E-02
  3  0.0000E+00  2.7209E-04  3.3484E-04  1.9538E-04  1.3103E-04  0.0000E+00  5.4852E-04  3.9617E-04  7.8367E-04
  4  2.1690E-01  2.0295E-01  2.0237E-01  2.0754E-01  2.0752E-01  2.0922E-01  2.0571E-01  2.0615E-01  2.0575E-01
  5  0.0000E+00  5.8131E-03  1.0259E-02  5.5063E-03  4.5848E-03  4.8773E-03  0.0000E+00  5.9564E-03  4.9956E-03
  6  0.0000E+00  9.5902E-04  0.0000E+00  0.0000E+00  0.0000E+00  1.3071E-04  0.0000E+00  0.0000E+00  0.0000E+00
  7  0.0000E+00  2.5873E-03  0.0000E+00  1.5072E-03  3.7327E-03  0.0000E+00  1.0398E-02  3.4491E-03  7.3542E-03
  8  0.0000E+00  5.6688E-03  0.0000E+00  1.0013E-02  0.0000E+00  2.4017E-02  0.0000E+00  1.7310E-03  1.2454E-02
  9  0.0000E+00  3.1673E-02  5.7722E-02  6.0055E-02  6.0829E-02  1.9542E-02  0.0000E+00  1.3702E-02  5.3733E-02
 10  4.7875E+00  4.6440E+00  4.6980E+00  4.6224E+00  4.7166E+00  4.7408E+00  4.6380E+00  4.7022E+00  4.6663E+00
 11  0.0000E+00  1.6577E-01  2.2839E-01  0.0000E+00  1.4360E-01  0.0000E+00  0.0000E+00  2.0673E-01  0.0000E+00
 12  3.0210E+01  2.9651E+01  2.9822E+01  3.0086E+01  2.9808E+01  2.9879E+01  2.9713E+01  2.9765E+01  2.9689E+01
 13  6.2263E+01  6.2445E+01  6.2401E+01  6.2273E+01  6.3351E+01  6.2795E+01  6.2407E+01  6.2595E+01  6.2706E+01
 14  0.0000E+00  8.9981E-02  8.5875E-02  6.6242E-01  0.0000E+00  0.0000E+00  2.8937E-02  0.0000E+00  0.0000E+00
 15  0.0000E+00  9.3859E-02  0.0000E+00  0.0000E+00  3.4245E-03  0.0000E+00  0.0000E+00  0.0000E+00  0.0000E+00
 16  0.0000E+00  9.2259E-05  0.0000E+00  0.0000E+00  0.0000E+00  0.0000E+00  0.0000E+00  0.0000E+00  3.3748E-05
 17  0.0000E+00  1.0399E-04  0.0000E+00  0.0000E+00  1.9592E-04  6.1858E-05  0.0000E+00  2.5837E-04  0.0000E+00
 18  0.0000E+00  1.6332E-04  4.2117E-04  0.0000E+00  0.0000E+00  3.3522E-04  2.6161E-04  5.1367E-04  3.0847E-04
 19  0.0000E+00  3.5605E-04  0.0000E+00  0.0000E+00  0.0000E+00  0.0000E+00  0.0000E+00  0.0000E+00  0.0000E+00
 20  0.0000E+00  8.6100E-04  0.0000E+00  3.5573E-04  2.6388E-03  0.0000E+00  0.0000E+00  0.0000E+00  0.0000E+00
 21  0.0000E+00  1.1914E-03  0.0000E+00  0.0000E+00  1.1375E-03  0.0000E+00  0.0000E+00  0.0000E+00  0.0000E+00
 22  0.0000E+00  3.3095E-03  0.0000E+00  3.5652E-03  4.8200E-03  0.0000E+00  0.0000E+00  3.7979E-03  9.0195E-03
 23  0.0000E+00  2.8424E-03  0.0000E+00  0.0000E+00  6.8823E-03  0.0000E+00  0.0000E+00  0.0000E+00  0.0000E+00
 24  0.0000E+00  1.0343E-02  0.0000E+00  0.0000E+00  2.0009E-02  0.0000E+00  0.0000E+00  5.3010E-03  3.2482E-02
 25  0.0000E+00  4.4651E-02  8.6603E-04  0.0000E+00  0.0000E+00  7.5749E-03  0.0000E+00  4.9961E-02  4.4632E-02
 26  2.4809E+00  3.7031E-01  9.3440E-01  3.8285E-01  3.1259E-01  7.0814E-01  2.2871E-01  3.5123E-01  3.2774E-01
 27  0.0000E+00  4.2626E-01  5.1707E-01  7.1150E-01  5.6990E-01  4.3131E-01  5.6428E-01  7.8048E-01  6.1777E-01
 28  0.0000E+00  2.7372E-01  0.0000E+00  2.7014E-03  0.0000E+00  4.9154E-01  1.3793E-01  3.8697E-01  0.0000E+00
 29  0.0000E+00  1.8774E-01  0.0000E+00  0.0000E+00  0.0000E+00  0.0000E+00  7.4392E-01  0.0000E+00  0.0000E+00
 30  0.0000E+00  1.0961E-01  3.8452E-01  0.0000E+00  0.0000E+00  0.0000E+00  3.3787E-01  0.0000E+00  5.9333E-01
 31  0.0000E+00  8.5467E-05  0.0000E+00  0.0000E+00  0.0000E+00  0.0000E+00  0.0000E+00  0.0000E+00  0.0000E+00
 32  0.0000E+00  1.2002E-04  5.6821E-04  0.0000E+00  0.0000E+00  0.0000E+00  0.0000E+00  0.0000E+00  0.0000E+00
 33  0.0000E+00  9.6001E-04  1.5257E-03  7.7113E-04  5.9700E-04  1.1149E-03  2.2415E-04  5.9677E-04  1.7668E-03
 34  0.0000E+00  2.5956E-04  0.0000E+00  0.0000E+00  0.0000E+00  0.0000E+00  0.0000E+00  0.0000E+00  0.0000E+00
 35  0.0000E+00  6.4749E-04  0.0000E+00  0.0000E+00  3.7491E-05  5.7053E-04  1.4273E-03  0.0000E+00  4.0267E-04
 36  0.0000E+00  1.3642E-03  0.0000E+00  0.0000E+00  0.0000E+00  0.0000E+00  2.3912E-03  8.1200E-03  0.0000E+00
 37  0.0000E+00  3.8233E-03  2.0273E-03  0.0000E+00  3.6798E-03  0.0000E+00  1.0755E-02  3.9026E-03  0.0000E+00
 38  0.0000E+00  5.5652E-03  1.9193E-04  2.5296E-02  7.0598E-03  1.3433E-02  0.0000E+00  0.0000E+00  2.1314E-03
 39  0.0000E+00  3.1531E-02  2.1421E-02  8.3573E-03  3.1099E-02  5.8294E-02  2.3878E-01  1.9726E-02  0.0000E+00
 40  0.0000E+00  6.6972E-02  0.0000E+00  0.0000E+00  0.0000E+00  0.0000E+00  0.0000E+00  0.0000E+00  7.6832E-02
 41  0.0000E+00  3.8746E-01  3.5178E-01  6.0072E-01  6.9987E-01  5.7554E-01  4.9699E-01  3.6909E-01  9.0879E-01
 42  0.0000E+00  1.2504E-01  0.0000E+00  2.9533E-01  0.0000E+00  0.0000E+00  1.9135E-01  4.7982E-01  0.0000E+00
 43  0.0000E+00  1.3735E-01  2.0232E-02  0.0000E+00  0.0000E+00  0.0000E+00  0.0000E+00  0.0000E+00  0.0000E+00
 44  0.0000E+00  8.8128E-02  0.0000E+00  0.0000E+00  0.0000E+00  0.0000E+00  0.0000E+00  0.0000E+00  0.0000E+00
 45  0.0000E+00  3.4091E-01  2.2085E-01  0.0000E+00  0.0000E+00  0.0000E+00  0.0000E+00  0.0000E+00  0.0000E+00

# AV, chi2 & Mass for <> & i_chain = 1 ...  7 solutions
AV       1.6535      1.6421      1.6438      1.6438      1.6464      1.6467      1.6471      1.6441      1.6461
chi2 2.4735E+00  2.5083E+00  2.4970E+00  2.4957E+00  2.4977E+00  2.4893E+00  2.4926E+00  2.4975E+00  2.4929E+00
Mass 2.0201E-09  2.0417E-09  2.0312E-09  2.0345E-09  2.0303E-09  2.0314E-09  2.0500E-09  2.0326E-09  2.0380E-09
 -12.63                                  [v0_min (km/s) before EX0s...]
  50.34                                  [vd_min (km/s) before EX0s...]


## Synthetic spectrum (Best Model) ##l_obs f_obs f_syn wei
 3070    [Nl_obs]
 3359.00    0.00000   0.44183   -2.000
 3360.00    0.03347   0.42334   -1.000
 3361.00    0.22091   0.42248   -1.000
 3362.00    0.23046   0.44097   -1.000
 3363.00    0.24720   0.46651   -1.000
 3364.00    0.25518   0.48397   -1.000
 3365.00    0.26359   0.48494   -1.000
 3366.00    0.26715   0.47099   -1.000
 3367.00    0.26695   0.45153   -1.000
 3368.00    0.26084   0.43773   -1.000
 3369.00    0.25089   0.43329   -1.000
 3370.00    0.24019   0.43350   -1.000
 3371.00    0.24586   0.43095   -1.000
 3372.00    0.25243   0.42867   -1.000
 3373.00    0.25670   0.43656   -1.000
 3374.00    0.26443   0.45715   -1.000
 3375.00    0.27956   0.48383   -1.000
 3376.00    0.29598   0.49787   -1.000
 3377.00    0.29952   0.49074   -1.000
 3378.00    0.30092   0.47115   -1.000
 3379.00    0.29520   0.45247   -1.000
 3380.00    0.29040   0.44721   -1.000
 3381.00    0.29195   0.45595   -1.000
 3382.00    0.29511   0.47194   -1.000
 3383.00    0.30084   0.48450   -1.000
 3384.00    0.30582   0.49276   -1.000
 3385.00    0.31050   0.50046   -1.000
 3386.00    0.31445   0.50465   -1.000
 3387.00    0.31709   0.50320   -1.000
 3388.00    0.31703   0.50023   -1.000
 3389.00    0.32888   0.49862   -1.000
 3390.00    0.33383   0.49638   -1.000
 3391.00    0.33775   0.48983   -1.000
 3392.00    0.33890   0.48042   -1.000
 3393.00    0.33661   0.47688   -1.000
 3394.00    0.34669   0.48486   -1.000
 3395.00    0.35629   0.50054   -1.000
 3396.00    0.36560   0.51644   -1.000
 3397.00    0.37949   0.52789   -1.000
 3398.00    0.39390   0.53247   -1.000
 3399.00    0.40350   0.52902   -1.000
 3400.00    0.40649   0.52099   -1.000
 3401.00    0.40921   0.51075   -1.000
 3402.00    0.40973   0.49848   -1.000
 3403.00    0.39622   0.48931   -1.000
 3404.00    0.39604   0.48617   -1.000
 3405.00    0.39454   0.48448   -1.000
 3406.00    0.38781   0.47984   -1.000
 3407.00    0.38557   0.47425   -1.000
 3408.00    0.38289   0.47280   -1.000
 3409.00    0.38217   0.47892   -1.000
 3410.00    0.39032   0.48750   -1.000
 3411.00    0.39482   0.49057   -1.000
 3412.00    0.39413   0.48699   -1.000
 3413.00    0.39215   0.48102   -1.000
 3414.00    0.39290   0.47919   -1.000
 3415.00    0.39403   0.48332   -1.000
 3416.00    0.39704   0.49276   -1.000
 3417.00    0.40723   0.50494   -1.000
 3418.00    0.41740   0.51819   -1.000
 3419.00    0.43015   0.52899   -1.000
 3420.00    0.44402   0.53241   -1.000
 3421.00    0.44636   0.52741   -1.000
 3422.00    0.43946   0.51944   -1.000
 3423.00    0.43858   0.51299   -1.000
 3424.00    0.43937   0.51071   -1.000
 3425.00    0.43818   0.51176   -1.000
 3426.00    0.44079   0.51592   -1.000
 3427.00    0.44809   0.52509   -1.000
 3428.00    0.45958   0.53954   -1.000
 3429.00    0.46638   0.54938   -1.000
 3430.00    0.47347   0.54802   -1.000
 3431.00    0.47189   0.53686   -1.000
 3432.00    0.46176   0.52406   -1.000
 3433.00    0.45756   0.51809   -1.000
 3434.00    0.45886   0.52016   43.334
 3435.00    0.46539   0.52613   48.925
 3436.00    0.47026   0.52770   -1.000
 3437.00    0.46310   0.52171   -1.000
 3438.00    0.45178   0.50754   43.321
 3439.00    0.43663   0.48671   45.447
 3440.00    0.41618   0.46276   48.304
 3441.00    0.40187   0.44640   51.926
 3442.00    0.40292   0.44422   53.728
 3443.00    0.40921   0.45291   53.753
 3444.00    0.42029   0.46387   53.259
 3445.00    0.43122   0.47499   51.010
 3446.00    0.44068   0.48963   48.204
 3447.00    0.45437   0.50857   45.670
 3448.00    0.46772   0.52704   50.118
 3449.00    0.48468   0.53599   -1.000
 3450.00    0.48409   0.53040   -1.000
 3451.00    0.48023   0.51550   -1.000
 3452.00    0.47109   0.49927   -1.000
 3453.00    0.47487   0.49243   -1.000
 3454.00    0.47797   0.49632   -1.000
 3455.00    0.48656   0.50457   -1.000
 3456.00    0.48742   0.50791   -1.000
 3457.00    0.48767   0.50133   -1.000
 3458.00    0.48422   0.49058  404.168
 3459.00    0.47594   0.48050  197.655
 3460.00    0.46810   0.47300   43.264
 3461.00    0.46564   0.47377   43.742
 3462.00    0.46785   0.48619   49.036
 3463.00    0.47741   0.50052   -1.000
 3464.00    0.49140   0.50686   -1.000
 3465.00    0.49284   0.50761   -1.000
 3466.00    0.49301   0.50807   -1.000
 3467.00    0.49412   0.51284   -1.000
 3468.00    0.50260   0.51947   -1.000
 3469.00    0.51435   0.52494   -1.000
 3470.00    0.51610   0.52709   -1.000
 3471.00    0.51538   0.52353  365.438
 3472.00    0.50952   0.51418  370.053
 3473.00    0.49780   0.49983  383.593
 3474.00    0.48280   0.48192  402.389
 3475.00    0.46330   0.46917  202.156
 3476.00    0.46208   0.46913   43.746
 3477.00    0.46497   0.48011   45.076
 3478.00    0.47607   0.49438   49.604
 3479.00    0.49664   0.50630   -1.000
 3480.00    0.51169   0.51246  380.712
 3481.00    0.51663   0.51204  370.053
 3482.00    0.51628   0.50577   -1.000
 3483.00    0.51565   0.49891   -1.000
 3484.00    0.50870   0.49951   -1.000
 3485.00    0.51498   0.51123  377.417
 3486.00    0.52267   0.52727  368.443
 3487.00    0.53411   0.53315  357.071
 3488.00    0.52691   0.52430  351.330
 3489.00    0.50611   0.50676  360.974
 3490.00    0.49207   0.49415  383.566
 3491.00    0.48022   0.49374   -1.000
 3492.00    0.48193   0.49960   -1.000
 3493.00    0.49580   0.50221  406.645
 3494.00    0.49267   0.49700  401.895
 3495.00    0.48457   0.48821  396.430
 3496.00    0.48194   0.48444  395.775
 3497.00    0.48445   0.49373   -1.000
 3498.00    0.49339   0.51178   -1.000
 3499.00    0.51272   0.52283   -1.000
 3500.00    0.52723   0.52424  360.532
 3501.00    0.53354   0.52447   -1.000
 3502.00    0.53398   0.52827  340.514
 3503.00    0.54356   0.53210   -1.000
 3504.00    0.53877   0.52812   -1.000
 3505.00    0.53121   0.51919   -1.000
 3506.00    0.51806   0.51382  349.316
 3507.00    0.52235   0.51432  355.120
 3508.00    0.52870   0.51642   -1.000
 3509.00    0.53270   0.51430   -1.000
 3510.00    0.52173   0.50795   -1.000
 3511.00    0.50901   0.50112  365.976
 3512.00    0.50728   0.49441   -1.000
 3513.00    0.50257   0.48813   -1.000
 3514.00    0.49517   0.49063  391.879
 3515.00    0.50271   0.50412  398.962
 3516.00    0.51910   0.52307  387.248
 3517.00    0.53761   0.53848  366.364
 3518.00    0.54484   0.54187  346.215
 3519.00    0.53059   0.53335  342.803
 3520.00    0.52074   0.51788  353.908
 3521.00    0.51342   0.50408   -1.000
 3522.00    0.50300   0.49356   -1.000
 3523.00    0.48722   0.48268  398.808
 3524.00    0.47044   0.47319  212.878
 3525.00    0.46301   0.46942   43.339
 3526.00    0.46817   0.47682   44.705
 3527.00    0.48117   0.49532   49.260
 3528.00    0.49900   0.51607   -1.000
 3529.00    0.51501   0.52951   -1.000
 3530.00    0.52444   0.53265   -1.000
 3531.00    0.52490   0.53029  359.325
 3532.00    0.52764   0.52958  366.558
 3533.00    0.52954   0.53372  368.135
 3534.00    0.53351   0.53994  363.738
 3535.00    0.53846   0.54430  357.435
 3536.00    0.54606   0.54605  350.034
 3537.00    0.54432   0.54882  345.465
 3538.00    0.55142   0.55461  346.918
 3539.00    0.55251   0.55904  342.977
 3540.00    0.54971   0.55757  339.352
 3541.00    0.55392   0.55451  342.781
 3542.00    0.54317   0.55662   -1.000
 3543.00    0.53996   0.56205   -1.000
 3544.00    0.54500   0.56677   -1.000
 3545.00    0.54539   0.56656   -1.000
 3546.00    0.54320   0.56312   -1.000
 3547.00    0.54762   0.56089   -1.000
 3548.00    0.53926   0.56134   -1.000
 3549.00    0.54195   0.56387   -1.000
 3550.00    0.54886   0.56569   -1.000
 3551.00    0.54514   0.56417   -1.000
 3552.00    0.53130   0.55803   -1.000
 3553.00    0.52495   0.55090   -1.000
 3554.00    0.52388   0.54710   -1.000
 3555.00    0.52300   0.54793   -1.000
 3556.00    0.52300   0.55014   -1.000
 3557.00    0.52426   0.54926   -1.000
 3558.00    0.52852   0.54546   -1.000
 3559.00    0.52431   0.54327   -1.000
 3560.00    0.52766   0.54785   -1.000
 3561.00    0.53301   0.55848   -1.000
 3562.00    0.53454   0.56563   -1.000
 3563.00    0.53675   0.55672   -1.000
 3564.00    0.52042   0.52912   -1.000
 3565.00    0.49441   0.50348  219.638
 3566.00    0.48033   0.49342   43.785
 3567.00    0.47766   0.49413   45.353
 3568.00    0.47789   0.49310   44.833
 3569.00    0.47355   0.48275   44.761
 3570.00    0.46737   0.47267   46.245
 3571.00    0.46553   0.47353   46.850
 3572.00    0.47521   0.48244   45.291
 3573.00    0.48976   0.49099   47.669
 3574.00    0.49821   0.49483  417.955
 3575.00    0.50310   0.49665  412.227
 3576.00    0.50687   0.49963  411.703
 3577.00    0.50906   0.50084   -1.000
 3578.00    0.49843   0.49481  413.542
 3579.00    0.49382   0.47967   -1.000
 3580.00    0.47405   0.46287   45.401
 3581.00    0.45441   0.45309   48.937
 3582.00    0.44610   0.45301   51.379
 3583.00    0.45172   0.45649   51.673
 3584.00    0.45354   0.45278   51.989
 3585.00    0.43300   0.44336   53.357
 3586.00    0.42676   0.43847   55.031
 3587.00    0.43377   0.44272   55.437
 3588.00    0.44778   0.45604   52.578
 3589.00    0.46115   0.47541   49.799
 3590.00    0.48198   0.49650   47.182
 3591.00    0.50112   0.51243   47.284
 3592.00    0.51888   0.51971  398.660
 3593.00    0.53028   0.52133   -1.000
 3594.00    0.53133   0.52483  384.004
 3595.00    0.53554   0.53465  376.990
 3596.00    0.54587   0.54672  364.232
 3597.00    0.55843   0.55732  347.104
 3598.00    0.56248   0.56550  337.144
 3599.00    0.57594   0.56864  328.632
 3600.00    0.56803   0.56364  324.147
 3601.00    0.55567   0.54950  329.227
 3602.00    0.54331   0.53092   -1.000
 3603.00    0.52966   0.51555   -1.000
 3604.00    0.52409   0.50955   -1.000
 3605.00    0.52378   0.51207   -1.000
 3606.00    0.52660   0.51457   -1.000
 3607.00    0.52429   0.51092   -1.000
 3608.00    0.50918   0.50214  390.652
 3609.00    0.49653   0.49767  410.190
 3610.00    0.49685   0.50399   -1.000
 3611.00    0.50352   0.51319   -1.000
 3612.00    0.51536   0.51952  393.636
 3613.00    0.52272   0.52497  379.996
 3614.00    0.52955   0.53286  371.231
 3615.00    0.53801   0.54107  363.898
 3616.00    0.54072   0.53672  351.747
 3617.00    0.52954   0.51501   -1.000
 3618.00    0.50449   0.49608   -1.000
 3619.00    0.48859   0.49538  238.672
 3620.00    0.50054   0.51114   46.549
 3621.00    0.52359   0.53155   -1.000
 3622.00    0.54531   0.54678  365.815
 3623.00    0.55449   0.55485  346.164
 3624.00    0.56004   0.56364  338.384
 3625.00    0.56934   0.57949   -1.000
 3626.00    0.58378   0.59756   -1.000
 3627.00    0.59701   0.60894   -1.000
 3628.00    0.58831   0.60211   -1.000
 3629.00    0.56750   0.57376  311.404
 3630.00    0.53455   0.53856  332.240
 3631.00    0.50763   0.51481  371.491
 3632.00    0.50329   0.51222   -1.000
 3633.00    0.51550   0.52394   -1.000
 3634.00    0.52715   0.53714   -1.000
 3635.00    0.53080   0.54304   -1.000
 3636.00    0.54042   0.54592  367.548
 3637.00    0.55180   0.55500  353.350
 3638.00    0.57473   0.56967  336.678
 3639.00    0.58228   0.58356  321.848
 3640.00    0.58827   0.58701  311.976
 3641.00    0.57791   0.57835  312.432
 3642.00    0.55673   0.56249  320.681
 3643.00    0.55217   0.54661  332.098
 3644.00    0.54123   0.53701  349.675
 3645.00    0.53464   0.53271  359.415
 3646.00    0.53107   0.52853  365.442
 3647.00    0.52705   0.52510  371.101
 3648.00    0.52408   0.52542  377.437
 3649.00    0.52923   0.53111  376.760
 3650.00    0.53902   0.54269  365.902
 3651.00    0.55721   0.55842  350.771
 3652.00    0.57634   0.57304  333.882
 3653.00    0.59034   0.58385  320.372
 3654.00    0.59138   0.58990  312.861
 3655.00    0.59228   0.59465  308.826
 3656.00    0.60237   0.60210  307.641
 3657.00    0.60713   0.60915  304.056
 3658.00    0.61047   0.61263  300.755
 3659.00    0.61007   0.61221  295.989
 3660.00    0.60592   0.60837  296.391
 3661.00    0.60554   0.60181  296.607
 3662.00    0.59945   0.59387  299.969
 3663.00    0.59360   0.58719  303.329
 3664.00    0.59150   0.58504  308.371
 3665.00    0.59059   0.58650  310.192
 3666.00    0.60070   0.58741   -1.000
 3667.00    0.60055   0.58311   -1.000
 3668.00    0.58739   0.57451   -1.000
 3669.00    0.57380   0.57185  317.456
 3670.00    0.57464   0.57910  324.697
 3671.00    0.58915   0.59141  321.619
 3672.00    0.60559   0.60038  309.734
 3673.00    0.61169   0.60140  304.001
 3674.00    0.60834   0.59678   -1.000
 3675.00    0.60532   0.58745   -1.000
 3676.00    0.59563   0.57525   -1.000
 3677.00    0.58419   0.56303   -1.000
 3678.00    0.57354   0.55324   -1.000
 3679.00    0.56229   0.54925   -1.000
 3680.00    0.56186   0.55098   -1.000
 3681.00    0.57524   0.55713   -1.000
 3682.00    0.58225   0.56436   -1.000
 3683.00    0.58277   0.56812   -1.000
 3684.00    0.57979   0.56303   -1.000
 3685.00    0.57027   0.54800   -1.000
 3686.00    0.55382   0.53400   -1.000
 3687.00    0.54732   0.53259   -1.000
 3688.00    0.56181   0.54718   -1.000
 3689.00    0.58330   0.56971   -1.000
 3690.00    0.60402   0.58881   -1.000
 3691.00    0.61511   0.59644   -1.000
 3692.00    0.61714   0.59676   -1.000
 3693.00    0.61526   0.59660   -1.000
 3694.00    0.61372   0.59530   -1.000
 3695.00    0.61367   0.59039   -1.000
 3696.00    0.61366   0.58554   -1.000
 3697.00    0.61589   0.59052   -1.000
 3698.00    0.62412   0.60889   -1.000
 3699.00    0.64216   0.63159  292.304
 3700.00    0.65916   0.64244   -1.000
 3701.00    0.65317   0.62969   -1.000
 3702.00    0.62711   0.59348   -1.000
 3703.00    0.59264   0.54963   -1.000
 3704.00    0.55279   0.51660   -1.000
 3705.00    0.53847   0.50750   -1.000
 3706.00    0.54452   0.51801   -1.000
 3707.00    0.55618   0.53438   -1.000
 3708.00    0.56751   0.54707   -1.000
 3709.00    0.57298   0.55040   -1.000
 3710.00    0.58080   0.54781   -1.000
 3711.00    0.58654   0.55144   -1.000
 3712.00    0.60795   0.57029   -1.000
 3713.00    0.63504   0.59967   -1.000
 3714.00    0.65988   0.62901   -1.000
 3715.00    0.67334   0.64788   -1.000
 3716.00    0.67596   0.65077   -1.000
 3717.00    0.66224   0.63668   -1.000
 3718.00    0.63260   0.60188   -1.000
 3719.00    0.57496   0.54741   -1.000
 3720.00    0.52983   0.49628   -1.000
 3721.00    0.49688   0.47152   -1.000
 3722.00    0.50134   0.48212   46.352
 3723.00    0.54579   0.52257   -1.000
 3724.00    0.60227   0.57332   -1.000
 3725.00    0.63495   0.60734   -1.000
 3726.00    0.64620   0.61797   -1.000
 3727.00    0.63181   0.62236  314.747
 3728.00    0.63231   0.62947  324.834
 3729.00    0.63544   0.63341  326.882
 3730.00    0.63771   0.62086   -1.000
 3731.00    0.61543   0.58302   -1.000
 3732.00    0.57046   0.52778   -1.000
 3733.00    0.51636   0.47254   -1.000
 3734.00    0.47362   0.43612   43.295
 3735.00    0.45597   0.43174   48.360
 3736.00    0.47125   0.45966   49.880
 3737.00    0.51388   0.50920   47.204
 3738.00    0.55927   0.56750   45.261
 3739.00    0.60784   0.61834   -1.000
 3740.00    0.64451   0.64837  340.479
 3741.00    0.65630   0.65513  321.939
 3742.00    0.64377   0.64336  321.191
 3743.00    0.62492   0.62029  334.581
 3744.00    0.60444   0.59451   -1.000
 3745.00    0.57662   0.56890   -1.000
 3746.00    0.55858   0.54037   -1.000
 3747.00    0.53222   0.50350   -1.000
 3748.00    0.49285   0.46206   43.780
 3749.00    0.46887   0.43858   46.510
 3750.00    0.48117   0.45154   49.317
 3751.00    0.53221   0.49711   -1.000
 3752.00    0.58684   0.55706   -1.000
 3753.00    0.63857   0.61428   -1.000
 3754.00    0.68480   0.65616   -1.000
 3755.00    0.70531   0.67356   -1.000
 3756.00    0.69640   0.66198   -1.000
 3757.00    0.66231   0.63211   -1.000
 3758.00    0.62649   0.60502   -1.000
 3759.00    0.61262   0.59680   -1.000
 3760.00    0.62353   0.60596   -1.000
 3761.00    0.64962   0.61991   -1.000
 3762.00    0.66905   0.63182   -1.000
 3763.00    0.66480   0.63838   -1.000
 3764.00    0.66455   0.63646   -1.000
 3765.00    0.65901   0.62438   -1.000
 3766.00    0.64560   0.60428   -1.000
 3767.00    0.62469   0.57879   -1.000
 3768.00    0.60979   0.54936   -1.000
 3769.00    0.60124   0.52083   -1.000
 3770.00    0.58728   0.50595   -1.000
 3771.00    0.58855   0.51872   -1.000
 3772.00    0.61898   0.55641   -1.000
 3773.00    0.65253   0.59736   -1.000
 3774.00    0.67767   0.62775   -1.000
 3775.00    0.69094   0.64947   -1.000
 3776.00    0.69982   0.66882   -1.000
 3777.00    0.71613   0.68963   -1.000
 3778.00    0.73392   0.71137   -1.000
 3779.00    0.75181   0.73135   -1.000
 3780.00    0.76299   0.74645   -1.000
 3781.00    0.77529   0.75581   -1.000
 3782.00    0.77891   0.76066   -1.000
 3783.00    0.78077   0.75971   -1.000
 3784.00    0.77079   0.74876   -1.000
 3785.00    0.75620   0.72618   -1.000
 3786.00    0.72898   0.69957   -1.000
 3787.00    0.69620   0.67868   -1.000
 3788.00    0.68654   0.66766   -1.000
 3789.00    0.68336   0.66419   -1.000
 3790.00    0.68783   0.66370   -1.000
 3791.00    0.69162   0.65903   -1.000
 3792.00    0.67984   0.64391   -1.000
 3793.00    0.65750   0.61798   -1.000
 3794.00    0.62942   0.58383   -1.000
 3795.00    0.59930   0.54472   -1.000
 3796.00    0.56636   0.50318   -1.000
 3797.00    0.53376   0.46758   -1.000
 3798.00    0.52102   0.46006   -1.000
 3799.00    0.54804   0.49282   -1.000
 3800.00    0.58863   0.55081   -1.000
 3801.00    0.63808   0.61258   -1.000
 3802.00    0.68059   0.66147   -1.000
 3803.00    0.70779   0.69205   -1.000
 3804.00    0.72302   0.70586   -1.000
 3805.00    0.71867   0.70550   -1.000
 3806.00    0.70518   0.70017  308.275
 3807.00    0.70347   0.70561  320.033
 3808.00    0.72024   0.72496  325.539
 3809.00    0.74398   0.74886  316.498
 3810.00    0.75898   0.76413  304.398
 3811.00    0.75665   0.75908  301.560
 3812.00    0.73673   0.73373  308.102
 3813.00    0.71090   0.69930   -1.000
 3814.00    0.68733   0.67201   -1.000
 3815.00    0.67292   0.66544  366.059
 3816.00    0.68190   0.67742  381.718
 3817.00    0.69054   0.68885  374.209
 3818.00    0.69446   0.68425   -1.000
 3819.00    0.67574   0.66378   -1.000
 3820.00    0.65196   0.64590  394.103
 3821.00    0.64330   0.64654  413.327
 3822.00    0.66050   0.65417  402.674
 3823.00    0.66645   0.64888   -1.000
 3824.00    0.64346   0.62768   -1.000
 3825.00    0.60898   0.60359  328.520
 3826.00    0.59556   0.58878   45.147
 3827.00    0.59369   0.58325   46.057
 3828.00    0.58879   0.58030   45.617
 3829.00    0.59145   0.57269   44.870
 3830.00    0.58026   0.55591   44.175
 3831.00    0.55780   0.52766   44.806
 3832.00    0.51956   0.48971   46.947
 3833.00    0.48427   0.44895   50.698
 3834.00    0.47010   0.41915   52.103
 3835.00    0.47004   0.41125   50.977
 3836.00    0.48278   0.42385   48.913
 3837.00    0.49241   0.44790   47.933
 3838.00    0.50600   0.47589   49.016
 3839.00    0.52489   0.50871   50.143
 3840.00    0.55457   0.54944   49.131
 3841.00    0.59492   0.59489   47.662
 3842.00    0.64018   0.63850  418.853
 3843.00    0.67923   0.67253  378.973
 3844.00    0.70072   0.69360  355.712
 3845.00    0.71384   0.70787  349.663
 3846.00    0.72160   0.72146  349.795
 3847.00    0.72227   0.73205   -1.000
 3848.00    0.72129   0.73323   -1.000
 3849.00    0.71440   0.72984   -1.000
 3850.00    0.71178   0.73096   -1.000
 3851.00    0.71537   0.74044   -1.000
 3852.00    0.73396   0.75190   -1.000
 3853.00    0.73986   0.75352   -1.000
 3854.00    0.73423   0.74373   -1.000
 3855.00    0.72503   0.73064  372.527
 3856.00    0.70563   0.71800   -1.000
 3857.00    0.69457   0.70508   -1.000
 3858.00    0.67597   0.69255   -1.000
 3859.00    0.65304   0.68777   42.786
 3860.00    0.65367   0.69905   45.424
 3861.00    0.68652   0.72224   45.397
 3862.00    0.72431   0.74514   -1.000
 3863.00    0.75516   0.75456  356.180
 3864.00    0.76560   0.75343   -1.000
 3865.00    0.75782   0.75044  343.839
 3866.00    0.74870   0.74937  350.806
 3867.00    0.74556   0.75138  356.079
 3868.00    0.74649   0.75154  363.279
 3869.00    0.72633   0.74243   -1.000
 3870.00    0.69737   0.72233   -1.000
 3871.00    0.67701   0.69793   -1.000
 3872.00    0.67027   0.68422   44.180
 3873.00    0.68611   0.69105  418.326
 3874.00    0.71891   0.71427  378.645
 3875.00    0.73879   0.72992   -1.000
 3876.00    0.73176   0.72229   -1.000
 3877.00    0.70091   0.69958  344.285
 3878.00    0.67150   0.68161   -1.000
 3879.00    0.66910   0.67745   -1.000
 3880.00    0.66568   0.67870   -1.000
 3881.00    0.65415   0.67465   -1.000
 3882.00    0.64275   0.66425   -1.000
 3883.00    0.65317   0.65002  399.043
 3884.00    0.66619   0.62860   -1.000
 3885.00    0.64769   0.59185   -1.000
 3886.00    0.61186   0.54224   -1.000
 3887.00    0.58442   0.49683   -1.000
 3888.00    0.56263   0.47182   -1.000
 3889.00    0.56785   0.48017   -1.000
 3890.00    0.60445   0.52070   -1.000
 3891.00    0.65161   0.57678   -1.000
 3892.00    0.70107   0.62290   -1.000
 3893.00    0.71906   0.64910   -1.000
 3894.00    0.72396   0.66409   -1.000
 3895.00    0.72879   0.68034   -1.000
 3896.00    0.74436   0.70011   -1.000
 3897.00    0.76794   0.71493   -1.000
 3898.00    0.77318   0.72122   -1.000
 3899.00    0.76611   0.72593   -1.000
 3900.00    0.77018   0.73563   -1.000
 3901.00    0.78217   0.74697   -1.000
 3902.00    0.79476   0.75199   -1.000
 3903.00    0.78768   0.74603   -1.000
 3904.00    0.77136   0.73502   -1.000
 3905.00    0.75763   0.73044   -1.000
 3906.00    0.76071   0.73976   -1.000
 3907.00    0.78297   0.76438   -1.000
 3908.00    0.81543   0.79482   -1.000
 3909.00    0.83805   0.81639   -1.000
 3910.00    0.85473   0.82735   -1.000
 3911.00    0.86213   0.83105   -1.000
 3912.00    0.85847   0.82820   -1.000
 3913.00    0.84619   0.82071   -1.000
 3914.00    0.83602   0.81281   -1.000
 3915.00    0.83167   0.80691   -1.000
 3916.00    0.82571   0.80293   -1.000
 3917.00    0.81614   0.79713   -1.000
 3918.00    0.80768   0.78663   -1.000
 3919.00    0.78649   0.77330   -1.000
 3920.00    0.77509   0.76237   -1.000
 3921.00    0.76162   0.76005  319.006
 3922.00    0.76500   0.76531  325.216
 3923.00    0.77513   0.77074  321.984
 3924.00    0.77323   0.76733  316.013
 3925.00    0.75463   0.75073  318.881
 3926.00    0.71700   0.72163  335.415
 3927.00    0.67075   0.68206   -1.000
 3928.00    0.61948   0.63709   -1.000
 3929.00    0.55660   0.58788   47.824
 3930.00    0.50363   0.53164   56.079
 3931.00    0.44731   0.47020   65.606
 3932.00    0.38041   0.41152   77.660
 3933.00    0.33167   0.37841   -1.000
 3934.00    0.31161   0.38968   -1.000
 3935.00    0.34977   0.43982   -1.000
 3936.00    0.42574   0.50719   -1.000
 3937.00    0.50626   0.57542   -1.000
 3938.00    0.57657   0.63349   -1.000
 3939.00    0.63386   0.68018   47.027
 3940.00    0.67091   0.71336   -1.000
 3941.00    0.69191   0.73024   -1.000
 3942.00    0.71035   0.73492   -1.000
 3943.00    0.71047   0.73482   -1.000
 3944.00    0.72382   0.74001   -1.000
 3945.00    0.75862   0.75420  347.169
 3946.00    0.78459   0.76872   -1.000
 3947.00    0.79531   0.77637   -1.000
 3948.00    0.79941   0.78092   -1.000
 3949.00    0.80613   0.78712   -1.000
 3950.00    0.81496   0.79103   -1.000
 3951.00    0.81886   0.79040   -1.000
 3952.00    0.81492   0.79074   -1.000
 3953.00    0.82239   0.79548   -1.000
 3954.00    0.83452   0.79798   -1.000
 3955.00    0.82437   0.78978   -1.000
 3956.00    0.80328   0.77705   -1.000
 3957.00    0.79369   0.77170   -1.000
 3958.00    0.79879   0.77020   -1.000
 3959.00    0.78772   0.75755   -1.000
 3960.00    0.75052   0.72549   -1.000
 3961.00    0.70116   0.68232   -1.000
 3962.00    0.64921   0.64397  357.193
 3963.00    0.61557   0.61082  395.048
 3964.00    0.58132   0.57203   -1.000
 3965.00    0.51811   0.51572   44.933
 3966.00    0.43688   0.43984   52.778
 3967.00    0.35688   0.36584   65.195
 3968.00    0.29974   0.31802   79.741
 3969.00    0.28770   0.31169   87.948
 3970.00    0.32738   0.34655   81.471
 3971.00    0.40375   0.40981   67.056
 3972.00    0.48400   0.48214   55.084
 3973.00    0.55507   0.55234   46.093
 3974.00    0.62248   0.61407   -1.000
 3975.00    0.68392   0.66591   -1.000
 3976.00    0.73013   0.70934   -1.000
 3977.00    0.76907   0.74647   -1.000
 3978.00    0.80095   0.78119   -1.000
 3979.00    0.84063   0.80826   -1.000
 3980.00    0.85705   0.82154   -1.000
 3981.00    0.85776   0.82234   -1.000
 3982.00    0.85847   0.82113   -1.000
 3983.00    0.85713   0.82716   -1.000
 3984.00    0.87065   0.83893   -1.000
 3985.00    0.89343   0.85043   -1.000
 3986.00    0.90921   0.86070   -1.000
 3987.00    0.91659   0.87195   -1.000
 3988.00    0.92754   0.88377   -1.000
 3989.00    0.93148   0.89285   -1.000
 3990.00    0.93035   0.90046   -1.000
 3991.00    0.94226   0.91005   -1.000
 3992.00    0.96671   0.91939   -1.000
 3993.00    0.96426   0.92172   -1.000
 3994.00    0.94716   0.91435   -1.000
 3995.00    0.93501   0.90040   -1.000
 3996.00    0.91650   0.88723   -1.000
 3997.00    0.90769   0.88418   -1.000
 3998.00    0.92086   0.89379   -1.000
 3999.00    0.94225   0.91045   -1.000
 4000.00    0.96536   0.92806   -1.000
 4001.00    0.97836   0.93895   -1.000
 4002.00    0.98960   0.93749   -1.000
 4003.00    0.98314   0.92218   -1.000
 4004.00    0.95357   0.89730   -1.000
 4005.00    0.92253   0.87744   -1.000
 4006.00    0.91892   0.88156   -1.000
 4007.00    0.94470   0.90566   -1.000
 4008.00    0.97730   0.93194   -1.000
 4009.00    0.99176   0.94869   -1.000
 4010.00    0.99077   0.95497   -1.000
 4011.00    0.99256   0.95607   -1.000
 4012.00    0.98943   0.95660   -1.000
 4013.00    0.98965   0.95914   -1.000
 4014.00    0.99270   0.96255   -1.000
 4015.00    0.99981   0.96442   -1.000
 4016.00    1.00017   0.96538   -1.000
 4017.00    0.99603   0.96811   -1.000
 4018.00    1.00046   0.97450   -1.000
 4019.00    1.01059   0.98137   -1.000
 4020.00    1.01063   0.98449   -1.000
 4021.00    1.00378   0.98204   -1.000
 4022.00    0.99613   0.97549   -1.000
 4023.00    0.99344   0.96626   -1.000
 4024.00    0.99331   0.95947   -1.000
 4025.00    0.99199   0.96298   -1.000
 4026.00    1.01017   0.97746   -1.000
 4027.00    1.03517   0.99097   -1.000
 4028.00    1.03176   0.98695   -1.000
 4029.00    1.00634   0.96465   -1.000
 4030.00    0.97235   0.93667   -1.000
 4031.00    0.94770   0.91592   -1.000
 4032.00    0.94280   0.91005   -1.000
 4033.00    0.95012   0.91763   -1.000
 4034.00    0.96045   0.93567   -1.000
 4035.00    0.98636   0.96125   -1.000
 4036.00    1.02357   0.99185   -1.000
 4037.00    1.05075   1.01756   -1.000
 4038.00    1.05778   1.02599   -1.000
 4039.00    1.04631   1.01780   -1.000
 4040.00    1.03008   1.00740   -1.000
 4041.00    1.02517   1.00075   -1.000
 4042.00    1.02032   0.98991   -1.000
 4043.00    1.00170   0.96116   -1.000
 4044.00    0.95051   0.91884   -1.000
 4045.00    0.89741   0.89467  235.452
 4046.00    0.91233   0.90550  253.709
 4047.00    0.96320   0.94183   -1.000
 4048.00    1.01290   0.98134   -1.000
 4049.00    1.04020   1.00608   -1.000
 4050.00    1.04028   1.01341   -1.000
 4051.00    1.03719   1.00816   -1.000
 4052.00    1.02911   0.99451   -1.000
 4053.00    1.01175   0.97915   -1.000
 4054.00    1.00000   0.97086   -1.000
 4055.00    0.99761   0.96724   -1.000
 4056.00    0.99578   0.96317   -1.000
 4057.00    0.98930   0.96236   -1.000
 4058.00    0.99158   0.97061   -1.000
 4059.00    1.01329   0.98629   -1.000
 4060.00    1.03301   0.99253   -1.000
 4061.00    1.02279   0.97616   -1.000
 4062.00    0.98164   0.94532   -1.000
 4063.00    0.94204   0.91735   -1.000
 4064.00    0.93821   0.90698   -1.000
 4065.00    0.95869   0.91281   -1.000
 4066.00    0.97753   0.92651   -1.000
 4067.00    0.99276   0.94286   -1.000
 4068.00    1.01634   0.95774   -1.000
 4069.00    1.02719   0.95943   -1.000
 4070.00    1.01355   0.94385   -1.000
 4071.00    0.98194   0.92551   -1.000
 4072.00    0.97548   0.92220   -1.000
 4073.00    0.98836   0.93269   -1.000
 4074.00    1.00476   0.93523   -1.000
 4075.00    0.98400   0.91737   -1.000
 4076.00    0.93746   0.88997   -1.000
 4077.00    0.90554   0.87361   -1.000
 4078.00    0.90862   0.88243   -1.000
 4079.00    0.94359   0.91281   -1.000
 4080.00    0.99113   0.94742   -1.000
 4081.00    1.01378   0.96456   -1.000
 4082.00    1.01705   0.95944   -1.000
 4083.00    0.99790   0.94266   -1.000
 4084.00    0.98053   0.93134   -1.000
 4085.00    0.97891   0.93573   -1.000
 4086.00    0.99970   0.95344   -1.000
 4087.00    1.02870   0.97418   -1.000
 4088.00    1.04553   0.98497   -1.000
 4089.00    1.04600   0.98119   -1.000
 4090.00    1.03360   0.96792   -1.000
 4091.00    1.02222   0.95518   -1.000
 4092.00    1.00226   0.94547   -1.000
 4093.00    0.99825   0.93327   -1.000
 4094.00    0.98794   0.91284   -1.000
 4095.00    0.96196   0.88395   -1.000
 4096.00    0.93329   0.85302   -1.000
 4097.00    0.90540   0.82085   -1.000
 4098.00    0.88458   0.78005   -1.000
 4099.00    0.84375   0.72329   -1.000
 4100.00    0.77842   0.65878   -1.000
 4101.00    0.71514   0.61667   -1.000
 4102.00    0.71019   0.62261   -1.000
 4103.00    0.76230   0.67562   -1.000
 4104.00    0.83080   0.74960   -1.000
 4105.00    0.88672   0.81186   -1.000
 4106.00    0.92588   0.85174   -1.000
 4107.00    0.94358   0.87499   -1.000
 4108.00    0.94437   0.88737   -1.000
 4109.00    0.94961   0.89543   -1.000
 4110.00    0.95387   0.90562   -1.000
 4111.00    0.96048   0.91946   -1.000
 4112.00    0.97797   0.93549   -1.000
 4113.00    0.99490   0.95333   -1.000
 4114.00    1.00724   0.97208   -1.000
 4115.00    1.01936   0.98510   -1.000
 4116.00    1.02429   0.98712   -1.000
 4117.00    1.01547   0.97898   -1.000
 4118.00    1.00115   0.96826   -1.000
 4119.00    0.99033   0.96221   -1.000
 4120.00    0.98964   0.96354   -1.000
 4121.00    0.99734   0.96859   -1.000
 4122.00    1.00075   0.97427   -1.000
 4123.00    1.00877   0.98209   -1.000
 4124.00    1.02149   0.99165   -1.000
 4125.00    1.03362   0.99633   -1.000
 4126.00    1.02048   0.99087   -1.000
 4127.00    1.00529   0.98052   -1.000
 4128.00    0.99690   0.97410   -1.000
 4129.00    1.00004   0.97254   -1.000
 4130.00    0.99674   0.96677   -1.000
 4131.00    0.99027   0.95329   -1.000
 4132.00    0.96684   0.94190   -1.000
 4133.00    0.95595   0.94487  233.131
 4134.00    0.96619   0.96493  233.810
 4135.00    1.00189   0.99341  226.150
 4136.00    1.03058   1.02032  214.692
 4137.00    1.04308   1.03962  207.664
 4138.00    1.05816   1.05287  204.287
 4139.00    1.06590   1.05736  201.092
 4140.00    1.06103   1.04524  200.276
 4141.00    1.03035   1.01582  204.356
 4142.00    0.98392   0.98133  215.124
 4143.00    0.94634   0.95892   -1.000
 4144.00    0.95605   0.96427  245.844
 4145.00    0.98889   0.99026  237.070
 4146.00    1.02020   1.01432  222.764
 4147.00    1.02867   1.02335  214.384
 4148.00    1.02012   1.02049  212.098
 4149.00    1.01194   1.01788  216.092
 4150.00    1.00927   1.02027   -1.000
 4151.00    1.01036   1.02192   -1.000
 4152.00    1.00802   1.01654  223.387
 4153.00    0.99753   1.00492  222.089
 4154.00    0.98959   0.99529  224.138
 4155.00    0.98955   0.99506  227.843
 4156.00    0.99678   1.00423  222.228
 4157.00    1.00760   1.01843   -1.000
 4158.00    1.01609   1.03360   -1.000
 4159.00    1.01325   1.04499   -1.000
 4160.00    1.02510   1.05126   -1.000
 4161.00    1.05603   1.05603  214.155
 4162.00    1.05563   1.06230  207.612
 4163.00    1.04070   1.06859   -1.000
 4164.00    1.04601   1.07047   -1.000
 4165.00    1.04271   1.06434   -1.000
 4166.00    1.03179   1.05272   -1.000
 4167.00    1.02111   1.04313   -1.000
 4168.00    1.02544   1.04015   -1.000
 4169.00    1.03428   1.03479  219.548
 4170.00    1.02824   1.01519  215.727
 4171.00    0.99234   0.98345  217.894
 4172.00    0.94892   0.95582  230.814
 4173.00    0.93516   0.95153   -1.000
 4174.00    0.94653   0.96950   -1.000
 4175.00    0.96826   0.99109   -1.000
 4176.00    0.97796   1.00124   -1.000
 4177.00    0.97550   1.00381   -1.000
 4178.00    0.97697   1.01035   -1.000
 4179.00    0.99527   1.02177   -1.000
 4180.00    1.00602   1.02834   -1.000
 4181.00    1.01002   1.02606   -1.000
 4182.00    1.00388   1.02269   -1.000
 4183.00    1.00506   1.02731   -1.000
 4184.00    1.01842   1.03516   -1.000
 4185.00    1.02092   1.03443   -1.000
 4186.00    1.00693   1.02435   -1.000
 4187.00    0.98738   1.01445   -1.000
 4188.00    0.98420   1.01431   -1.000
 4189.00    1.00753   1.02260   -1.000
 4190.00    1.02013   1.03225   -1.000
 4191.00    1.02232   1.04273   -1.000
 4192.00    1.02914   1.05408   -1.000
 4193.00    1.04377   1.05868   -1.000
 4194.00    1.03979   1.05006  207.435
 4195.00    1.01147   1.02924   -1.000
 4196.00    0.98689   1.00370   -1.000
 4197.00    0.97576   0.98246  232.137
 4198.00    0.96173   0.96911  236.288
 4199.00    0.96533   0.96458  236.860
 4200.00    0.97406   0.96809  234.307
 4201.00    0.97851   0.97554  230.541
 4202.00    0.98368   0.98451  229.865
 4203.00    0.99138   0.99740  228.401
 4204.00    0.99809   1.01444   -1.000
 4205.00    1.00869   1.03303   -1.000
 4206.00    1.02202   1.05088   -1.000
 4207.00    1.03499   1.06342   -1.000
 4208.00    1.04193   1.06753   -1.000
 4209.00    1.03871   1.06603   -1.000
 4210.00    1.04261   1.06658   -1.000
 4211.00    1.04470   1.07265   -1.000
 4212.00    1.04423   1.07624   -1.000
 4213.00    1.03230   1.06598   -1.000
 4214.00    1.00568   1.04333   -1.000
 4215.00    0.98033   1.02335   -1.000
 4216.00    0.98352   1.01979   -1.000
 4217.00    1.01101   1.03629   -1.000
 4218.00    1.04942   1.06216  209.422
 4219.00    1.07285   1.08141  200.048
 4220.00    1.08166   1.08804  194.416
 4221.00    1.08492   1.08051  192.254
 4222.00    1.06185   1.05547  193.920
 4223.00    1.02700   1.01207   -1.000
 4224.00    0.97524   0.95832   -1.000
 4225.00    0.90818   0.90981  237.253
 4226.00    0.85927   0.88900   -1.000
 4227.00    0.86650   0.91236   -1.000
 4228.00    0.93614   0.97040   -1.000
 4229.00    1.01714   1.02603  237.498
 4230.00    1.06108   1.05518  212.994
 4231.00    1.06245   1.05576  201.636
 4232.00    1.04518   1.04043  199.862
 4233.00    1.03250   1.02450  204.263
 4234.00    1.02036   1.01521  209.654
 4235.00    1.01326   1.01109  211.803
 4236.00    1.00378   1.01016  216.736
 4237.00    1.00950   1.01452  220.708
 4238.00    1.01788   1.02583  219.196
 4239.00    1.02669   1.04026   -1.000
 4240.00    1.03963   1.05337   -1.000
 4241.00    1.05458   1.06245  206.963
 4242.00    1.06028   1.06969  204.148
 4243.00    1.06570   1.07703  203.221
 4244.00    1.07552   1.08068  199.775
 4245.00    1.06820   1.07340  195.555
 4246.00    1.04176   1.05374  197.459
 4247.00    1.01467   1.03165   -1.000
 4248.00    1.00346   1.01831   -1.000
 4249.00    0.98968   1.01720   -1.000
 4250.00    0.99306   1.02623   -1.000
 4251.00    1.01688   1.03907   -1.000
 4252.00    1.03810   1.04745  215.575
 4253.00    1.03950   1.04305  209.468
 4254.00    1.02864   1.03481  210.485
 4255.00    1.02801   1.03852  216.190
 4256.00    1.04343   1.05053  213.626
 4257.00    1.05442   1.05311  205.330
 4258.00    1.04154   1.03629  203.472
 4259.00    1.00747   1.01198  211.092
 4260.00    0.99182   1.00331   -1.000
 4261.00    0.99926   1.02120   -1.000
 4262.00    1.03343   1.05607   -1.000
 4263.00    1.06479   1.08745   -1.000
 4264.00    1.08888   1.10502   -1.000
 4265.00    1.09545   1.10769  192.261
 4266.00    1.09446   1.10028  191.690
 4267.00    1.07759   1.08605  194.750
 4268.00    1.05406   1.06366  201.173
 4269.00    1.03211   1.03244  207.312
 4270.00    0.99711   0.99818  215.264
 4271.00    0.95427   0.97035   -1.000
 4272.00    0.94156   0.95982   -1.000
 4273.00    0.95221   0.96721   -1.000
 4274.00    0.96976   0.98554   -1.000
 4275.00    0.99463   1.01336   -1.000
 4276.00    1.03109   1.04844   -1.000
 4277.00    1.06557   1.07638  210.198
 4278.00    1.07420   1.08370  200.289
 4279.00    1.05295   1.07251   -1.000
 4280.00    1.03445   1.05825   -1.000
 4281.00    1.02158   1.05192   -1.000
 4282.00    1.02039   1.05340   -1.000
 4283.00    1.02935   1.05250   -1.000
 4284.00    1.02656   1.04530   -1.000
 4285.00    1.01088   1.03450   -1.000
 4286.00    0.99406   1.02001   -1.000
 4287.00    0.98598   1.00109   -1.000
 4288.00    0.95954   0.97625   -1.000
 4289.00    0.92849   0.95400   -1.000
 4290.00    0.91289   0.95169   -1.000
 4291.00    0.93704   0.97209   -1.000
 4292.00    0.98460   0.99777   -1.000
 4293.00    1.00832   1.01109  223.620
 4294.00    0.99921   1.00759  219.026
 4295.00    0.99376   0.99440  220.880
 4296.00    0.98224   0.97497  224.506
 4297.00    0.94999   0.94636  229.607
 4298.00    0.90547   0.90888  241.056
 4299.00    0.86481   0.87603  261.797
 4300.00    0.84542   0.85932   -1.000
 4301.00    0.84686   0.85975   -1.000
 4302.00    0.86023   0.87046  277.535
 4303.00    0.87027   0.88635   -1.000
 4304.00    0.88439   0.90151   -1.000
 4305.00    0.89559   0.90486  265.723
 4306.00    0.88387   0.89130  266.713
 4307.00    0.85670   0.87051   -1.000
 4308.00    0.82985   0.85947   -1.000
 4309.00    0.83523   0.87008   -1.000
 4310.00    0.86629   0.89626   -1.000
 4311.00    0.89405   0.92208   -1.000
 4312.00    0.91850   0.94414   -1.000
 4313.00    0.94164   0.97139   -1.000
 4314.00    0.96913   1.01180   -1.000
 4315.00    1.01647   1.06501   -1.000
 4316.00    1.07927   1.11404   -1.000
 4317.00    1.11925   1.14347   -1.000
 4318.00    1.12440   1.14867   -1.000
 4319.00    1.11498   1.13746   -1.000
 4320.00    1.10207   1.11817   -1.000
 4321.00    1.08713   1.09035  187.457
 4322.00    1.05904   1.05056  193.759
 4323.00    1.01321   1.00268  203.231
 4324.00    0.95918   0.96243  218.124
 4325.00    0.93041   0.94987   -1.000
 4326.00    0.95062   0.97500   -1.000
 4327.00    1.00719   1.02453   -1.000
 4328.00    1.05966   1.06550  208.278
 4329.00    1.07800   1.08246  193.033
 4330.00    1.07771   1.08168  188.971
 4331.00    1.07473   1.07823  189.658
 4332.00    1.07532   1.07828  188.685
 4333.00    1.07492   1.07497  185.431
 4334.00    1.07153   1.05930  183.483
 4335.00    1.05613   1.02231   -1.000
 4336.00    1.00996   0.95768   -1.000
 4337.00    0.94068   0.87167   -1.000
 4338.00    0.86493   0.78717   -1.000
 4339.00    0.79020   0.72842   -1.000
 4340.00    0.75388   0.71693   -1.000
 4341.00    0.78488   0.75880   -1.000
 4342.00    0.85866   0.83363   -1.000
 4343.00    0.93081   0.90654   -1.000
 4344.00    0.98046   0.96254   -1.000
 4345.00    1.01735   1.00496  200.360
 4346.00    1.04505   1.04000  194.896
 4347.00    1.06509   1.06901  191.519
 4348.00    1.07988   1.08584  189.466
 4349.00    1.08016   1.08033  186.382
 4350.00    1.05401   1.05257  186.761
 4351.00    1.01155   1.02363  196.784
 4352.00    0.99051   1.01849   -1.000
 4353.00    1.01870   1.04141   -1.000
 4354.00    1.06500   1.07699  206.653
 4355.00    1.08902   1.10573   -1.000
 4356.00    1.10592   1.12152   -1.000
 4357.00    1.11125   1.12673   -1.000
 4358.00    1.10072   1.12648   -1.000
 4359.00    1.09406   1.12862   -1.000
 4360.00    1.10560   1.13983   -1.000
 4361.00    1.12966   1.15691   -1.000
 4362.00    1.14277   1.17124   -1.000
 4363.00    1.14515   1.18199   -1.000
 4364.00    1.15595   1.18899   -1.000
 4365.00    1.15953   1.18511   -1.000
 4366.00    1.13839   1.16791   -1.000
 4367.00    1.11346   1.14712   -1.000
 4368.00    1.10418   1.13204   -1.000
 4369.00    1.10410   1.12445   -1.000
 4370.00    1.10695   1.12065  191.563
 4371.00    1.11223   1.11436  190.336
 4372.00    1.10489   1.09973  190.130
 4373.00    1.08222   1.07762  191.952
 4374.00    1.05361   1.05988  199.593
 4375.00    1.04263   1.06229   -1.000
 4376.00    1.07149   1.08730   -1.000
 4377.00    1.11720   1.11832  199.794
 4378.00    1.13289   1.13941  189.768
 4379.00    1.13689   1.14283  186.138
 4380.00    1.12900   1.12372  187.083
 4381.00    1.10647   1.07923   -1.000
 4382.00    1.04642   1.01841   -1.000
 4383.00    0.97191   0.96705  220.739
 4384.00    0.94775   0.95861   -1.000
 4385.00    0.99133   0.99416  249.710
 4386.00    1.05000   1.04131  227.634
 4387.00    1.08637   1.07238  206.028
 4388.00    1.08994   1.08330  198.751
 4389.00    1.08650   1.08594  198.624
 4390.00    1.08991   1.09032  200.739
 4391.00    1.09888   1.10008  201.458
 4392.00    1.11339   1.10943  197.739
 4393.00    1.11126   1.10880  193.281
 4394.00    1.09906   1.10385  194.332
 4395.00    1.09214   1.11014   -1.000
 4396.00    1.11112   1.12937   -1.000
 4397.00    1.13506   1.14352  189.318
 4398.00    1.14171   1.13835  183.633
 4399.00    1.11563   1.12195  185.858
 4400.00    1.09027   1.11122   -1.000
 4401.00    1.09645   1.11246   -1.000
 4402.00    1.11070   1.11329  196.487
 4403.00    1.10369   1.10035  192.943
 4404.00    1.06843   1.08185  199.237
 4405.00    1.05869   1.07489   -1.000
 4406.00    1.07605   1.08269  213.088
 4407.00    1.08710   1.09639  206.271
 4408.00    1.08911   1.11182   -1.000
 4409.00    1.10769   1.13618   -1.000
 4410.00    1.13653   1.16815   -1.000
 4411.00    1.16618   1.19072   -1.000
 4412.00    1.18343   1.19097  179.077
 4413.00    1.16756   1.16786  176.777
 4414.00    1.12165   1.13100  181.246
 4415.00    1.08639   1.10138   -1.000
 4416.00    1.08194   1.09901   -1.000
 4417.00    1.09699   1.12468   -1.000
 4418.00    1.12940   1.16290   -1.000
 4419.00    1.15850   1.19564   -1.000
 4420.00    1.16310   1.20635   -1.000
 4421.00    1.14667   1.19693   -1.000
 4422.00    1.13564   1.18372   -1.000
 4423.00    1.13610   1.17791   -1.000
 4424.00    1.13457   1.17822   -1.000
 4425.00    1.12811   1.17729   -1.000
 4426.00    1.11868   1.17480   -1.000
 4427.00    1.12040   1.17655   -1.000
 4428.00    1.12479   1.18156   -1.000
 4429.00    1.12416   1.18628   -1.000
 4430.00    1.12190   1.18930   -1.000
 4431.00    1.12210   1.18912   -1.000
 4432.00    1.12592   1.18232   -1.000
 4433.00    1.11635   1.16521   -1.000
 4434.00    1.09010   1.14484   -1.000
 4435.00    1.07690   1.14071   -1.000
 4436.00    1.10195   1.16309   -1.000
 4437.00    1.14689   1.20031   -1.000
 4438.00    1.18110   1.22986   -1.000
 4439.00    1.19416   1.23630   -1.000
 4440.00    1.18097   1.21659   -1.000
 4441.00    1.14312   1.18139   -1.000
 4442.00    1.10376   1.15383   -1.000
 4443.00    1.09098   1.15191   -1.000
 4444.00    1.11095   1.17678   -1.000
 4445.00    1.14630   1.21040   -1.000
 4446.00    1.17318   1.23357   -1.000
 4447.00    1.18158   1.24108   -1.000
 4448.00    1.18341   1.23966   -1.000
 4449.00    1.18084   1.23601   -1.000
 4450.00    1.17681   1.23220   -1.000
 4451.00    1.17620   1.22697   -1.000
 4452.00    1.17870   1.21344   -1.000
 4453.00    1.16048   1.18600   -1.000
 4454.00    1.12807   1.15480   -1.000
 4455.00    1.10632   1.13704   -1.000
 4456.00    1.11167   1.13949   -1.000
 4457.00    1.12949   1.15216   -1.000
 4458.00    1.14007   1.16235   -1.000
 4459.00    1.13588   1.16717   -1.000
 4460.00    1.12633   1.17009   -1.000
 4461.00    1.12415   1.17477   -1.000
 4462.00    1.13341   1.18473   -1.000
 4463.00    1.15542   1.20030   -1.000
 4464.00    1.18029   1.21437   -1.000
 4465.00    1.18456   1.21985   -1.000
 4466.00    1.17739   1.21468   -1.000
 4467.00    1.17177   1.20250   -1.000
 4468.00    1.15488   1.19113   -1.000
 4469.00    1.14403   1.19021   -1.000
 4470.00    1.15109   1.20385   -1.000
 4471.00    1.18194   1.22767   -1.000
 4472.00    1.21247   1.25425   -1.000
 4473.00    1.23526   1.27611   -1.000
 4474.00    1.24708   1.28825   -1.000
 4475.00    1.25110   1.29234   -1.000
 4476.00    1.25101   1.29337   -1.000
 4477.00    1.25942   1.29104   -1.000
 4478.00    1.25512   1.27805   -1.000
 4479.00    1.23482   1.24962  167.330
 4480.00    1.20190   1.21402  173.248
 4481.00    1.17018   1.19334   -1.000
 4482.00    1.17017   1.20094   -1.000
 4483.00    1.19474   1.23112   -1.000
 4484.00    1.23123   1.26838   -1.000
 4485.00    1.25206   1.29519   -1.000
 4486.00    1.25911   1.30092   -1.000
 4487.00    1.24963   1.28644   -1.000
 4488.00    1.22556   1.26334   -1.000
 4489.00    1.19976   1.24613   -1.000
 4490.00    1.19936   1.24531   -1.000
 4491.00    1.21767   1.25797   -1.000
 4492.00    1.22992   1.27180   -1.000
 4493.00    1.22427   1.27479   -1.000
 4494.00    1.21273   1.26749   -1.000
 4495.00    1.19779   1.26354   -1.000
 4496.00    1.19958   1.26947   -1.000
 4497.00    1.22043   1.28058   -1.000
 4498.00    1.24331   1.28930   -1.000
 4499.00    1.25432   1.29103   -1.000
 4500.00    1.24410   1.28706   -1.000
 4501.00    1.23363   1.28840   -1.000
 4502.00    1.24117   1.30375   -1.000
 4503.00    1.26573   1.32758   -1.000
 4504.00    1.28634   1.34852   -1.000
 4505.00    1.29893   1.35695   -1.000
 4506.00    1.29142   1.35261   -1.000
 4507.00    1.27930   1.34226   -1.000
 4508.00    1.28251   1.33586   -1.000
 4509.00    1.28644   1.33765   -1.000
 4510.00    1.28976   1.34195   -1.000
 4511.00    1.28968   1.34070   -1.000
 4512.00    1.27877   1.33149   -1.000
 4513.00    1.26664   1.31875   -1.000
 4514.00    1.26415   1.30696   -1.000
 4515.00    1.26242   1.29987   -1.000
 4516.00    1.25419   1.29883   -1.000
 4517.00    1.24685   1.29826   -1.000
 4518.00    1.24442   1.29545   -1.000
 4519.00    1.25023   1.29497   -1.000
 4520.00    1.26163   1.29812   -1.000
 4521.00    1.26112   1.30007   -1.000
 4522.00    1.24886   1.29534   -1.000
 4523.00    1.24075   1.28497   -1.000
 4524.00    1.23499   1.27397   -1.000
 4525.00    1.22687   1.26173   -1.000
 4526.00    1.20950   1.24420   -1.000
 4527.00    1.18801   1.22212   -1.000
 4528.00    1.17489   1.20423   -1.000
 4529.00    1.17332   1.20021   -1.000
 4530.00    1.18233   1.20900   -1.000
 4531.00    1.20604   1.22011  187.568
 4532.00    1.20436   1.22017   -1.000
 4533.00    1.18509   1.20819   -1.000
 4534.00    1.15944   1.19842   -1.000
 4535.00    1.15769   1.20726   -1.000
 4536.00    1.19987   1.23913   -1.000
 4537.00    1.25513   1.28127   -1.000
 4538.00    1.28193   1.31395   -1.000
 4539.00    1.28591   1.32390   -1.000
 4540.00    1.27433   1.31653   -1.000
 4541.00    1.27000   1.30709   -1.000
 4542.00    1.26825   1.30495   -1.000
 4543.00    1.26421   1.30675   -1.000
 4544.00    1.25245   1.30409   -1.000
 4545.00    1.24147   1.29662   -1.000
 4546.00    1.27098   1.28818   84.975
 4547.00    1.12104   1.27641   -1.000
 4548.00    0.23368   1.25887   -1.000
 4549.00   -0.02469   1.24388    0.000
 4550.00    0.15730   1.24439   -1.000
 4551.00    0.86551   1.25915   -1.000
 4552.00    0.34480   1.27075   -1.000
 4553.00    0.94231   1.26816   -1.000
 4554.00    1.22147   1.25907   -1.000
 4555.00    1.21335   1.25789   -1.000
 4556.00    1.24125   1.27352   -1.000
 4557.00    1.27275   1.30091   -1.000
 4558.00    1.29302   1.32679   -1.000
 4559.00    1.30331   1.34505   -1.000
 4560.00    1.30776   1.35534   -1.000
 4561.00    1.30437   1.35670   -1.000
 4562.00    1.29616   1.34707   -1.000
 4563.00    1.27459   1.32862   -1.000
 4564.00    1.25800   1.31170   -1.000
 4565.00    1.26066   1.30749   -1.000
 4566.00    1.27915   1.31899   -1.000
 4567.00    1.30027   1.33869   -1.000
 4568.00    1.31183   1.35243   -1.000
 4569.00    1.31103   1.35150   -1.000
 4570.00    1.28742   1.33633   -1.000
 4571.00    1.25871   1.31783   -1.000
 4572.00    1.25861   1.31132   -1.000
 4573.00    1.27709   1.32322   -1.000
 4574.00    1.30018   1.34231   -1.000
 4575.00    1.31085   1.35391   -1.000
 4576.00    1.30718   1.35568   -1.000
 4577.00    1.30150   1.35041   -1.000
 4578.00    1.29050   1.33795   -1.000
 4579.00    1.27291   1.31820   -1.000
 4580.00    1.25521   1.29660   -1.000
 4581.00    1.24925   1.28029   -1.000
 4582.00    1.25147   1.27353   -1.000
 4583.00    1.25724   1.27506   -1.000
 4584.00    1.25787   1.28143   -1.000
 4585.00    1.25833   1.28973   -1.000
 4586.00    1.27157   1.30064   -1.000
 4587.00    1.28804   1.31424   -1.000
 4588.00    1.30041   1.32798   -1.000
 4589.00    1.30318   1.33678   -1.000
 4590.00    1.29674   1.33601   -1.000
 4591.00    1.28990   1.32708   -1.000
 4592.00    1.27853   1.31763   -1.000
 4593.00    1.27376   1.31534   -1.000
 4594.00    1.28518   1.32112   -1.000
 4595.00    1.29431   1.32988   -1.000
 4596.00    1.30156   1.33791   -1.000
 4597.00    1.30602   1.34380   -1.000
 4598.00    1.30566   1.34576   -1.000
 4599.00    1.29838   1.34228   -1.000
 4600.00    1.28502   1.33526   -1.000
 4601.00    1.27742   1.32861   -1.000
 4602.00    1.28297   1.32653   -1.000
 4603.00    1.28948   1.32932   -1.000
 4604.00    1.29626   1.33473   -1.000
 4605.00    1.30934   1.34143   -1.000
 4606.00    1.31639   1.35013   -1.000
 4607.00    1.32355   1.36180   -1.000
 4608.00    1.33706   1.37519   -1.000
 4609.00    1.34447   1.38631   -1.000
 4610.00    1.34965   1.38896   -1.000
 4611.00    1.34629   1.38229   -1.000
 4612.00    1.33640   1.37431   -1.000
 4613.00    1.32882   1.36994   -1.000
 4614.00    1.32818   1.36946   -1.000
 4615.00    1.33273   1.36950   -1.000
 4616.00    1.33209   1.36681   -1.000
 4617.00    1.33231   1.36124   -1.000
 4618.00    1.32268   1.35595   -1.000
 4619.00    1.32393   1.35607   -1.000
 4620.00    1.33415   1.36441   -1.000
 4621.00    1.34777   1.37873   -1.000
 4622.00    1.35736   1.39101   -1.000
 4623.00    1.35558   1.39483   -1.000
 4624.00    1.34893   1.39273   -1.000
 4625.00    1.34538   1.38899   -1.000
 4626.00    1.34750   1.38456   -1.000
 4627.00    1.34746   1.38062   -1.000
 4628.00    1.34095   1.37725   -1.000
 4629.00    1.33362   1.37565   -1.000
 4630.00    1.34061   1.37845   -1.000
 4631.00    1.35193   1.38560   -1.000
 4632.00    1.35344   1.39015   -1.000
 4633.00    1.34071   1.38579   -1.000
 4634.00    1.33732   1.37657   -1.000
 4635.00    1.33629   1.36993   -1.000
 4636.00    1.33144   1.36688   -1.000
 4637.00    1.32504   1.36501   -1.000
 4638.00    1.32070   1.36536   -1.000
 4639.00    1.32659   1.37015   -1.000
 4640.00    1.34144   1.38036   -1.000
 4641.00    1.36354   1.39359   -1.000
 4642.00    1.37298   1.40397   -1.000
 4643.00    1.36696   1.40394   -1.000
 4644.00    1.35593   1.39216   -1.000
 4645.00    1.34065   1.37296   -1.000
 4646.00    1.31893   1.35111   -1.000
 4647.00    1.30868   1.33603   -1.000
 4648.00    1.31872   1.33755   -1.000
 4649.00    1.33690   1.35350   -1.000
 4650.00    1.34904   1.37264   -1.000
 4651.00    1.34907   1.38460   -1.000
 4652.00    1.34432   1.38681   -1.000
 4653.00    1.33588   1.38185   -1.000
 4654.00    1.32367   1.37215   -1.000
 4655.00    1.31428   1.36345   -1.000
 4656.00    1.31730   1.36412   -1.000
 4657.00    1.33552   1.37958   -1.000
 4658.00    1.36374   1.40679   -1.000
 4659.00    1.39072   1.43309   -1.000
 4660.00    1.40360   1.44448   -1.000
 4661.00    1.39203   1.43944   -1.000
 4662.00    1.37295   1.42462   -1.000
 4663.00    1.36359   1.40705   -1.000
 4664.00    1.36228   1.38890   -1.000
 4665.00    1.35061   1.36703   -1.000
 4666.00    1.31917   1.33933   -1.000
 4667.00    1.28507   1.31404   -1.000
 4668.00    1.27100   1.30518   -1.000
 4669.00    1.29146   1.31840   -1.000
 4670.00    1.31897   1.34533   -1.000
 4671.00    1.34799   1.37260   -1.000
 4672.00    1.36372   1.39059   -1.000
 4673.00    1.36321   1.39988   -1.000
 4674.00    1.36502   1.40637   -1.000
 4675.00    1.37088   1.41459   -1.000
 4676.00    1.38460   1.41980   -1.000
 4677.00    1.38517   1.41331   -1.000
 4678.00    1.37005   1.39598   -1.000
 4679.00    1.35188   1.37689   -1.000
 4680.00    1.34230   1.36484   -1.000
 4681.00    1.33555   1.36161   -1.000
 4682.00    1.33934   1.36502   -1.000
 4683.00    1.35968   1.37329  167.268
 4684.00    1.37678   1.38272  163.266
 4685.00    1.38116   1.38932  160.852
 4686.00    1.37448   1.39246   -1.000
 4687.00    1.37291   1.39432   -1.000
 4688.00    1.37155   1.39590   -1.000
 4689.00    1.37068   1.39699   -1.000
 4690.00    1.36618   1.39682   -1.000
 4691.00    1.36763   1.39544   -1.000
 4692.00    1.37640   1.39689   -1.000
 4693.00    1.38920   1.40330  162.003
 4694.00    1.40395   1.41081  159.629
 4695.00    1.41373   1.41567  156.212
 4696.00    1.41500   1.41585  154.012
 4697.00    1.39816   1.40792  154.428
 4698.00    1.37424   1.39268   -1.000
 4699.00    1.36614   1.37653  163.234
 4700.00    1.36774   1.36304  165.547
 4701.00    1.35780   1.35174  164.614
 4702.00    1.34228   1.34196  165.473
 4703.00    1.34015   1.33946  168.214
 4704.00    1.34856   1.34852  169.391
 4705.00    1.35651   1.36124  166.691
 4706.00    1.35557   1.36473  164.098
 4707.00    1.34287   1.35728  165.756
 4708.00    1.33016   1.34984   -1.000
 4709.00    1.33103   1.35311   -1.000
 4710.00    1.34944   1.36647   -1.000
 4711.00    1.37801   1.38301  165.814
 4712.00    1.39741   1.39527  161.179
 4713.00    1.39176   1.39707  159.206
 4714.00    1.37781   1.39260  160.335
 4715.00    1.37777   1.39281  163.207
 4716.00    1.39050   1.40356  163.652
 4717.00    1.40719   1.41989  160.804
 4718.00    1.40977   1.43257   -1.000
 4719.00    1.41243   1.43850   -1.000
 4720.00    1.41165   1.43915   -1.000
 4721.00    1.40496   1.43821   -1.000
 4722.00    1.40300   1.43847   -1.000
 4723.00    1.40547   1.44098   -1.000
 4724.00    1.41411   1.44369   -1.000
 4725.00    1.41472   1.44163   -1.000
 4726.00    1.39493   1.43004   -1.000
 4727.00    1.36880   1.40964   -1.000
 4728.00    1.34926   1.38943   -1.000
 4729.00    1.35247   1.37837   -1.000
 4730.00    1.35938   1.37684   -1.000
 4731.00    1.36468   1.38100   -1.000
 4732.00    1.37259   1.38968   -1.000
 4733.00    1.38199   1.39958   -1.000
 4734.00    1.39505   1.40520  161.955
 4735.00    1.38662   1.40531   -1.000
 4736.00    1.38064   1.40312   -1.000
 4737.00    1.38457   1.40261   -1.000
 4738.00    1.39424   1.40688  161.884
 4739.00    1.39691   1.41463   -1.000
 4740.00    1.39927   1.42048   -1.000
 4741.00    1.39754   1.42312   -1.000
 4742.00    1.40060   1.42668   -1.000
 4743.00    1.40997   1.43255   -1.000
 4744.00    1.41563   1.43810   -1.000
 4745.00    1.41730   1.44119   -1.000
 4746.00    1.42239   1.44341   -1.000
 4747.00    1.42578   1.44856   -1.000
 4748.00    1.42581   1.45652   -1.000
 4749.00    1.42687   1.46422   -1.000
 4750.00    1.42759   1.47019   -1.000
 4751.00    1.42441   1.47095   -1.000
 4752.00    1.41341   1.46367   -1.000
 4753.00    1.40498   1.45020   -1.000
 4754.00    1.39910   1.43717   -1.000
 4755.00    1.39717   1.43101   -1.000
 4756.00    1.39333   1.43291   -1.000
 4757.00    1.39193   1.44025   -1.000
 4758.00    1.39275   1.44975   -1.000
 4759.00    1.39549   1.45793   -1.000
 4760.00    1.40186   1.45867   -1.000
 4761.00    1.39052   1.44698   -1.000
 4762.00    1.36369   1.42434   -1.000
 4763.00    1.34732   1.40130   -1.000
 4764.00    1.34555   1.38884   -1.000
 4765.00    1.35334   1.38734   -1.000
 4766.00    1.36808   1.39407   -1.000
 4767.00    1.38338   1.40857   -1.000
 4768.00    1.39989   1.42960   -1.000
 4769.00    1.41291   1.44953   -1.000
 4770.00    1.41425   1.45930   -1.000
 4771.00    1.40927   1.45825   -1.000
 4772.00    1.40433   1.45514   -1.000
 4773.00    1.40951   1.45857   -1.000
 4774.00    1.42883   1.47056   -1.000
 4775.00    1.44249   1.48365   -1.000
 4776.00    1.43985   1.49049   -1.000
 4777.00    1.43765   1.48933   -1.000
 4778.00    1.43192   1.48239   -1.000
 4779.00    1.42208   1.47430   -1.000
 4780.00    1.41218   1.46890   -1.000
 4781.00    1.40916   1.46620   -1.000
 4782.00    1.40773   1.46238   -1.000
 4783.00    1.40635   1.45668   -1.000
 4784.00    1.40809   1.45097   -1.000
 4785.00    1.40442   1.44563   -1.000
 4786.00    1.39160   1.44087   -1.000
 4787.00    1.38406   1.43868   -1.000
 4788.00    1.38559   1.44093   -1.000
 4789.00    1.39216   1.44668   -1.000
 4790.00    1.40325   1.45525   -1.000
 4791.00    1.41487   1.46737   -1.000
 4792.00    1.42432   1.48322   -1.000
 4793.00    1.43886   1.50064   -1.000
 4794.00    1.45486   1.51601   -1.000
 4795.00    1.46145   1.52493   -1.000
 4796.00    1.45697   1.52337   -1.000
 4797.00    1.44024   1.51277   -1.000
 4798.00    1.42160   1.49878   -1.000
 4799.00    1.41540   1.48807   -1.000
 4800.00    1.41765   1.48722   -1.000
 4801.00    1.43152   1.49647   -1.000
 4802.00    1.44555   1.50747   -1.000
 4803.00    1.44674   1.51117   -1.000
 4804.00    1.43464   1.50604   -1.000
 4805.00    1.42351   1.49688   -1.000
 4806.00    1.42599   1.49057   -1.000
 4807.00    1.43037   1.48903   -1.000
 4808.00    1.43720   1.49099   -1.000
 4809.00    1.44138   1.49589   -1.000
 4810.00    1.44426   1.50127   -1.000
 4811.00    1.44352   1.50447   -1.000
 4812.00    1.44541   1.50728   -1.000
 4813.00    1.45131   1.51246   -1.000
 4814.00    1.45696   1.51978   -1.000
 4815.00    1.46169   1.52822   -1.000
 4816.00    1.46608   1.53609   -1.000
 4817.00    1.47360   1.54112   -1.000
 4818.00    1.47662   1.54259   -1.000
 4819.00    1.47363   1.54252   -1.000
 4820.00    1.47075   1.54073   -1.000
 4821.00    1.46493   1.53148   -1.000
 4822.00    1.44641   1.51113   -1.000
 4823.00    1.42534   1.48559   -1.000
 4824.00    1.42064   1.46963   -1.000
 4825.00    1.43417   1.47397   -1.000
 4826.00    1.44848   1.49053   -1.000
 4827.00    1.45399   1.50354   -1.000
 4828.00    1.44705   1.50630   -1.000
 4829.00    1.44093   1.50261   -1.000
 4830.00    1.43453   1.49746   -1.000
 4831.00    1.43021   1.48996   -1.000
 4832.00    1.43041   1.48247   -1.000
 4833.00    1.43941   1.48065   -1.000
 4834.00    1.44992   1.48534   -1.000
 4835.00    1.45960   1.49271   -1.000
 4836.00    1.45863   1.49742   -1.000
 4837.00    1.45184   1.49636   -1.000
 4838.00    1.44189   1.48912   -1.000
 4839.00    1.42794   1.47710   -1.000
 4840.00    1.41833   1.46507   -1.000
 4841.00    1.41858   1.45861   -1.000
 4842.00    1.42465   1.45934   -1.000
 4843.00    1.43204   1.46335   -1.000
 4844.00    1.44505   1.46862   -1.000
 4845.00    1.45211   1.47639   -1.000
 4846.00    1.45287   1.48146   -1.000
 4847.00    1.44030   1.47572   -1.000
 4848.00    1.42614   1.46330   -1.000
 4849.00    1.42250   1.45574   -1.000
 4850.00    1.42749   1.45650   -1.000
 4851.00    1.43033   1.45846   -1.000
 4852.00    1.42863   1.45210   -1.000
 4853.00    1.41292   1.43232   -1.000
 4854.00    1.38116   1.39904   -1.000
 4855.00    1.35104   1.36146  164.392
 4856.00    1.33542   1.33079  169.152
 4857.00    1.32966   1.30533   -1.000
 4858.00    1.29232   1.26427   -1.000
 4859.00    1.20310   1.18670  171.589
 4860.00    1.08345   1.08839  184.500
 4861.00    1.01001   1.01679  205.282
 4862.00    1.04062   1.01310   -1.000
 4863.00    1.14167   1.07613   -1.000
 4864.00    1.24037   1.16580   -1.000
 4865.00    1.29939   1.24762   -1.000
 4866.00    1.33415   1.30936   -1.000
 4867.00    1.35952   1.35253  167.597
 4868.00    1.37338   1.37869  165.712
 4869.00    1.37227   1.38614  164.870
 4870.00    1.35679   1.37516   -1.000
 4871.00    1.33520   1.35514   -1.000
 4872.00    1.33354   1.34692   -1.000
 4873.00    1.35930   1.36450  173.932
 4874.00    1.38279   1.39702  169.549
 4875.00    1.39764   1.42346   -1.000
 4876.00    1.39585   1.43425   -1.000
 4877.00    1.39527   1.43933   -1.000
 4878.00    1.40595   1.45208   -1.000
 4879.00    1.42158   1.47266   -1.000
 4880.00    1.42992   1.49033   -1.000
 4881.00    1.42220   1.49518   -1.000
 4882.00    1.41637   1.48866   -1.000
 4883.00    1.41315   1.48017   -1.000
 4884.00    1.41390   1.47219   -1.000
 4885.00    1.40519   1.46359   -1.000
 4886.00    1.40547   1.45619   -1.000
 4887.00    1.40365   1.45247   -1.000
 4888.00    1.40205   1.44961   -1.000
 4889.00    1.39465   1.43968   -1.000
 4890.00    1.37812   1.42317   -1.000
 4891.00    1.37411   1.41556   -1.000
 4892.00    1.40540   1.43411   -1.000
 4893.00    1.45032   1.48073   -1.000
 4894.00    1.49444   1.53348   -1.000
 4895.00    1.51533   1.56919   -1.000
 4896.00    1.51662   1.58527   -1.000
 4897.00    1.51228   1.58719   -1.000
 4898.00    1.50121   1.57935   -1.000
 4899.00    1.48421   1.56618   -1.000
 4900.00    1.47258   1.55412   -1.000
 4901.00    1.47262   1.54648   -1.000
 4902.00    1.47132   1.54074   -1.000
 4903.00    1.46902   1.53415   -1.000
 4904.00    1.47194   1.53381   -1.000
 4905.00    1.48678   1.54710   -1.000
 4906.00    1.50071   1.56468   -1.000
 4907.00    1.49919   1.57051   -1.000
 4908.00    1.48651   1.55825   -1.000
 4909.00    1.46489   1.53254   -1.000
 4910.00    1.44715   1.50699   -1.000
 4911.00    1.45037   1.49589   -1.000
 4912.00    1.46771   1.50518   -1.000
 4913.00    1.48530   1.52678   -1.000
 4914.00    1.49913   1.54925   -1.000
 4915.00    1.51173   1.56450   -1.000
 4916.00    1.51302   1.56254   -1.000
 4917.00    1.48507   1.53431   -1.000
 4918.00    1.43152   1.48379   -1.000
 4919.00    1.38421   1.42901   -1.000
 4920.00    1.36798   1.39355   -1.000
 4921.00    1.38125   1.39030  178.737
 4922.00    1.41248   1.41142  174.495
 4923.00    1.43315   1.43711  168.218
 4924.00    1.44171   1.45722   -1.000
 4925.00    1.45861   1.47879   -1.000
 4926.00    1.48325   1.50706   -1.000
 4927.00    1.50429   1.53817   -1.000
 4928.00    1.52010   1.56462   -1.000
 4929.00    1.52952   1.58116   -1.000
 4930.00    1.53790   1.58693   -1.000
 4931.00    1.53011   1.57902   -1.000
 4932.00    1.50283   1.55506   -1.000
 4933.00    1.46821   1.52395   -1.000
 4934.00    1.45303   1.50332   -1.000
 4935.00    1.46557   1.50148   -1.000
 4936.00    1.47742   1.50720   -1.000
 4937.00    1.46290   1.50017   -1.000
 4938.00    1.44053   1.48165   -1.000
 4939.00    1.43477   1.47359   -1.000
 4940.00    1.46317   1.48988   -1.000
 4941.00    1.50121   1.52554   -1.000
 4942.00    1.52077   1.56112   -1.000
 4943.00    1.52918   1.58166   -1.000
 4944.00    1.53285   1.58656   -1.000
 4945.00    1.53039   1.58233   -1.000
 4946.00    1.52601   1.57734   -1.000
 4947.00    1.53063   1.57915   -1.000
 4948.00    1.53934   1.58984   -1.000
 4949.00    1.54769   1.60208   -1.000
 4950.00    1.54942   1.60708   -1.000
 4951.00    1.54760   1.60353   -1.000
 4952.00    1.54337   1.59667   -1.000
 4953.00    1.53871   1.59038   -1.000
 4954.00    1.53477   1.58177   -1.000
 4955.00    1.51430   1.55923   -1.000
 4956.00    1.46635   1.51472   -1.000
 4957.00    1.42227   1.46762   -1.000
 4958.00    1.42813   1.45249   -1.000
 4959.00    1.47647   1.48158  172.441
 4960.00    1.52448   1.53298  163.827
 4961.00    1.54586   1.57319   -1.000
 4962.00    1.54697   1.59056   -1.000
 4963.00    1.54182   1.59124   -1.000
 4964.00    1.52975   1.58142   -1.000
 4965.00    1.51209   1.56530   -1.000
 4966.00    1.49812   1.54907   -1.000
 4967.00    1.49592   1.53837   -1.000
 4968.00    1.49828   1.53429   -1.000
 4969.00    1.50371   1.53629   -1.000
 4970.00    1.51338   1.54434   -1.000
 4971.00    1.52298   1.55685   -1.000
 4972.00    1.53607   1.57105   -1.000
 4973.00    1.54804   1.58446   -1.000
 4974.00    1.55492   1.59399   -1.000
 4975.00    1.55386   1.59660   -1.000
 4976.00    1.54258   1.59249   -1.000
 4977.00    1.52958   1.58284   -1.000
 4978.00    1.52040   1.56954   -1.000
 4979.00    1.50840   1.55369   -1.000
 4980.00    1.48852   1.53195   -1.000
 4981.00    1.45646   1.49892   -1.000
 4982.00    1.42473   1.45803   -1.000
 4983.00    1.41162   1.42638  176.813
 4984.00    1.42274   1.42251  178.159
 4985.00    1.45093   1.44899  175.533
 4986.00    1.48378   1.48989  170.943
 4987.00    1.50712   1.52723   -1.000
 4988.00    1.52160   1.54936   -1.000
 4989.00    1.51598   1.55140   -1.000
 4990.00    1.49940   1.54017   -1.000
 4991.00    1.49615   1.52888   -1.000
 4992.00    1.50511   1.52642   -1.000
 4993.00    1.50879   1.53211   -1.000
 4994.00    1.51091   1.54115   -1.000
 4995.00    1.52076   1.55044   -1.000
 4996.00    1.53168   1.55789   -1.000
 4997.00    1.52852   1.55939   -1.000
 4998.00    1.51513   1.54941   -1.000
 4999.00    1.49936   1.52745   -1.000
 5000.00    1.48424   1.50211   -1.000
 5001.00    1.48128   1.48569  168.843
 5002.00    1.48995   1.48479  169.430
 5003.00    1.49522   1.49230  168.213
 5004.00    1.48776   1.49236  166.972
 5005.00    1.46413   1.47729  168.528
 5006.00    1.44665   1.45971  172.417
 5007.00    1.46253   1.46127  174.234
 5008.00    1.49697   1.48540  171.172
 5009.00    1.51930   1.51470  166.140
 5010.00    1.51558   1.52740  163.568
 5011.00    1.49134   1.51361   -1.000
 5012.00    1.45601   1.48169   -1.000
 5013.00    1.42923   1.45030   -1.000
 5014.00    1.42724   1.43569  179.901
 5015.00    1.44514   1.43829  180.235
 5016.00    1.46388   1.44696  176.941
 5017.00    1.46683   1.45130  173.155
 5018.00    1.46523   1.45327  171.725
 5019.00    1.47593   1.46282  171.603
 5020.00    1.49356   1.47934  170.132
 5021.00    1.49730   1.49304  168.590
 5022.00    1.49749   1.49949  168.826
 5023.00    1.50660   1.50519  169.310
 5024.00    1.51573   1.51861  168.663
 5025.00    1.52352   1.53278  167.061
 5026.00    1.52302   1.53532  165.774
 5027.00    1.51880   1.53001  166.106
 5028.00    1.52118   1.52815  166.921
 5029.00    1.53620   1.53449  165.958
 5030.00    1.55011   1.54810  163.194
 5031.00    1.56251   1.56551  160.671
 5032.00    1.57424   1.58195  158.140
 5033.00    1.57558   1.58977  156.131
 5034.00    1.55734   1.58014   -1.000
 5035.00    1.52098   1.55474   -1.000
 5036.00    1.49464   1.52804   -1.000
 5037.00    1.48827   1.51095   -1.000
 5038.00    1.48172   1.49763  170.668
 5039.00    1.45553   1.47096  172.386
 5040.00    1.41473   1.43361   -1.000
 5041.00    1.40676   1.41267  185.279
 5042.00    1.43864   1.42919  187.218
 5043.00    1.49149   1.47959  180.268
 5044.00    1.54050   1.53856  169.596
 5045.00    1.57266   1.58261  161.797
 5046.00    1.58515   1.60391  157.647
 5047.00    1.57106   1.60146   -1.000
 5048.00    1.55727   1.57884   -1.000
 5049.00    1.41388   1.54680   -1.000
 5050.00    1.20109   1.51995   -1.000
 5051.00    0.63759   1.50885   -1.000
 5052.00    0.56104   1.51848   -1.000
 5053.00    1.37516   1.54515   -1.000
 5054.00    1.61326   1.57394   -1.000
 5055.00    1.60099   1.59215  157.941
 5056.00    1.60698   1.60237  156.108
 5057.00    1.60445   1.61068  155.374
 5058.00    1.60264   1.61867  155.473
 5059.00    1.59759   1.62511   -1.000
 5060.00    1.59629   1.62872   -1.000
 5061.00    1.59999   1.62949   -1.000
 5062.00    1.59882   1.62398   -1.000
 5063.00    1.58176   1.60455   -1.000
 5064.00    1.54568   1.57475   -1.000
 5065.00    1.52605   1.55030   -1.000
 5066.00    1.53330   1.54159  168.764
 5067.00    1.54855   1.54602  167.662
 5068.00    1.55562   1.55266  165.201
 5069.00    1.56414   1.55712  164.177
 5070.00    1.57294   1.56062  163.482
 5071.00    1.57154   1.56022  162.474
 5072.00    1.56155   1.55391  163.187
 5073.00    1.56153   1.54852  164.515
 5074.00    1.56200   1.55136  163.312
 5075.00    1.56877   1.55999  161.815
 5076.00    1.57741   1.56531  161.344
 5077.00    1.56478   1.55883  161.205
 5078.00    1.53051   1.53646  162.347
 5079.00    1.49157   1.50486  166.992
 5080.00    1.47677   1.48274  174.477
 5081.00    1.49233   1.48113  178.129
 5082.00    1.51918   1.49464   -1.000
 5083.00    1.53635   1.51310   -1.000
 5084.00    1.55707   1.53234   -1.000
 5085.00    1.58039   1.55390   -1.000
 5086.00    1.59078   1.57410  163.395
 5087.00    1.59506   1.58738  161.820
 5088.00    1.59750   1.59471  161.380
 5089.00    1.59740   1.60001  160.725
 5090.00    1.60422   1.60533  159.643
 5091.00    1.61223   1.61165  158.689
 5092.00    1.61884   1.62019  157.857
 5093.00    1.62615   1.62900  156.285
 5094.00    1.62446   1.63075  154.766
 5095.00    1.61319   1.61765  155.470
 5096.00    1.60290   1.58963  158.288
 5097.00    1.57976   1.55621   -1.000
 5098.00    1.54354   1.53025  165.523
 5099.00    1.53481   1.52139  169.143
 5100.00    1.55770   1.53260   -1.000
 5101.00    1.59115   1.55808   -1.000
 5102.00    1.60838   1.58234   -1.000
 5103.00    1.60683   1.59336  160.402
 5104.00    1.59577   1.59098  160.783
 5105.00    1.58372   1.57898  162.633
 5106.00    1.56349   1.56133  164.731
 5107.00    1.54193   1.54352  166.765
 5108.00    1.53666   1.53227  168.846
 5109.00    1.54144   1.53146  169.198
 5110.00    1.54889   1.54126  168.293
 5111.00    1.56483   1.55980  167.107
 5112.00    1.58409   1.58144  165.006
 5113.00    1.60397   1.59974  162.879
 5114.00    1.61565   1.61341  160.895
 5115.00    1.62836   1.62425  159.314
 5116.00    1.63401   1.63389  158.318
 5117.00    1.64045   1.64097  156.860
 5118.00    1.64339   1.64289  155.448
 5119.00    1.63780   1.63739  155.459
 5120.00    1.62204   1.62377  157.111
 5121.00    1.59980   1.60476  159.421
 5122.00    1.57275   1.58354  162.001
 5123.00    1.54890   1.56157  165.788
 5124.00    1.53771   1.54246  170.628
 5125.00    1.54331   1.53225  172.860
 5126.00    1.55321   1.53116   -1.000
 5127.00    1.55386   1.53353   -1.000
 5128.00    1.55091   1.53494  169.956
 5129.00    1.55485   1.53724   -1.000
 5130.00    1.56862   1.54405   -1.000
 5131.00    1.58276   1.55534   -1.000
 5132.00    1.59280   1.56752   -1.000
 5133.00    1.60186   1.57788   -1.000
 5134.00    1.61039   1.58620   -1.000
 5135.00    1.61249   1.59104   -1.000
 5136.00    1.59989   1.58768  160.066
 5137.00    1.57570   1.57371  162.098
 5138.00    1.55089   1.55438  165.832
 5139.00    1.53983   1.53884  168.863
 5140.00    1.54714   1.53327  169.718
 5141.00    1.55227   1.53468   -1.000
 5142.00    1.54469   1.53745  169.117
 5143.00    1.54334   1.54158  171.525
 5144.00    1.55588   1.54885  171.538
 5145.00    1.57311   1.55559   -1.000
 5146.00    1.57592   1.55490   -1.000
 5147.00    1.57393   1.54894   -1.000
 5148.00    1.58101   1.54901   -1.000
 5149.00    1.58413   1.55567   -1.000
 5150.00    1.57538   1.55734   -1.000
 5151.00    1.56145   1.55016  168.230
 5152.00    1.55193   1.53999  171.095
 5153.00    1.56002   1.53405   -1.000
 5154.00    1.58059   1.53843   -1.000
 5155.00    1.60262   1.55601   -1.000
 5156.00    1.62665   1.58287   -1.000
 5157.00    1.64742   1.60989   -1.000
 5158.00    1.65664   1.62997   -1.000
 5159.00    1.65909   1.63982   -1.000
 5160.00    1.65375   1.64023  156.166
 5161.00    1.64817   1.63292  156.560
 5162.00    1.63821   1.61899   -1.000
 5163.00    1.62567   1.59819   -1.000
 5164.00    1.59531   1.56276   -1.000
 5165.00    1.52850   1.49985   -1.000
 5166.00    1.43870   1.41475   -1.000
 5167.00    1.36720   1.33876   -1.000
 5168.00    1.36305   1.30945   -1.000
 5169.00    1.40867   1.33232   -1.000
 5170.00    1.43894   1.36038   -1.000
 5171.00    1.40924   1.35378   -1.000
 5172.00    1.36258   1.32654   -1.000
 5173.00    1.37351   1.32667   -1.000
 5174.00    1.45967   1.38506   -1.000
 5175.00    1.55639   1.47411   -1.000
 5176.00    1.61536   1.54841   -1.000
 5177.00    1.63930   1.59060   -1.000
 5178.00    1.64346   1.60541   -1.000
 5179.00    1.63963   1.60135   -1.000
 5180.00    1.62030   1.57313   -1.000
 5181.00    1.56447   1.51101   -1.000
 5182.00    1.46700   1.42325   -1.000
 5183.00    1.38065   1.34614   -1.000
 5184.00    1.37929   1.32583   -1.000
 5185.00    1.46336   1.37367   -1.000
 5186.00    1.55645   1.45696   -1.000
 5187.00    1.59979   1.52655   -1.000
 5188.00    1.61005   1.56036   -1.000
 5189.00    1.60787   1.57194   -1.000
 5190.00    1.59585   1.57118   -1.000
 5191.00    1.56898   1.55676  166.624
 5192.00    1.54517   1.53691  171.017
 5193.00    1.54293   1.52629  176.011
 5194.00    1.56014   1.52985   -1.000
 5195.00    1.57849   1.54157   -1.000
 5196.00    1.59667   1.55418   -1.000
 5197.00    1.61898   1.57022   -1.000
 5198.00    1.63130   1.59320   -1.000
 5199.00    1.64719   1.61727   -1.000
 5200.00    1.65583   1.63331   -1.000
 5201.00    1.64964   1.63503  160.168
 5202.00    1.63448   1.61925  161.089
 5203.00    1.60772   1.58761   -1.000
 5204.00    1.57106   1.54754   -1.000
 5205.00    1.54649   1.51026   -1.000
 5206.00    1.54594   1.48586   -1.000
 5207.00    1.54761   1.47710   -1.000
 5208.00    1.54510   1.47976   -1.000
 5209.00    1.55277   1.49331   -1.000
 5210.00    1.58128   1.52169   -1.000
 5211.00    1.62483   1.56482   -1.000
 5212.00    1.66663   1.61175   -1.000
 5213.00    1.68583   1.64411   -1.000
 5214.00    1.67111   1.64933   -1.000
 5215.00    1.64200   1.63043  157.435
 5216.00    1.62562   1.60847  160.717
 5217.00    1.62954   1.60498   -1.000
 5218.00    1.65395   1.62484   -1.000
 5219.00    1.68379   1.65632   -1.000
 5220.00    1.70099   1.68365  156.994
 5221.00    1.70536   1.69821  155.490
 5222.00    1.69799   1.69629  154.730
 5223.00    1.67358   1.67600  156.024
 5224.00    1.62987   1.63421  160.084
 5225.00    1.57632   1.57409  166.278
 5226.00    1.53467   1.51860  173.862
 5227.00    1.53621   1.49798   -1.000
 5228.00    1.58534   1.52328   -1.000
 5229.00    1.64091   1.57528   -1.000
 5230.00    1.67244   1.61873   -1.000
 5231.00    1.67887   1.63416   -1.000
 5232.00    1.66312   1.62359   -1.000
 5233.00    1.64356   1.60319   -1.000
 5234.00    1.64079   1.59440   -1.000
 5235.00    1.65751   1.60931   -1.000
 5236.00    1.68547   1.64119   -1.000
 5237.00    1.70522   1.67377   -1.000
 5238.00    1.71194   1.69568  153.996
 5239.00    1.71759   1.70487  153.457
 5240.00    1.71995   1.70607  153.803
 5241.00    1.72047   1.70358  153.750
 5242.00    1.72240   1.70110   -1.000
 5243.00    1.71798   1.70327  152.907
 5244.00    1.71820   1.70891  152.767
 5245.00    1.70985   1.70736  152.491
 5246.00    1.68582   1.69147  154.636
 5247.00    1.66050   1.66730  159.076
 5248.00    1.64895   1.64676  163.179
 5249.00    1.64833   1.63588  164.504
 5250.00    1.63959   1.63265  164.774
 5251.00    1.64334   1.63523  165.627
 5252.00    1.65985   1.64261  165.367
 5253.00    1.67059   1.64952   -1.000
 5254.00    1.67542   1.65217   -1.000
 5255.00    1.68295   1.65765   -1.000
 5256.00    1.70231   1.67436   -1.000
 5257.00    1.73330   1.69907   -1.000
 5258.00    1.74998   1.71918   -1.000
 5259.00    1.74303   1.72134   -1.000
 5260.00    1.71077   1.69967  151.755
 5261.00    1.65896   1.65676  155.203
 5262.00    1.60911   1.60214  161.189
 5263.00    1.57381   1.54809   -1.000
 5264.00    1.55445   1.50630   -1.000
 5265.00    1.54622   1.48735   -1.000
 5266.00    1.55838   1.49207   -1.000
 5267.00    1.57894   1.50327   -1.000
 5268.00    1.56723   1.50042   -1.000
 5269.00    1.53218   1.48148   -1.000
 5270.00    1.52862   1.47116   -1.000
 5271.00    1.57735   1.49507   -1.000
 5272.00    1.63363   1.54147   -1.000
 5273.00    1.65810   1.58021   -1.000
 5274.00    1.65683   1.59951   -1.000
 5275.00    1.66248   1.60980   -1.000
 5276.00    1.68721   1.62905   -1.000
 5277.00    1.71843   1.66223   -1.000
 5278.00    1.74602   1.69641   -1.000
 5279.00    1.75025   1.71143   -1.000
 5280.00    1.73094   1.69912   -1.000
 5281.00    1.69960   1.67082   -1.000
 5282.00    1.67547   1.64282   -1.000
 5283.00    1.66929   1.62758   -1.000
 5284.00    1.68701   1.63518   -1.000
 5285.00    1.72276   1.66723   -1.000
 5286.00    1.75708   1.70964   -1.000
 5287.00    1.77319   1.74301   -1.000
 5288.00    1.77010   1.75901  149.120
 5289.00    1.77344   1.76462  149.443
 5290.00    1.77980   1.76743  149.691
 5291.00    1.78141   1.76727  149.035
 5292.00    1.77387   1.76444  148.542
 5293.00    1.76354   1.75992  149.089
 5294.00    1.75187   1.74960  150.375
 5295.00    1.72770   1.72745  152.221
 5296.00    1.68981   1.69180  155.758
 5297.00    1.65952   1.65396  161.292
 5298.00    1.65761   1.63430   -1.000
 5299.00    1.67947   1.64004   -1.000
 5300.00    1.70050   1.66010   -1.000
 5301.00    1.71095   1.67978   -1.000
 5302.00    1.72304   1.69548   -1.000
 5303.00    1.74345   1.71488   -1.000
 5304.00    1.76812   1.73712   -1.000
 5305.00    1.77762   1.75122   -1.000
 5306.00    1.76959   1.75267  148.760
 5307.00    1.76320   1.74744  149.733
 5308.00    1.76674   1.74696  151.123
 5309.00    1.78149   1.75682   -1.000
 5310.00    1.79502   1.77092   -1.000
 5311.00    1.79866   1.78007  148.183
 5312.00    1.79751   1.77928  148.028
 5313.00    1.78907   1.76923   -1.000
 5314.00    1.78229   1.75240   -1.000
 5315.00    1.76790   1.73081   -1.000
 5316.00    1.74528   1.71136   -1.000
 5317.00    1.74025   1.70579   -1.000
 5318.00    1.75345   1.71883   -1.000
 5319.00    1.76900   1.73979   -1.000
 5320.00    1.77092   1.75095   -1.000
 5321.00    1.76214   1.74503  152.145
 5322.00    1.74789   1.72541   -1.000
 5323.00    1.73097   1.69902   -1.000
 5324.00    1.71968   1.67396   -1.000
 5325.00    1.70954   1.65269   -1.000
 5326.00    1.68126   1.62633   -1.000
 5327.00    1.62567   1.58641   -1.000
 5328.00    1.58523   1.55084   -1.000
 5329.00    1.60940   1.55060   -1.000
 5330.00    1.67496   1.59204   -1.000
 5331.00    1.72603   1.64975   -1.000
 5332.00    1.74397   1.69129   -1.000
 5333.00    1.75174   1.71116   -1.000
 5334.00    1.76510   1.72318   -1.000
 5335.00    1.76903   1.73194   -1.000
 5336.00    1.76436   1.73369   -1.000
 5337.00    1.76117   1.72716   -1.000
 5338.00    1.74781   1.71197   -1.000
 5339.00    1.72675   1.68851   -1.000
 5340.00    1.70790   1.66572   -1.000
 5341.00    1.71196   1.65902   -1.000
 5342.00    1.73930   1.67587   -1.000
 5343.00    1.76597   1.70433   -1.000
 5344.00    1.77078   1.72232   -1.000
 5345.00    1.76298   1.72176   -1.000
 5346.00    1.75780   1.71039   -1.000
 5347.00    1.74812   1.69897   -1.000
 5348.00    1.73689   1.69339   -1.000
 5349.00    1.73727   1.69534   -1.000
 5350.00    1.75320   1.70644   -1.000
 5351.00    1.77547   1.72577   -1.000
 5352.00    1.78965   1.74598   -1.000
 5353.00    1.79662   1.75994   -1.000
 5354.00    1.80755   1.77055   -1.000
 5355.00    1.82064   1.78311   -1.000
 5356.00    1.83167   1.79601   -1.000
 5357.00    1.83480   1.80441   -1.000
 5358.00    1.83069   1.80629   -1.000
 5359.00    1.82681   1.80309   -1.000
 5360.00    1.81777   1.79412   -1.000
 5361.00    1.79798   1.77708   -1.000
 5362.00    1.77794   1.75440   -1.000
 5363.00    1.76419   1.73236   -1.000
 5364.00    1.75237   1.71636   -1.000
 5365.00    1.74793   1.70876   -1.000
 5366.00    1.75135   1.70811   -1.000
 5367.00    1.75403   1.70813   -1.000
 5368.00    1.74961   1.69992   -1.000
 5369.00    1.72466   1.67793   -1.000
 5370.00    1.69254   1.64708   -1.000
 5371.00    1.68319   1.62570   -1.000
 5372.00    1.71579   1.63255   -1.000
 5373.00    1.76802   1.67055   -1.000
 5374.00    1.80588   1.72127   -1.000
 5375.00    1.82391   1.76092   -1.000
 5376.00    1.82696   1.78052   -1.000
 5377.00    1.82419   1.78406   -1.000
 5378.00    1.82087   1.77894   -1.000
 5379.00    1.81149   1.76983   -1.000
 5380.00    1.79750   1.75881   -1.000
 5381.00    1.78752   1.74737   -1.000
 5382.00    1.78156   1.73742   -1.000
 5383.00    1.78375   1.73311   -1.000
 5384.00    1.79530   1.73934   -1.000
 5385.00    1.80963   1.75568   -1.000
 5386.00    1.81884   1.77297   -1.000
 5387.00    1.81784   1.78098   -1.000
 5388.00    1.81113   1.77690   -1.000
 5389.00    1.79608   1.76378   -1.000
 5390.00    1.78186   1.74714   -1.000
 5391.00    1.77762   1.73149   -1.000
 5392.00    1.77199   1.71863   -1.000
 5393.00    1.76230   1.71036   -1.000
 5394.00    1.75187   1.70480   -1.000
 5395.00    1.73743   1.69388   -1.000
 5396.00    1.72080   1.67553   -1.000
 5397.00    1.71610   1.65969   -1.000
 5398.00    1.73442   1.66129   -1.000
 5399.00    1.76506   1.68385   -1.000
 5400.00    1.78691   1.71197   -1.000
 5401.00    1.79081   1.72896   -1.000
 5402.00    1.77882   1.72713   -1.000
 5403.00    1.74835   1.70339   -1.000
 5404.00    1.70655   1.66526   -1.000
 5405.00    1.68409   1.63396   -1.000
 5406.00    1.69728   1.62653   -1.000
 5407.00    1.72784   1.64188   -1.000
 5408.00    1.74208   1.66133   -1.000
 5409.00    1.73692   1.66809   -1.000
 5410.00    1.73708   1.66901   -1.000
 5411.00    1.76254   1.67980   -1.000
 5412.00    1.79454   1.70225   -1.000
 5413.00    1.80899   1.72379   -1.000
 5414.00    1.80165   1.73433   -1.000
 5415.00    1.79773   1.74068   -1.000
 5416.00    1.80351   1.75240   -1.000
 5417.00    1.81149   1.76686   -1.000
 5418.00    1.81193   1.77634   -1.000
 5419.00    1.80734   1.77738   -1.000
 5420.00    1.80402   1.77349   -1.000
 5421.00    1.80582   1.76844   -1.000
 5422.00    1.80109   1.75979   -1.000
 5423.00    1.78682   1.74669   -1.000
 5424.00    1.77839   1.73606   -1.000
 5425.00    1.78627   1.73905   -1.000
 5426.00    1.80160   1.75648   -1.000
 5427.00    1.80588   1.76700   -1.000
 5428.00    1.78237   1.75274   -1.000
 5429.00    1.75200   1.72280   -1.000
 5430.00    1.74753   1.70121   -1.000
 5431.00    1.76399   1.70117   -1.000
 5432.00    1.77136   1.70918   -1.000
 5433.00    1.75736   1.70720   -1.000
 5434.00    1.73713   1.69762   -1.000
 5435.00    1.73970   1.69601   -1.000
 5436.00    1.76777   1.71446   -1.000
 5437.00    1.80334   1.74949   -1.000
 5438.00    1.83600   1.78597   -1.000
 5439.00    1.85298   1.81067   -1.000
 5440.00    1.85909   1.82238   -1.000
 5441.00    1.86232   1.82771   -1.000
 5442.00    1.85802   1.82736   -1.000
 5443.00    1.84243   1.81551   -1.000
 5444.00    1.80843   1.78622   -1.000
 5445.00    1.76314   1.74319   -1.000
 5446.00    1.72971   1.70368   -1.000
 5447.00    1.73270   1.68804   -1.000
 5448.00    1.77164   1.70533   -1.000
 5449.00    1.81591   1.74263   -1.000
 5450.00    1.84000   1.77784   -1.000
 5451.00    1.84399   1.79779   -1.000
 5452.00    1.83472   1.79779   -1.000
 5453.00    1.81116   1.77793   -1.000
 5454.00    1.77241   1.74476   -1.000
 5455.00    1.74662   1.71391   -1.000
 5456.00    1.76082   1.70756   -1.000
 5457.00    1.80286   1.73296   -1.000
 5458.00    1.83675   1.77159   -1.000
 5459.00    1.84566   1.79889   -1.000
 5460.00    1.83951   1.80288   -1.000
 5461.00    1.82287   1.78665   -1.000
 5462.00    1.80497   1.76254   -1.000
 5463.00    1.79850   1.74601   -1.000
 5464.00    1.80981   1.74655   -1.000
 5465.00    1.82523   1.76119   -1.000
 5466.00    1.83545   1.77878   -1.000
 5467.00    1.84246   1.79195   -1.000
 5468.00    1.84655   1.80092   -1.000
 5469.00    1.84668   1.80541   -1.000
 5470.00    1.84383   1.80353   -1.000
 5471.00    1.83993   1.79663   -1.000
 5472.00    1.83365   1.78697   -1.000
 5473.00    1.82303   1.77423   -1.000
 5474.00    1.80364   1.75546   -1.000
 5475.00    1.77487   1.72921   -1.000
 5476.00    1.75263   1.70422   -1.000
 5477.00    1.75510   1.69573   -1.000
 5478.00    1.78701   1.71097   -1.000
 5479.00    1.81706   1.73934   -1.000
 5480.00    1.81711   1.75926   -1.000
 5481.00    1.80693   1.76371   -1.000
 5482.00    1.80651   1.76460   -1.000
 5483.00    1.81930   1.77372   -1.000
 5484.00    1.83832   1.79099   -1.000
 5485.00    1.84831   1.80493   -1.000
 5486.00    1.84339   1.80583   -1.000
 5487.00    1.82549   1.79599   -1.000
 5488.00    1.81221   1.78639   -1.000
 5489.00    1.81536   1.78568   -1.000
 5490.00    1.82433   1.79233   -1.000
 5491.00    1.83418   1.79991   -1.000
 5492.00    1.84239   1.80444   -1.000
 5493.00    1.84658   1.80607   -1.000
 5494.00    1.84751   1.80627   -1.000
 5495.00    1.84038   1.80329   -1.000
 5496.00    1.82947   1.79551   -1.000
 5497.00    1.82263   1.78664   -1.000
 5498.00    1.82909   1.78265   -1.000
 5499.00    1.84395   1.78428   -1.000
 5500.00    1.84106   1.78283   -1.000
 5501.00    1.82537   1.77243   -1.000
 5502.00    1.82149   1.76295   -1.000
 5503.00    1.83301   1.76292   -1.000
 5504.00    1.83905   1.76617   -1.000
 5505.00    1.82935   1.76294   -1.000
 5506.00    1.81080   1.75256   -1.000
 5507.00    1.80913   1.74706   -1.000
 5508.00    1.82551   1.75508   -1.000
 5509.00    1.83787   1.76982   -1.000
 5510.00    1.83559   1.77814   -1.000
 5511.00    1.82233   1.77254   -1.000
 5512.00    1.80263   1.75711   -1.000
 5513.00    1.79283   1.74410   -1.000
 5514.00    1.80434   1.74414   -1.000
 5515.00    1.83033   1.75779   -1.000
 5516.00    1.85527   1.77819   -1.000
 5517.00    1.87549   1.79911   -1.000
 5518.00    1.89225   1.81725   -1.000
 5519.00    1.89817   1.82969   -1.000
 5520.00    1.89393   1.83496   -1.000
 5521.00    1.88524   1.83486   -1.000
 5522.00    1.87591   1.83286   -1.000
 5523.00    1.87355   1.82979   -1.000
 5524.00    1.86891   1.82114   -1.000
 5525.00    1.85103   1.80200   -1.000
 5526.00    1.82322   1.77246   -1.000
 5527.00    1.79269   1.74168   -1.000
 5528.00    1.78266   1.72476   -1.000
 5529.00    1.80419   1.73333   -1.000
 5530.00    1.83766   1.76377   -1.000
 5531.00    1.85901   1.79550   -1.000
 5532.00    1.86343   1.81060   -1.000
 5533.00    1.85609   1.80759   -1.000
 5534.00    1.84514   1.79673   -1.000
 5535.00    1.84104   1.79019   -1.000
 5536.00    1.84848   1.79429   -1.000
 5537.00    1.86237   1.80526   -1.000
 5538.00    1.87639   1.81518   -1.000
 5539.00    1.88367   1.82286   -1.000
 5540.00    1.88617   1.83103   -1.000
 5541.00    1.88675   1.83596   -1.000
 5542.00    1.88000   1.83215   -1.000
 5543.00    1.86910   1.82221   -1.000
 5544.00    1.86165   1.81465   -1.000
 5545.00    1.86223   1.81492   -1.000
 5546.00    1.87053   1.82099   -1.000
 5547.00    1.88177   1.82961   -1.000
 5548.00    1.89493   1.84054   -1.000
 5549.00    1.90544   1.85124   -1.000
 5550.00    1.91053   1.85726   -1.000
 5551.00    1.90963   1.85722   -1.000
 5552.00    1.89848   1.85172   -1.000
 5553.00    1.88395   1.84292   -1.000
 5554.00    1.87847   1.83566   -1.000
 5555.00    1.88199   1.83431   -1.000
 5556.00    1.89057   1.83786   -1.000
 5557.00    1.89677   1.84212   -1.000
 5558.00    1.89860   1.84547   -1.000
 5559.00    1.90234   1.84761   -1.000
 5560.00    1.90215   1.84637   -1.000
 5561.00    1.89312   1.83959   -1.000
 5562.00    1.87840   1.82884   -1.000
 5563.00    1.86730   1.81893   -1.000
 5564.00    1.86333   1.81265   -1.000
 5565.00    1.86114   1.80917   -1.000
 5566.00    1.86130   1.80675   -1.000
 5567.00    1.86381   1.80437   -1.000
 5568.00    1.86251   1.80173   -1.000
 5569.00    1.85683   1.79911   -1.000
 5570.00    1.85629   1.79647   -1.000
 5571.00    1.85685   1.79304   -1.000
 5572.00    1.85146   1.78874   -1.000
 5573.00    1.85224   1.78754   -1.000
 5574.00    1.86010   1.79346   -1.000
 5575.00    1.86131   1.80263   -1.000
 5576.00    1.83735   1.81021   -1.000
 5577.00    1.79076   1.81814   -1.000
 5578.00    1.76706   1.82804   -1.000
 5579.00    1.79381   1.83637   -1.000
 5580.00    1.85260   1.83946  156.226
 5581.00    1.89573   1.83825   -1.000
 5582.00    1.89349   1.83631   -1.000
 5583.00    1.88507   1.83462   -1.000
 5584.00    1.87934   1.82937   -1.000
 5585.00    1.85663   1.81155   -1.000
 5586.00    1.82173   1.77667   -1.000
 5587.00    1.78821   1.73753   -1.000
 5588.00    1.77607   1.71259   -1.000
 5589.00    1.78953   1.71079   -1.000
 5590.00    1.81606   1.72879   -1.000
 5591.00    1.84019   1.75479   -1.000
 5592.00    1.84711   1.77450   -1.000
 5593.00    1.84296   1.78234   -1.000
 5594.00    1.84185   1.78525   -1.000
 5595.00    1.85473   1.79194   -1.000
 5596.00    1.86765   1.80158   -1.000
 5597.00    1.86477   1.80369   -1.000
 5598.00    1.84972   1.79391   -1.000
 5599.00    1.84192   1.78179   -1.000
 5600.00    1.83739   1.77251   -1.000
 5601.00    1.82630   1.76287   -1.000
 5602.00    1.82244   1.75854   -1.000
 5603.00    1.83960   1.77061   -1.000
 5604.00    1.87377   1.80059   -1.000
 5605.00    1.90551   1.83806   -1.000
 5606.00    1.92759   1.86885   -1.000
 5607.00    1.93980   1.88661   -1.000
 5608.00    1.94012   1.89386   -1.000
 5609.00    1.93638   1.89582   -1.000
 5610.00    1.93392   1.89679   -1.000
 5611.00    1.93338   1.89712   -1.000
 5612.00    1.92770   1.88978   -1.000
 5613.00    1.90291   1.86580   -1.000
 5614.00    1.86371   1.82634   -1.000
 5615.00    1.83439   1.78660   -1.000
 5616.00    1.83747   1.77053   -1.000
 5617.00    1.86885   1.78518   -1.000
 5618.00    1.89742   1.81312   -1.000
 5619.00    1.90912   1.83645   -1.000
 5620.00    1.91452   1.85084   -1.000
 5621.00    1.91621   1.85771   -1.000
 5622.00    1.90575   1.85625   -1.000
 5623.00    1.88591   1.84410   -1.000
 5624.00    1.87271   1.82719   -1.000
 5625.00    1.87344   1.81865   -1.000
 5626.00    1.89153   1.82550   -1.000
 5627.00    1.91296   1.84371   -1.000
 5628.00    1.92996   1.86373   -1.000
 5629.00    1.94275   1.87946   -1.000
 5630.00    1.95059   1.88951   -1.000
 5631.00    1.95043   1.89228   -1.000
 5632.00    1.94620   1.88708   -1.000
 5633.00    1.93663   1.87773   -1.000
 5634.00    1.92977   1.86821   -1.000
 5635.00    1.92441   1.85966   -1.000
 5636.00    1.91737   1.85215   -1.000
 5637.00    1.90781   1.84645   -1.000
 5638.00    1.90354   1.84425   -1.000
 5639.00    1.90244   1.84494   -1.000
 5640.00    1.90075   1.84461   -1.000
 5641.00    1.90265   1.84300   -1.000
 5642.00    1.90773   1.84410   -1.000
 5643.00    1.91022   1.84856   -1.000
 5644.00    1.91393   1.85399   -1.000
 5645.00    1.91963   1.85957   -1.000
 5646.00    1.92617   1.86467   -1.000
 5647.00    1.93240   1.86755   -1.000
 5648.00    1.93473   1.86733   -1.000
 5649.00    1.93115   1.86505   -1.000
 5650.00    1.92970   1.86401   -1.000
 5651.00    1.93318   1.86569   -1.000
 5652.00    1.93544   1.86718   -1.000
 5653.00    1.93446   1.86478   -1.000
 5654.00    1.92214   1.85706   -1.000
 5655.00    1.90331   1.84417   -1.000
 5656.00    1.88043   1.82517   -1.000
 5657.00    1.84878   1.80053   -1.000
 5658.00    1.82728   1.78015   -1.000
 5659.00    1.83680   1.77674   -1.000
 5660.00    1.86431   1.78901   -1.000
 5661.00    1.87982   1.80486   -1.000
 5662.00    1.88216   1.81599   -1.000
 5663.00    1.88935   1.82492   -1.000
 5664.00    1.90716   1.83811   -1.000
 5665.00    1.92285   1.85235   -1.000
 5666.00    1.91921   1.85850   -1.000
 5667.00    1.90679   1.85594   -1.000
 5668.00    1.90288   1.85192   -1.000
 5669.00    1.90461   1.85263   -1.000
 5670.00    1.91316   1.85918   -1.000
 5671.00    1.92919   1.86909   -1.000
 5672.00    1.94225   1.87879   -1.000
 5673.00    1.94635   1.88610   -1.000
 5674.00    1.94658   1.88957   -1.000
 5675.00    1.94410   1.88983   -1.000
 5676.00    1.94568   1.88979   -1.000
 5677.00    1.95019   1.89074   -1.000
 5678.00    1.94868   1.89046   -1.000
 5679.00    1.94203   1.88601   -1.000
 5680.00    1.93771   1.87558   -1.000
 5681.00    1.92936   1.85950   -1.000
 5682.00    1.91756   1.84194   -1.000
 5683.00    1.90853   1.82963   -1.000
 5684.00    1.90274   1.82775   -1.000
 5685.00    1.90753   1.83378   -1.000
 5686.00    1.91063   1.83804   -1.000
 5687.00    1.90079   1.83549   -1.000
 5688.00    1.89930   1.83115   -1.000
 5689.00    1.90918   1.83360   -1.000
 5690.00    1.92536   1.84604   -1.000
 5691.00    1.94122   1.86316   -1.000
 5692.00    1.95036   1.87758   -1.000
 5693.00    1.95203   1.88648   -1.000
 5694.00    1.94825   1.89136   -1.000
 5695.00    1.94838   1.89344   -1.000
 5696.00    1.94876   1.89288   -1.000
 5697.00    1.94280   1.88882   -1.000
 5698.00    1.93281   1.88015   -1.000
 5699.00    1.92077   1.86807   -1.000
 5700.00    1.90671   1.85595   -1.000
 5701.00    1.89647   1.84802   -1.000
 5702.00    1.89714   1.84663   -1.000
 5703.00    1.90683   1.85079   -1.000
 5704.00    1.90996   1.85513   -1.000
 5705.00    1.89813   1.85306   -1.000
 5706.00    1.87973   1.84267   -1.000
 5707.00    1.85824   1.82592   -1.000
 5708.00    1.83802   1.80564   -1.000
 5709.00    1.82872   1.78812   -1.000
 5710.00    1.82956   1.78146   -1.000
 5711.00    1.84547   1.78911   -1.000
 5712.00    1.87930   1.80985   -1.000
 5713.00    1.91043   1.83787   -1.000
 5714.00    1.92956   1.86399   -1.000
 5715.00    1.94221   1.88060   -1.000
 5716.00    1.94934   1.88860   -1.000
 5717.00    1.95174   1.89376   -1.000
 5718.00    1.95619   1.89967   -1.000
 5719.00    1.96344   1.90703   -1.000
 5720.00    1.96975   1.91540   -1.000
 5721.00    1.97248   1.92313   -1.000
 5722.00    1.97476   1.92861   -1.000
 5723.00    1.97710   1.93118   -1.000
 5724.00    1.97687   1.93056   -1.000
 5725.00    1.96882   1.92527   -1.000
 5726.00    1.95772   1.91576   -1.000
 5727.00    1.95277   1.90706   -1.000
 5728.00    1.95633   1.90399   -1.000
 5729.00    1.95545   1.90633   -1.000
 5730.00    1.95015   1.90877   -1.000
 5731.00    1.95107   1.90803   -1.000
 5732.00    1.96039   1.90746   -1.000
 5733.00    1.97202   1.91175   -1.000
 5734.00    1.97820   1.92051   -1.000
 5735.00    1.97720   1.92834   -1.000
 5736.00    1.97160   1.93142   -1.000
 5737.00    1.97154   1.93073   -1.000
 5738.00    1.97588   1.92936   -1.000
 5739.00    1.97350   1.92902   -1.000
 5740.00    1.96807   1.92878   -1.000
 5741.00    1.96757   1.92673   -1.000
 5742.00    1.96344   1.92414   -1.000
 5743.00    1.96344   1.92408   -1.000
 5744.00    1.97260   1.92738   -1.000
 5745.00    1.97408   1.93034   -1.000
 5746.00    1.96670   1.92894   -1.000
 5747.00    1.95805   1.92444   -1.000
 5748.00    1.95255   1.92215   -1.000
 5749.00    1.95734   1.92432   -1.000
 5750.00    1.96489   1.92522   -1.000
 5751.00    1.95933   1.91739   -1.000
 5752.00    1.94296   1.90166   -1.000
 5753.00    1.92824   1.88680   -1.000
 5754.00    1.92710   1.88342   -1.000
 5755.00    1.94365   1.89479   -1.000
 5756.00    1.96879   1.91471   -1.000
 5757.00    1.98396   1.93278   -1.000
 5758.00    1.98370   1.94173   -1.000
 5759.00    1.98034   1.93992   -1.000
 5760.00    1.97086   1.92952   -1.000
 5761.00    1.95360   1.91400   -1.000
 5762.00    1.94445   1.90102   -1.000
 5763.00    1.95121   1.89953   -1.000
 5764.00    1.96751   1.91215   -1.000
 5765.00    1.98038   1.93200   -1.000
 5766.00    1.98507   1.94800   -1.000
 5767.00    1.98797   1.95481   -1.000
 5768.00    1.99188   1.95489   -1.000
 5769.00    1.98921   1.95240   -1.000
 5770.00    1.98206   1.94872   -1.000
 5771.00    1.97689   1.94324   -1.000
 5772.00    1.97318   1.93583   -1.000
 5773.00    1.96772   1.92884   -1.000
 5774.00    1.96142   1.92494   -1.000
 5775.00    1.96099   1.92517   -1.000
 5776.00    1.96677   1.92885   -1.000
 5777.00    1.96453   1.93115   -1.000
 5778.00    1.94933   1.92501   -1.000
 5779.00    1.91729   1.90910  152.698
 5780.00    1.87138   1.88926  154.290
 5781.00    1.83809   1.87380   -1.000
 5782.00    1.83589   1.86767   -1.000
 5783.00    1.85811   1.86980  160.627
 5784.00    1.88641   1.87524  160.013
 5785.00    1.91251   1.88090   -1.000
 5786.00    1.93652   1.88964   -1.000
 5787.00    1.95383   1.90331   -1.000
 5788.00    1.96273   1.91589   -1.000
 5789.00    1.96415   1.92049   -1.000
 5790.00    1.96070   1.91750   -1.000
 5791.00    1.95886   1.91439   -1.000
 5792.00    1.96466   1.91785   -1.000
 5793.00    1.97339   1.92754   -1.000
 5794.00    1.97880   1.93876   -1.000
 5795.00    1.97589   1.94694   -1.000
 5796.00    1.96228   1.94852  150.881
 5797.00    1.94573   1.94405  151.438
 5798.00    1.94498   1.94056  152.436
 5799.00    1.96061   1.94384  152.367
 5800.00    1.98156   1.95198   -1.000
 5801.00    1.99826   1.95948   -1.000
 5802.00    2.00245   1.96218   -1.000
 5803.00    1.99826   1.95851   -1.000
 5804.00    1.99097   1.95044   -1.000
 5805.00    1.98649   1.94341   -1.000
 5806.00    1.98997   1.94172   -1.000
 5807.00    1.99241   1.94491   -1.000
 5808.00    1.99397   1.94946   -1.000
 5809.00    2.00148   1.95371   -1.000
 5810.00    2.00550   1.95808   -1.000
 5811.00    2.00510   1.96171   -1.000
 5812.00    2.00794   1.96241   -1.000
 5813.00    2.01121   1.95959   -1.000
 5814.00    2.00770   1.95372   -1.000
 5815.00    2.00197   1.94642   -1.000
 5816.00    2.00247   1.94256   -1.000
 5817.00    2.01070   1.94705   -1.000
 5818.00    2.02435   1.95783   -1.000
 5819.00    2.03217   1.96770   -1.000
 5820.00    2.03061   1.97242   -1.000
 5821.00    2.03118   1.97346   -1.000
 5822.00    2.03282   1.97404   -1.000
 5823.00    2.03234   1.97511   -1.000
 5824.00    2.03233   1.97560   -1.000
 5825.00    2.03553   1.97552   -1.000
 5826.00    2.03402   1.97623   -1.000
 5827.00    2.03091   1.97826   -1.000
 5828.00    2.03577   1.98026   -1.000
 5829.00    2.03973   1.98096   -1.000
 5830.00    2.04075   1.98071   -1.000
 5831.00    2.04068   1.98009   -1.000
 5832.00    2.04048   1.97860   -1.000
 5833.00    2.03689   1.97558   -1.000
 5834.00    2.03105   1.97225   -1.000
 5835.00    2.02981   1.97129   -1.000
 5836.00    2.03347   1.97416   -1.000
 5837.00    2.03649   1.97857   -1.000
 5838.00    2.03422   1.98135   -1.000
 5839.00    2.03498   1.98242   -1.000
 5840.00    2.04199   1.98376   -1.000
 5841.00    2.04334   1.98548   -1.000
 5842.00    2.03815   1.98579   -1.000
 5843.00    2.03396   1.98386   -1.000
 5844.00    2.03063   1.97997   -1.000
 5845.00    2.02451   1.97398   -1.000
 5846.00    2.02001   1.96706   -1.000
 5847.00    2.01750   1.96255   -1.000
 5848.00    2.01930   1.96250   -1.000
 5849.00    2.02241   1.96377   -1.000
 5850.00    2.01596   1.96125   -1.000
 5851.00    2.00191   1.95247   -1.000
 5852.00    1.99183   1.93976   -1.000
 5853.00    1.98959   1.92781   -1.000
 5854.00    1.98723   1.91915   -1.000
 5855.00    1.98433   1.91090   -1.000
 5856.00    1.97704   1.89688   -1.000
 5857.00    1.96372   1.87979   -1.000
 5858.00    1.96557   1.87340   -1.000
 5859.00    1.98664   1.88413   -1.000
 5860.00    2.00497   1.90386   -1.000
 5861.00    2.01133   1.92151   -1.000
 5862.00    2.01446   1.93315   -1.000
 5863.00    2.01907   1.94162   -1.000
 5864.00    2.01914   1.94721   -1.000
 5865.00    2.01323   1.94635   -1.000
 5866.00    2.00585   1.94024   -1.000
 5867.00    2.01045   1.93588   -1.000
 5868.00    2.02643   1.93966   -1.000
 5869.00    2.03650   1.95148   -1.000
 5870.00    2.03924   1.96448   -1.000
 5871.00    2.03879   1.97137   -1.000
 5872.00    2.03957   1.97046   -1.000
 5873.00    2.04131   1.96494   -1.000
 5874.00    2.04194   1.95871   -1.000
 5875.00    2.03887   1.95378   -1.000
 5876.00    2.03565   1.95059   -1.000
 5877.00    2.03370   1.94834   -1.000
 5878.00    2.02575   1.94552   -1.000
 5879.00    2.02024   1.94135   -1.000
 5880.00    2.02025   1.93636   -1.000
 5881.00    2.01733   1.93050   -1.000
 5882.00    2.01142   1.92269   -1.000
 5883.00    2.00900   1.91306   -1.000
 5884.00    2.00779   1.90381   -1.000
 5885.00    2.00146   1.89491   -1.000
 5886.00    1.97495   1.87535   -1.000
 5887.00    1.90773   1.82610   -1.000
 5888.00    1.78170   1.74203   -1.000
 5889.00    1.60818   1.65015   -1.000
 5890.00    1.46321   1.60145   -1.000
 5891.00    1.44694   1.61736   -1.000
 5892.00    1.56727   1.66503   -1.000
 5893.00    1.70779   1.69539   -1.000
 5894.00    1.74095   1.68743   -1.000
 5895.00    1.65977   1.65797  172.952
 5896.00    1.56527   1.64358   -1.000
 5897.00    1.56135   1.67036   -1.000
 5898.00    1.67340   1.72819   -1.000
 5899.00    1.82435   1.78728   -1.000
 5900.00    1.92876   1.83344   -1.000
 5901.00    1.97493   1.86950   -1.000
 5902.00    1.99020   1.89640   -1.000
 5903.00    1.99701   1.91273   -1.000
 5904.00    2.00800   1.92040   -1.000
 5905.00    2.01612   1.92422   -1.000
 5906.00    2.01638   1.92808   -1.000
 5907.00    2.02085   1.93294   -1.000
 5908.00    2.02335   1.93767   -1.000
 5909.00    2.01999   1.94151   -1.000
 5910.00    2.01426   1.94393   -1.000
 5911.00    2.00862   1.94343   -1.000
 5912.00    2.00363   1.93694   -1.000
 5913.00    1.99138   1.92444   -1.000
 5914.00    1.98097   1.91200   -1.000
 5915.00    1.97766   1.90612   -1.000
 5916.00    1.98197   1.90856   -1.000
 5917.00    1.99413   1.91743   -1.000
 5918.00    2.00395   1.92927   -1.000
 5919.00    2.00734   1.93915   -1.000
 5920.00    2.00291   1.94409   -1.000
 5921.00    1.99858   1.94477   -1.000
 5922.00    2.00353   1.94406   -1.000
 5923.00    2.00800   1.94454   -1.000
 5924.00    2.00910   1.94779   -1.000
 5925.00    2.01037   1.95309   -1.000
 5926.00    2.01135   1.95680   -1.000
 5927.00    2.01202   1.95417   -1.000
 5928.00    2.00941   1.94446   -1.000
 5929.00    2.00668   1.93330   -1.000
 5930.00    2.00733   1.92843   -1.000
 5931.00    2.01212   1.93307   -1.000
 5932.00    2.01584   1.94150   -1.000
 5933.00    2.01141   1.94553   -1.000
 5934.00    2.00885   1.94544   -1.000
 5935.00    2.01175   1.94746   -1.000
 5936.00    2.01520   1.95383   -1.000
 5937.00    2.02358   1.96108   -1.000
 5938.00    2.02819   1.96414   -1.000
 5939.00    2.02337   1.96088   -1.000
 5940.00    2.01435   1.95340   -1.000
 5941.00    2.00595   1.94692   -1.000
 5942.00    2.00170   1.94526   -1.000
 5943.00    2.00156   1.94829   -1.000
 5944.00    2.00545   1.95300   -1.000
 5945.00    2.00850   1.95602   -1.000
 5946.00    2.00719   1.95455   -1.000
 5947.00    1.99703   1.94839   -1.000
 5948.00    1.98667   1.94180   -1.000
 5949.00    1.98858   1.93989   -1.000
 5950.00    1.99867   1.94312   -1.000
 5951.00    2.00036   1.94588   -1.000
 5952.00    1.99760   1.94423   -1.000
 5953.00    2.00183   1.94212   -1.000
 5954.00    2.00495   1.94301   -1.000
 5955.00    2.00787   1.94312   -1.000
 5956.00    2.00720   1.94044   -1.000
 5957.00    2.00523   1.93920   -1.000
 5958.00    2.00932   1.94384   -1.000
 5959.00    2.01651   1.95413   -1.000
 5960.00    2.02718   1.96544   -1.000
 5961.00    2.03745   1.97331   -1.000
 5962.00    2.04010   1.97663   -1.000
 5963.00    2.03416   1.97604   -1.000
 5964.00    2.03073   1.97238   -1.000
 5965.00    2.03292   1.96756   -1.000
 5966.00    2.03236   1.96435   -1.000
 5967.00    2.03011   1.96462   -1.000
 5968.00    2.02995   1.96791   -1.000
 5969.00    2.03122   1.97321   -1.000
 5970.00    2.03165   1.97938   -1.000
 5971.00    2.03312   1.98420   -1.000
 5972.00    2.03673   1.98542   -1.000
 5973.00    2.03483   1.98174   -1.000
 5974.00    2.02144   1.97289   -1.000
 5975.00    2.00751   1.96061   -1.000
 5976.00    2.00116   1.94939   -1.000
 5977.00    1.99794   1.94480   -1.000
 5978.00    1.99984   1.94905   -1.000
 5979.00    2.01093   1.95923   -1.000
 5980.00    2.02570   1.96899   -1.000
 5981.00    2.02777   1.97174   -1.000
 5982.00    2.01336   1.96446   -1.000
 5983.00    1.99812   1.95087   -1.000
 5984.00    1.99250   1.93966   -1.000
 5985.00    1.99774   1.93751   -1.000
 5986.00    2.00782   1.94408   -1.000
 5987.00    2.01906   1.95406   -1.000
 5988.00    2.02674   1.96276   -1.000
 5989.00    2.02526   1.96775   -1.000
 5990.00    2.02106   1.96910   -1.000
 5991.00    2.01900   1.96959   -1.000
 5992.00    2.02102   1.97384   -1.000
 5993.00    2.02865   1.98220   -1.000
 5994.00    2.03503   1.98827   -1.000
 5995.00    2.03311   1.98696   -1.000
 5996.00    2.02895   1.98018   -1.000
 5997.00    2.02292   1.97354   -1.000
 5998.00    2.01900   1.97079   -1.000
 5999.00    2.02401   1.97175   -1.000
 6000.00    2.02762   1.97303   -1.000
 6001.00    2.02541   1.97133   -1.000
 6002.00    2.01928   1.96661   -1.000
 6003.00    2.01258   1.96259   -1.000
 6004.00    2.01104   1.96198   -1.000
 6005.00    2.00766   1.96126   -1.000
 6006.00    1.99772   1.95445   -1.000
 6007.00    1.99012   1.94318   -1.000
 6008.00    1.98907   1.93694   -1.000
 6009.00    1.99690   1.94277   -1.000
 6010.00    2.00686   1.95661   -1.000
 6011.00    2.00801   1.96675   -1.000
 6012.00    2.00126   1.96763   -1.000
 6013.00    2.00082   1.96342   -1.000
 6014.00    2.00724   1.96000   -1.000
 6015.00    2.01270   1.95886   -1.000
 6016.00    2.01549   1.95861   -1.000
 6017.00    2.01524   1.95766   -1.000
 6018.00    2.01257   1.95481   -1.000
 6019.00    2.00600   1.94895   -1.000
 6020.00    1.99857   1.94165   -1.000
 6021.00    1.99650   1.93799   -1.000
 6022.00    1.99845   1.93989   -1.000
 6023.00    2.00356   1.94436   -1.000
 6024.00    2.01056   1.95099   -1.000
 6025.00    2.01448   1.96176   -1.000
 6026.00    2.02055   1.97376   -1.000
 6027.00    2.02549   1.98302   -1.000
 6028.00    2.02916   1.99052   -1.000
 6029.00    2.03483   1.99772   -1.000
 6030.00    2.04043   2.00310   -1.000
 6031.00    2.04572   2.00597   -1.000
 6032.00    2.04927   2.00806   -1.000
 6033.00    2.05260   2.01087   -1.000
 6034.00    2.05429   2.01395   -1.000
 6035.00    2.05290   2.01562   -1.000
 6036.00    2.05008   2.01529   -1.000
 6037.00    2.04517   2.01335   -1.000
 6038.00    2.03799   2.00973   -1.000
 6039.00    2.03478   2.00438   -1.000
 6040.00    2.03724   1.99873   -1.000
 6041.00    2.04033   1.99504   -1.000
 6042.00    2.04356   1.99493   -1.000
 6043.00    2.04736   1.99867   -1.000
 6044.00    2.05069   2.00466   -1.000
 6045.00    2.05257   2.01016   -1.000
 6046.00    2.05491   2.01460   -1.000
 6047.00    2.05582   2.01921   -1.000
 6048.00    2.05072   2.02352   -1.000
 6049.00    2.04969   2.02572   -1.000
 6050.00    2.05732   2.02560   -1.000
 6051.00    2.05957   2.02407   -1.000
 6052.00    2.05413   2.02049   -1.000
 6053.00    2.05029   2.01358   -1.000
 6054.00    2.04796   2.00424   -1.000
 6055.00    2.04335   1.99629   -1.000
 6056.00    2.04207   1.99367   -1.000
 6057.00    2.04728   1.99750   -1.000
 6058.00    2.05095   2.00482   -1.000
 6059.00    2.05144   2.01152   -1.000
 6060.00    2.04913   2.01508   -1.000
 6061.00    2.04190   2.01391   -1.000
 6062.00    2.03328   2.00628   -1.000
 6063.00    2.02499   1.99170   -1.000
 6064.00    2.02362   1.97423   -1.000
 6065.00    2.01553   1.96404   -1.000
 6066.00    2.00617   1.96897   -1.000
 6067.00    2.08203   1.98522   -1.000
 6068.00    1.89590   2.00313   -1.000
 6069.00    1.02055   2.01665   -1.000
 6070.00    0.74920   2.02460   -1.000
 6071.00    1.59476   2.02850   -1.000
 6072.00    2.05616   2.03102   -1.000
 6073.00    2.05268   2.03334   -1.000
 6074.00    2.07477   2.03429   -1.000
 6075.00    2.06887   2.03201   -1.000
 6076.00    2.04942   2.02575   -1.000
 6077.00    2.04220   2.01582   -1.000
 6078.00    2.03000   2.00533   -1.000
 6079.00    2.02366   1.99911   -1.000
 6080.00    2.02578   1.99732   -1.000
 6081.00    2.02510   1.99557   -1.000
 6082.00    2.02025   1.99205   -1.000
 6083.00    2.02132   1.98841   -1.000
 6084.00    2.02340   1.98667   -1.000
 6085.00    2.02240   1.98876   -1.000
 6086.00    2.02336   1.99510   -1.000
 6087.00    2.02548   2.00220   -1.000
 6088.00    2.02751   2.00533   -1.000
 6089.00    2.02131   2.00345   -1.000
 6090.00    2.01500   1.99943  157.503
 6091.00    2.01661   1.99708   -1.000
 6092.00    2.02188   1.99849   -1.000
 6093.00    2.02940   2.00337   -1.000
 6094.00    2.03798   2.00985   -1.000
 6095.00    2.04019   2.01616   -1.000
 6096.00    2.03896   2.02154   -1.000
 6097.00    2.04095   2.02535  155.128
 6098.00    2.04303   2.02564   -1.000
 6099.00    2.03911   2.01803   -1.000
 6100.00    2.01738   1.99781   -1.000
 6101.00    1.98475   1.96657   -1.000
 6102.00    1.96463   1.93766   -1.000
 6103.00    1.97176   1.92926   -1.000
 6104.00    1.99764   1.94545   -1.000
 6105.00    2.02132   1.97222   -1.000
 6106.00    2.03043   1.99461   -1.000
 6107.00    2.02650   2.00894   -1.000
 6108.00    2.02549   2.01829  157.088
 6109.00    2.03003   2.02469  157.641
 6110.00    2.03293   2.02771  157.764
 6111.00    2.03165   2.02799  157.524
 6112.00    2.03253   2.02822  156.979
 6113.00    2.03711   2.03004  156.613
 6114.00    2.03403   2.03237  156.208
 6115.00    2.02641   2.03312  155.550
 6116.00    2.02511   2.03204  155.731
 6117.00    2.02233   2.02982  156.627
 6118.00    2.01165   2.02402  157.257
 6119.00    1.99992   2.00945  157.698
 6120.00    1.98158   1.98365  159.311
 6121.00    1.96320   1.95333  161.606
 6122.00    1.95930   1.93280   -1.000
 6123.00    1.97550   1.93223   -1.000
 6124.00    1.99708   1.94925   -1.000
 6125.00    2.00477   1.97225   -1.000
 6126.00    2.00625   1.99033   -1.000
 6127.00    2.00632   1.99952  159.829
 6128.00    2.00590   2.00396  160.221
 6129.00    2.01321   2.01030  159.851
 6130.00    2.02221   2.02072  159.003
 6131.00    2.02595   2.03197  157.527
 6132.00    2.02296   2.03902  156.639
 6133.00    2.00918   2.03504   -1.000
 6134.00    1.98180   2.01300   -1.000
 6135.00    1.94418   1.97347   -1.000
 6136.00    1.90957   1.93121   -1.000
 6137.00    1.90257   1.90781  169.265
 6138.00    1.92785   1.90931   -1.000
 6139.00    1.95965   1.92105   -1.000
 6140.00    1.97262   1.93248   -1.000
 6141.00    1.96855   1.94764   -1.000
 6142.00    1.97256   1.97031  160.706
 6143.00    1.98867   1.99510  161.100
 6144.00    2.00827   2.01339  160.359
 6145.00    2.02134   2.02057  158.448
 6146.00    2.01889   2.01837  157.402
 6147.00    2.01205   2.01128  157.783
 6148.00    2.00469   2.00292  158.709
 6149.00    1.99544   1.99580  159.805
 6150.00    1.99457   1.99256  160.856
 6151.00    2.00219   1.99573  161.298
 6152.00    2.00705   2.00279  160.932
 6153.00    2.00631   2.00612  160.029
 6154.00    2.00177   2.00213  159.350
 6155.00    1.99875   1.99530  160.027
 6156.00    1.99977   1.99098  161.217
 6157.00    1.99788   1.98857  161.622
 6158.00    1.98726   1.98140  161.980
 6159.00    1.96464   1.96033  163.243
 6160.00    1.92616   1.92199  165.759
 6161.00    1.89014   1.87660  169.976
 6162.00    1.87638   1.84480   -1.000
 6163.00    1.88837   1.84121   -1.000
 6164.00    1.91678   1.86194   -1.000
 6165.00    1.94105   1.89117   -1.000
 6166.00    1.94644   1.91335   -1.000
 6167.00    1.93766   1.91895   -1.000
 6168.00    1.92148   1.90890  168.290
 6169.00    1.90855   1.89836  169.700
 6170.00    1.91671   1.90257  171.792
 6171.00    1.93973   1.92135   -1.000
 6172.00    1.95645   1.94405  169.372
 6173.00    1.96101   1.96296  166.436
 6174.00    1.96224   1.97565  165.471
 6175.00    1.96618   1.98258  165.791
 6176.00    1.97091   1.98676  165.615
 6177.00    1.97703   1.99092  165.218
 6178.00    1.97887   1.99515  164.848
 6179.00    1.97834   1.99872  164.198
 6180.00    1.98615   2.00293  163.470
 6181.00    1.99557   2.00919  162.937
 6182.00    1.99871   2.01566  162.295
 6183.00    1.99996   2.01847  161.696
 6184.00    1.99868   2.01594  161.693
 6185.00    1.99311   2.00923  162.198
 6186.00    1.98327   2.00030  163.152
 6187.00    1.97454   1.99078  164.763
 6188.00    1.96231   1.98004  166.548
 6189.00    1.94566   1.96451  168.185
 6190.00    1.92682   1.94502  169.580
 6191.00    1.92210   1.93312  171.287
 6192.00    1.94028   1.93927  173.039
 6193.00    1.96683   1.95908  172.477
 6194.00    1.98889   1.98059  169.105
 6195.00    1.99737   1.99716  165.491
 6196.00    1.99321   2.00728  163.791
 6197.00    1.98585   2.00985   -1.000
 6198.00    1.97482   2.00517   -1.000
 6199.00    1.96666   1.99739   -1.000
 6200.00    1.96848   1.99359   -1.000
 6201.00    1.97434   1.99754   -1.000
 6202.00    1.97797   2.00726   -1.000
 6203.00    1.97910   2.01844   -1.000
 6204.00    1.98022   2.02795   -1.000
 6205.00    1.98344   2.03425   -1.000
 6206.00    1.99011   2.03774   -1.000
 6207.00    1.99741   2.03942   -1.000
 6208.00    1.99691   2.03915   -1.000
 6209.00    1.99429   2.03536   -1.000
 6210.00    1.99012   2.02606   -1.000
 6211.00    1.97841   2.01027   -1.000
 6212.00    1.96162   1.99045   -1.000
 6213.00    1.94577   1.97257   -1.000
 6214.00    1.93840   1.96225   -1.000
 6215.00    1.94497   1.96022  172.333
 6216.00    1.95254   1.96207  173.330
 6217.00    1.95709   1.96203  172.303
 6218.00    1.95932   1.95864  170.557
 6219.00    1.95708   1.95618  170.963
 6220.00    1.95657   1.96000  171.441
 6221.00    1.96505   1.96970  170.293
 6222.00    1.97565   1.97975  170.176
 6223.00    1.98270   1.98624  177.108
 6224.00    1.99862   1.98948  181.631
 6225.00    1.89146   1.99069   -1.000
 6226.00    1.74562   1.98886   -1.000
 6227.00    1.86946   1.98070   -1.000
 6228.00    1.97579   1.96333  169.437
 6229.00    1.93891   1.93971  171.156
 6230.00    1.92557   1.91971  173.853
 6231.00    1.92461   1.91370  176.438
 6232.00    1.94234   1.92461   -1.000
 6233.00    1.96526   1.94596   -1.000
 6234.00    1.98210   1.96663   -1.000
 6235.00    1.99012   1.97821  169.128
 6236.00    1.98811   1.97859  167.403
 6237.00    1.97727   1.97168  167.722
 6238.00    1.96528   1.96338  169.266
 6239.00    1.96023   1.95774  171.011
 6240.00    1.95685   1.95475  172.788
 6241.00    1.94845   1.95152  174.084
 6242.00    1.93939   1.94467  174.321
 6243.00    1.93608   1.93351  174.871
 6244.00    1.93427   1.92087  176.211
 6245.00    1.93083   1.91240   -1.000
 6246.00    1.93577   1.91460   -1.000
 6247.00    1.95166   1.92995   -1.000
 6248.00    1.96928   1.95235   -1.000
 6249.00    1.97653   1.96933  170.452
 6250.00    1.96846   1.97121  169.499
 6251.00    1.94649   1.95769  170.301
 6252.00    1.92157   1.93747  172.777
 6253.00    1.90990   1.92111  175.572
 6254.00    1.90809   1.91381  177.159
 6255.00    1.90350   1.91344  177.960
 6256.00    1.90246   1.91511  178.130
 6257.00    1.91264   1.91680  178.842
 6258.00    1.92642   1.92056  180.599
 6259.00    1.93630   1.92942  181.024
 6260.00    1.95035   1.94377  179.112
 6261.00    1.96334   1.96109  176.293
 6262.00    1.97085   1.97665  173.791
 6263.00    1.97590   1.98600  171.285
 6264.00    1.97327   1.98923  169.472
 6265.00    1.96812   1.99134   -1.000
 6266.00    1.96783   1.99598   -1.000
 6267.00    1.97153   2.00074   -1.000
 6268.00    1.97430   2.00086   -1.000
 6269.00    1.96881   1.99633   -1.000
 6270.00    1.96275   1.99240   -1.000
 6271.00    1.96459   1.99283   -1.000
 6272.00    1.96841   1.99498   -1.000
 6273.00    1.97522   1.99185  170.101
 6274.00    1.98029   1.97921  170.124
 6275.00    1.97944   1.95933   -1.000
 6276.00    1.96721   1.93867   -1.000
 6277.00    1.94074   1.92238   -1.000
 6278.00    1.89856   1.91210  178.107
 6279.00    1.85443   1.90850   -1.000
 6280.00    1.82907   1.91365   -1.000
 6281.00    1.82560   1.92796   -1.000
 6282.00    1.83195   1.94788   -1.000
 6283.00    1.83541   1.96819   -1.000
 6284.00    1.84139   1.98484   -1.000
 6285.00    1.85066   1.99622   -1.000
 6286.00    1.86988   2.00319   -1.000
 6287.00    1.90424   2.00649   -1.000
 6288.00    1.93184   2.00527   -1.000
 6289.00    1.94746   1.99959   -1.000
 6290.00    1.95273   1.99267   -1.000
 6291.00    1.95269   1.98810   -1.000
 6292.00    1.95492   1.98679   -1.000
 6293.00    1.95371   1.98726   -1.000
 6294.00    1.95143   1.98648   -1.000
 6295.00    1.95160   1.98106   -1.000
 6296.00    1.94386   1.97099   -1.000
 6297.00    1.93590   1.96074   -1.000
 6298.00    1.93437   1.95426   -1.000
 6299.00    1.93770   1.94999  175.673
 6300.00    1.94004   1.94469  175.155
 6301.00    1.95003   1.94120  174.365
 6302.00    1.96668   1.94703   -1.000
 6303.00    1.97379   1.96394  176.538
 6304.00    1.97814   1.98481  176.939
 6305.00    1.98119   2.00175   -1.000
 6306.00    1.98443   2.01209   -1.000
 6307.00    1.98555   2.01652   -1.000
 6308.00    1.98268   2.01704   -1.000
 6309.00    1.97580   2.01604   -1.000
 6310.00    1.96785   2.01451   -1.000
 6311.00    1.96176   2.01180   -1.000
 6312.00    1.95770   2.00647   -1.000
 6313.00    1.95290   1.99792   -1.000
 6314.00    1.94609   1.98772   -1.000
 6315.00    1.94193   1.97823   -1.000
 6316.00    1.93837   1.97051   -1.000
 6317.00    1.92985   1.96609   -1.000
 6318.00    1.93022   1.96852   -1.000
 6319.00    1.93827   1.97942   -1.000
 6320.00    1.95054   1.99423   -1.000
 6321.00    1.96354   2.00665   -1.000
 6322.00    1.97067   2.01648   -1.000
 6323.00    1.97927   2.02689   -1.000
 6324.00    1.98923   2.03694   -1.000
 6325.00    1.99455   2.04295   -1.000
 6326.00    1.99782   2.04414   -1.000
 6327.00    2.00156   2.04299   -1.000
 6328.00    2.00499   2.04189   -1.000
 6329.00    2.00330   2.04170   -1.000
 6330.00    1.99835   2.04247   -1.000
 6331.00    1.99557   2.04338   -1.000
 6332.00    1.99454   2.04098   -1.000
 6333.00    1.98561   2.03089   -1.000
 6334.00    1.97256   2.01333   -1.000
 6335.00    1.95575   1.99573   -1.000
 6336.00    1.95356   1.98749   -1.000
 6337.00    1.99395   1.99166  170.139
 6338.00    2.02812   2.00411   -1.000
 6339.00    2.00377   2.01952  167.763
 6340.00    1.99773   2.03350   -1.000
 6341.00    2.00345   2.04164   -1.000
 6342.00    2.00051   2.04186   -1.000
 6343.00    1.99361   2.03655   -1.000
 6344.00    1.99030   2.03003   -1.000
 6345.00    1.99134   2.02608   -1.000
 6346.00    1.99495   2.02791   -1.000
 6347.00    1.99841   2.03706   -1.000
 6348.00    2.00198   2.05086   -1.000
 6349.00    2.00360   2.06336   -1.000
 6350.00    2.00612   2.07025   -1.000
 6351.00    2.00470   2.07069   -1.000
 6352.00    2.00144   2.06540   -1.000
 6353.00    1.99161   2.05631   -1.000
 6354.00    1.97886   2.04703   -1.000
 6355.00    1.97002   2.04047   -1.000
 6356.00    1.96701   2.03571   -1.000
 6357.00    1.96634   2.03020   -1.000
 6358.00    1.96143   2.02428   -1.000
 6359.00    1.95479   2.01982   -1.000
 6360.00    1.95502   2.01611   -1.000
 6361.00    1.96195   2.01192   -1.000
 6362.00    1.96709   2.00887   -1.000
 6363.00    1.96775   2.00969   -1.000
 6364.00    1.97926   2.01489   -1.000
 6365.00    1.99387   2.02294   -1.000
 6366.00    1.99716   2.03187   -1.000
 6367.00    2.00295   2.03904   -1.000
 6368.00    2.00072   2.04172   -1.000
 6369.00    1.99226   2.04022   -1.000
 6370.00    1.99238   2.03903   -1.000
 6371.00    2.00001   2.04244   -1.000
 6372.00    2.00322   2.05022   -1.000
 6373.00    2.00420   2.05814   -1.000
 6374.00    2.00591   2.06210   -1.000
 6375.00    1.99772   2.06092   -1.000
 6376.00    1.98543   2.05600   -1.000
 6377.00    1.98107   2.04988   -1.000
 6378.00    1.97947   2.04450   -1.000
 6379.00    1.96984   2.04023   -1.000
 6380.00    1.95985   2.03672   -1.000
 6381.00    1.95948   2.03405   -1.000
 6382.00    1.96179   2.03281   -1.000
 6383.00    1.96380   2.03401   -1.000
 6384.00    1.96684   2.03842   -1.000
 6385.00    1.96782   2.04505   -1.000
 6386.00    1.96618   2.05087   -1.000
 6387.00    1.96110   2.05358   -1.000
 6388.00    1.95300   2.05364   -1.000
 6389.00    1.94338   2.05166   -1.000
 6390.00    1.93264   2.04539   -1.000
 6391.00    1.91743   2.03284   -1.000
 6392.00    1.89610   2.01798   -1.000
 6393.00    1.88131   2.00990   -1.000
 6394.00    1.88024   2.01440   -1.000
 6395.00    1.88836   2.02780   -1.000
 6396.00    1.89389   2.03914   -1.000
 6397.00    1.88240   2.03853   -1.000
 6398.00    1.85682   2.02558   -1.000
 6399.00    1.82953   2.01063   -1.000
 6400.00    1.81831   2.00621   -1.000
 6401.00    1.82893   2.01634   -1.000
 6402.00    1.84458   2.03490   -1.000
 6403.00    1.85217   2.05223   -1.000
 6404.00    1.85073   2.06073   -1.000
 6405.00    1.84050   2.05778   -1.000
 6406.00    1.82361   2.04721   -1.000
 6407.00    1.80719   2.03739   -1.000
 6408.00    1.79670   2.03389   -1.000
 6409.00    1.78565   2.03431   -1.000
 6410.00    1.77122   2.03389   -1.000
 6411.00    1.75710   2.03347   -1.000
 6412.00    1.75011   2.03674   -1.000
 6413.00    1.74736   2.04289   -1.000
 6414.00    1.74211   2.04817   -1.000
 6415.00    1.73763   2.05147   -1.000
 6416.00    1.73088   2.05327   -1.000
 6417.00    1.72039   2.05167   -1.000
 6418.00    1.69926   2.04408   -1.000
 6419.00    1.67380   2.03218   -1.000
 6420.00    1.65336   2.02325   -1.000
 6421.00    1.64137   2.02554   -1.000
 6422.00    1.64199   2.04013   -1.000
 6423.00    1.64579   2.05948   -1.000
 6424.00    1.64234   2.07594   -1.000
 6425.00    1.63182   2.08740   -1.000
 6426.00    1.61527   2.09334   -1.000
 6427.00    1.59614   2.09123   -1.000
 6428.00    1.57734   2.07879   -1.000
