###################################################################
## OUTPUT of StarlightChains_v04.for    [Cid@UFSC - 01/Apr/2007] ##
###################################################################

## Some input info
NGC5927_c_1.cxt                          [arq_obs]
Base.BC03.N                              [arq_base]
NGC5927_c_1.msk                          [arq_masks]
StCv04.C11.config                        [arq_config]
   45                                    [N_base]
    0                                    [N_YAV_components = # of components with extra extinction!]
    0                                    [i_FitPowerLaw (1/0 = Yes/No)]
-9.99                                    [alpha_PowerLaw]
CCM                                      [red_law_option]
 1.458241                                [q_norm = A(l_norm)/A(V)]

## (Re)Sampling Parameters
 3359.00                                 [l_ini (A)]
 6428.00                                 [l_fin (A)]
    1.00                                 [dl    (A)]     (OBS: dl_cushion =    50.00 A)

## Normalization info
 4020.00                                 [l_norm (A) - for base]
 4010.00                                 [llow_norm (A) - window for f_obs]
 4060.00                                 [lupp_norm (A) - window for f_obs]
5.954027E-15                             [fobs_norm (in input units)]

## S/N
 4730.00                                 [llow_SN (A) - window for S/N]
 4780.00                                 [lupp_SN (A) - window for S/N]
  31.182                                 [S/N in S/N window]
  18.272                                 [S/N in norm. window]
 384.682                                 [S/N_err in S/N window]
 225.410                                 [S/N_err in norm. window]
  1.0000                                 [fscale_chi2]

## etc...
  2147483631                             [idum_orig]
  3066                                   [NOl_eff]
  1157                                   [Nl_eff]
  1909    NSIGMA                         [Ntot_cliped & clip_method]
   955640                                [Nglobal_steps]
   7                                     [N_chains]
  11                                     [NEX0s_base = N_base in EX0s-fits]
 0   0   1      166   2.0   5.068E+02    [Clip-Bug, RC-Crash & Burn-In warning-flags, n_censored_weights, wei_nsig_threshold & wei_limit]
    10     10.425     10.421      0.004  [idt_all, wdt_TotTime, wdt_UsrTime & wdt_SysTime (sec)]

## Synthesis Results - Best model ##

 2.47095E+00                             [chi2/Nl_eff]
     1.97384                             [adev (%)]

   101.23974                             [sum-of-x (%)]
 2.67008E-14                             [Flux_tot (units of input spectrum!)]
 1.64947E-09                             [Mini_tot (???)]
 8.40235E-10                             [Mcor_tot (???)]

   7.68                                  [v0_min  (km/s)]
  63.29                                  [vd_min  (km/s)]
 1.1081                                  [AV_min  (mag)]
 0.0000                                  [YAV_min (mag)]

# j     x_j(%)      Mini_j(%)     Mcor_j(%)     age_j(yr)     Z_j      (L/M)_j    YAV?  Mstars   component_j        a/Fe...       SSP_chi2r SSP_adev(%)   SSP_AV   SSP_x(%)
  1      3.3712     4.8387E-03    9.4989E-03    1.000000E+06  0.00400  1.114E-02    0   1.0000   age020_m42            0.0000     2.7112E+03    33.0648   4.0000    92.4303
  2      8.4578     3.3203E-03    6.5174E-03    3.160000E+06  0.00400  4.073E-02    0   0.9999   age045_m42            0.0000     6.7707E+02    10.5713   4.0000   101.5072
  3      0.0000     0.0000E+00    0.0000E+00    5.010000E+06  0.00400  2.534E-02    0   0.9488   age055_m42            0.0000     1.3249E+03    19.6571   4.0000    98.7765
  4      8.9007     1.1197E-02    1.9480E-02    1.000000E+07  0.00400  1.271E-02    0   0.8862   age070_m42            0.0000     5.5467E+02    11.4210   4.0000    95.9639
  5      0.0000     0.0000E+00    0.0000E+00    2.512000E+07  0.00400  5.070E-03    0   0.8174   age090_m42            0.0000     4.7369E+02    12.5388   4.0000    95.7477
  6      0.0000     0.0000E+00    0.0000E+00    4.000000E+07  0.00400  3.505E-03    0   0.7851   age104_m42            0.0000     4.0007E+02    12.1165   3.7702    96.6096
  7      0.0000     0.0000E+00    0.0000E+00    1.015200E+08  0.00400  2.268E-03    0   0.7207   age116_m42            0.0000     9.2680E+02     8.4988   3.5565   105.6276
  8      0.0000     0.0000E+00    0.0000E+00    2.861200E+08  0.00400  1.079E-03    0   0.6613   age125_m42            0.0000     9.6796E+02     8.3085   3.0421   107.2003
  9      0.0000     0.0000E+00    0.0000E+00    6.405400E+08  0.00400  5.077E-04    0   0.6197   age132_m42            0.0000     9.8727E+02     8.6861   2.6954   111.1937
 10      0.9766     4.4174E-02    5.2239E-02    9.047900E+08  0.00400  3.535E-04    0   0.6024   age135_m42            0.0000     7.2953E+02     7.6443   2.4428   110.6575
 11      0.0000     0.0000E+00    0.0000E+00    1.434000E+09  0.00400  1.910E-04    0   0.5716   age139_m42            0.0000     3.9100E+02     6.1953   1.8344   109.4538
 12      0.0000     0.0000E+00    0.0000E+00    2.500000E+09  0.00400  9.818E-05    0   0.5463   age150_m42            0.0000     1.4823E+02     4.5922   1.5484   104.7935
 13      0.0000     0.0000E+00    0.0000E+00    5.000000E+09  0.00400  4.718E-05    0   0.5228   age161_m42            0.0000     6.4054E+01     3.5899   1.3858   101.3739
 14      3.2106     2.3281E+00    2.2760E+00    1.100000E+10  0.00400  2.205E-05    0   0.4980   age185_m42            0.0000     3.2405E+01     4.4623   1.0583    99.2446
 15      8.6724     7.3641E+00    7.1227E+00    1.300000E+10  0.00400  1.883E-05    0   0.4927   age193_m42            0.0000     3.1106E+01     4.5734   1.0377    99.0713
 16      1.0274     8.2592E-04    1.6214E-03    1.000000E+06  0.02000  1.989E-02    0   1.0000   age020_m62            0.0000     2.6474E+03    32.1675   4.0000    93.0711
 17      0.0000     0.0000E+00    0.0000E+00    3.160000E+06  0.02000  3.772E-02    0   0.9858   age045_m62            0.0000     2.2845E+03    29.0833   4.0000    95.2836
 18      0.0000     0.0000E+00    0.0000E+00    5.010000E+06  0.02000  3.227E-02    0   0.9342   age055_m62            0.0000     1.0471E+03    15.9813   4.0000   100.7059
 19      0.0000     0.0000E+00    0.0000E+00    1.000000E+07  0.02000  1.011E-02    0   0.8751   age070_m62            0.0000     7.9846E+02    13.7871   4.0000    93.7595
 20      0.0000     0.0000E+00    0.0000E+00    2.512000E+07  0.02000  4.206E-03    0   0.8099   age090_m62            0.0000     6.2534E+02    13.2206   4.0000    93.2819
 21      0.0000     0.0000E+00    0.0000E+00    4.000000E+07  0.02000  3.373E-03    0   0.7799   age104_m62            0.0000     5.1575E+02    12.1908   3.9785    97.9657
 22      0.0000     0.0000E+00    0.0000E+00    1.015200E+08  0.02000  1.878E-03    0   0.7221   age116_m62            0.0000     8.9079E+02     8.7616   3.6423   105.7420
 23      0.0000     0.0000E+00    0.0000E+00    2.861200E+08  0.02000  8.869E-04    0   0.6700   age125_m62            0.0000     1.3582E+03     9.4426   3.0481   111.7552
 24      0.0000     0.0000E+00    0.0000E+00    6.405400E+08  0.02000  3.657E-04    0   0.6322   age132_m62            0.0000     9.3810E+02     9.3316   2.2697   115.2628
 25      0.0000     0.0000E+00    0.0000E+00    9.047900E+08  0.02000  2.312E-04    0   0.6152   age135_m62            0.0000     5.7745E+02     8.2974   1.8632   114.6923
 26      0.0000     0.0000E+00    0.0000E+00    1.434000E+09  0.02000  1.168E-04    0   0.5865   age139_m62            0.0000     2.0085E+02     5.7345   1.4493   108.8347
 27      0.0000     0.0000E+00    0.0000E+00    2.500000E+09  0.02000  5.505E-05    0   0.5610   age150_m62            0.0000     7.1096E+01     5.5007   1.0335   106.0077
 28      5.9207     3.6467E+00    3.8321E+00    5.000000E+09  0.02000  2.596E-05    0   0.5353   age161_m62            0.0000     6.1803E+01     7.6188   0.6143   106.0183
 29     32.5884     4.4574E+01    4.4653E+01    1.100000E+10  0.02000  1.169E-05    0   0.5103   age185_m62            0.0000     1.1601E+02    10.7594   0.1473   107.6946
 30     21.0442     3.4721E+01    3.4401E+01    1.300000E+10  0.02000  9.691E-06    0   0.5047   age193_m62            0.0000     1.3036E+02    11.3507   0.0844   107.9507
 31      0.0000     0.0000E+00    0.0000E+00    1.000000E+06  0.05000  2.651E-02    0   0.9998   age020_m72            0.0000     2.5812E+03    31.7288   4.0000    94.1796
 32      0.0000     0.0000E+00    0.0000E+00    3.160000E+06  0.05000  4.817E-02    0   0.9577   age045_m72            0.0000     1.8218E+03    24.7788   4.0000    98.7636
 33      0.0000     0.0000E+00    0.0000E+00    5.010000E+06  0.05000  3.101E-02    0   0.9147   age055_m72            0.0000     1.2362E+03    16.7593   4.0000    99.5827
 34      0.0000     0.0000E+00    0.0000E+00    1.000000E+07  0.05000  8.954E-03    0   0.8524   age070_m72            0.0000     1.5588E+03    21.8722   4.0000    99.1793
 35      0.0000     0.0000E+00    0.0000E+00    2.512000E+07  0.05000  4.207E-03    0   0.7902   age090_m72            0.0000     8.0770E+02    11.7445   4.0000   101.3801
 36      0.0000     0.0000E+00    0.0000E+00    4.000000E+07  0.05000  3.198E-03    0   0.7618   age104_m72            0.0000     7.0157E+02     8.5323   4.0000   102.2076
 37      0.0000     0.0000E+00    0.0000E+00    1.015200E+08  0.05000  1.716E-03    0   0.7092   age116_m72            0.0000     1.0051E+03     8.7957   3.7118   105.9065
 38      0.0000     0.0000E+00    0.0000E+00    2.861200E+08  0.05000  7.047E-04    0   0.6618   age125_m72            0.0000     1.2716E+03     9.6274   2.7708   112.6797
 39      0.0000     0.0000E+00    0.0000E+00    6.405400E+08  0.05000  2.633E-04    0   0.6253   age132_m72            0.0000     7.0008E+02     9.5307   1.8147   115.2273
 40      0.0000     0.0000E+00    0.0000E+00    9.047900E+08  0.05000  1.484E-04    0   0.6088   age135_m72            0.0000     2.7855E+02     7.9378   1.3073   109.9817
 41      0.0000     0.0000E+00    0.0000E+00    1.434000E+09  0.05000  7.827E-05    0   0.5847   age139_m72            0.0000     1.0525E+02     7.6019   0.8650   106.6417
 42      0.0000     0.0000E+00    0.0000E+00    2.500000E+09  0.05000  3.759E-05    0   0.5583   age150_m72            0.0000     7.7048E+01     8.3833   0.5092   105.8239
 43      7.0697     7.3023E+00    7.6263E+00    5.000000E+09  0.05000  1.548E-05    0   0.5320   age161_m72            0.0000     1.2292E+02    11.3860   0.0064   105.4117
 44      0.0000     0.0000E+00    0.0000E+00    1.100000E+10  0.05000  6.532E-06    0   0.5070   age185_m72            0.0000     2.2322E+02    15.8471  -0.5638   106.3405
 45      0.0000     0.0000E+00    0.0000E+00    1.300000E+10  0.05000  5.316E-06    0   0.5018   age193_m72            0.0000     2.7284E+02    17.5651  -0.7620   107.0421


## Synthesis Results - Average & Chains ##

# j      x_j: min, <> & last-chain-values for 1 ...  7 chains
  1      3.3712      3.1823      3.2674      3.3090      3.1891      3.2804      3.2137      3.1390      3.1976
  2      8.4578      7.8408      7.9901      7.9227      7.8492      7.8167      7.7941      7.8860      8.2314
  3      0.0000      0.1261      0.2054      0.1649      0.0000      0.0195      0.0000      0.3177      0.2307
  4      8.9007      9.2954      9.4851      9.1561      9.1488      9.3878      9.3166      9.2899      9.1633
  5      0.0000      0.0225      0.0000      0.0291      0.0046      0.0000      0.0000      0.0000      0.0000
  6      0.0000      0.0112      0.0000      0.0000      0.0000      0.0000      0.0000      0.0206      0.0000
  7      0.0000      0.0081      0.0000      0.0000      0.0142      0.0349      0.0000      0.0000      0.0000
  8      0.0000      0.0162      0.0000      0.0000      0.0000      0.0000      0.0000      0.1262      0.0000
  9      0.0000      0.0788      0.1096      0.0000      0.0003      0.2680      0.0000      0.0661      0.0000
 10      0.9766      0.2972      0.4914      0.4852      0.5010      0.3217      0.6634      0.2777      0.4451
 11      0.0000      0.0853      0.0000      0.1265      0.2481      0.0000      0.0929      0.0919      0.2351
 12      0.0000      0.1586      0.2619      0.0000      0.2532      0.0000      0.1329      0.0000      0.4081
 13      0.0000      0.2838      0.0000      0.0000      0.6485      0.3652      0.0000      0.2033      0.0000
 14      3.2106      8.2904      8.4242      8.0005      7.6748      8.2299      8.1656      8.1153      7.9785
 15      8.6724      1.9102      2.0727      3.3432      2.1348      2.1999      2.7809      2.8711      2.4107
 16      1.0274      0.4097      0.4028      0.4065      0.4461      0.5943      0.3136      0.3294      0.6810
 17      0.0000      0.4517      0.4515      0.4217      0.4475      0.5022      0.4123      0.3778      0.4154
 18      0.0000      0.0929      0.0962      0.0000      0.1184      0.0342      0.0988      0.0871      0.0317
 19      0.0000      0.0641      0.0000      0.1186      0.0000      0.0117      0.1740      0.1662      0.0000
 20      0.0000      0.0217      0.0000      0.0000      0.0000      0.0000      0.0068      0.0000      0.0000
 21      0.0000      0.0135      0.0000      0.0000      0.0000      0.0000      0.0000      0.0000      0.0000
 22      0.0000      0.0108      0.0000      0.0000      0.0000      0.0000      0.0000      0.0000      0.0000
 23      0.0000      0.0130      0.0000      0.0000      0.0000      0.0000      0.0000      0.0034      0.0000
 24      0.0000      0.0195      0.0000      0.0000      0.0000      0.0000      0.0000      0.1006      0.0000
 25      0.0000      0.0365      0.0000      0.0329      0.0000      0.0000      0.0194      0.0000      0.0000
 26      0.0000      0.0420      0.0000      0.1658      0.1124      0.0000      0.0000      0.0413      0.0000
 27      0.0000      0.1732      0.0000      0.2903      0.0000      0.3594      0.2145      0.0000      0.2794
 28      5.9207      4.9184      4.7080      4.4621      5.4818      4.6502      4.4590      4.7558      4.8896
 29     32.5884     33.3800     33.3065     32.9899     33.6968     33.6396     33.3166     33.5326     33.6357
 30     21.0442     20.2404     20.1983     20.2423     20.0603     20.3369     20.1591     20.1120     20.1648
 31      0.0000      0.0619      0.0871      0.1526      0.1325      0.0000      0.0000      0.0998      0.0000
 32      0.0000      0.1575      0.0000      0.0104      0.3934      0.0348      0.4155      0.0985      0.0000
 33      0.0000      0.0686      0.0000      0.0000      0.0595      0.1485      0.1361      0.0000      0.0000
 34      0.0000      0.0411      0.0000      0.0000      0.0000      0.0000      0.0000      0.1091      0.0000
 35      0.0000      0.0190      0.0000      0.0000      0.0000      0.0000      0.0000      0.0000      0.0000
 36      0.0000      0.0165      0.0000      0.0000      0.0000      0.0000      0.0000      0.0000      0.0000
 37      0.0000      0.0092      0.0000      0.0000      0.0000      0.0000      0.0000      0.0000      0.0000
 38      0.0000      0.0133      0.0000      0.0000      0.0000      0.0000      0.0000      0.0000      0.0117
 39      0.0000      0.0498      0.0000      0.0000      0.0000      0.0000      0.0000      0.0000      0.0000
 40      0.0000      0.0602      0.0131      0.1384      0.0000      0.1181      0.0000      0.0000      0.1335
 41      0.0000      0.0628      0.0000      0.0000      0.0000      0.0000      0.0000      0.0954      0.0097
 42      0.0000      0.3015      1.1931      0.5277      0.0809      0.4028      0.3223      0.2815      0.0000
 43      7.0697      8.9211      8.5365      8.7932      8.6448      8.5435      9.1036      8.6907      8.7536
 44      0.0000      0.0437      0.0000      0.0000      0.0000      0.0000      0.0000      0.0000      0.0000
 45      0.0000      0.0258      0.0000      0.0000      0.0000      0.0000      0.0000      0.0000      0.0000

# j      m_j: min, <> & last-chain-values for 1 ...  7 chains
  1  9.4989E-03  8.9949E-03  9.2753E-03  9.3663E-03  9.0361E-03  9.2696E-03  9.0815E-03  8.8721E-03  9.0497E-03
  2  6.5174E-03  6.0610E-03  6.2031E-03  6.1330E-03  6.0822E-03  6.0406E-03  6.0235E-03  6.0957E-03  6.3711E-03
  3  0.0000E+00  1.4866E-04  2.4320E-04  1.9475E-04  0.0000E+00  2.2934E-05  0.0000E+00  3.7456E-04  2.7234E-04
  4  1.9480E-02  2.0408E-02  2.0914E-02  2.0130E-02  2.0135E-02  2.0604E-02  2.0450E-02  2.0395E-02  2.0144E-02
  5  0.0000E+00  1.1423E-04  0.0000E+00  1.4793E-04  2.3545E-05  0.0000E+00  0.0000E+00  0.0000E+00  0.0000E+00
  6  0.0000E+00  7.8703E-05  0.0000E+00  0.0000E+00  0.0000E+00  0.0000E+00  0.0000E+00  1.4500E-04  0.0000E+00
  7  0.0000E+00  8.0627E-05  0.0000E+00  0.0000E+00  1.4222E-04  3.4862E-04  0.0000E+00  0.0000E+00  0.0000E+00
  8  0.0000E+00  3.1177E-04  0.0000E+00  0.0000E+00  0.0000E+00  0.0000E+00  0.0000E+00  2.4350E-03  0.0000E+00
  9  0.0000E+00  3.0278E-03  4.2314E-03  0.0000E+00  1.0716E-05  1.0299E-02  0.0000E+00  2.5401E-03  0.0000E+00
 10  5.2239E-02  1.5949E-02  2.6480E-02  2.6074E-02  2.6948E-02  1.7259E-02  3.5588E-02  1.4900E-02  2.3915E-02
 11  0.0000E+00  8.0345E-03  0.0000E+00  1.1939E-02  2.3435E-02  0.0000E+00  8.7509E-03  8.6596E-03  2.2181E-02
 12  0.0000E+00  2.7787E-02  4.6093E-02  0.0000E+00  4.4462E-02  0.0000E+00  2.3280E-02  0.0000E+00  7.1585E-02
 13  0.0000E+00  9.9036E-02  0.0000E+00  0.0000E+00  2.2684E-01  1.2738E-01  0.0000E+00  7.0928E-02  0.0000E+00
 14  2.2760E+00  5.8958E+00  6.0168E+00  5.6976E+00  5.4712E+00  5.8509E+00  5.8056E+00  5.7709E+00  5.6812E+00
 15  7.1227E+00  1.5738E+00  1.7150E+00  2.7583E+00  1.7632E+00  1.8119E+00  2.2906E+00  2.3654E+00  1.9887E+00
 16  1.6214E-03  6.4866E-04  6.4050E-04  6.4447E-04  7.0796E-04  9.4063E-04  4.9632E-04  5.2138E-04  1.0795E-03
 17  0.0000E+00  3.7170E-04  3.7318E-04  3.4748E-04  3.6915E-04  4.1312E-04  3.3920E-04  3.1089E-04  3.4231E-04
 18  0.0000E+00  8.4709E-05  8.8066E-05  0.0000E+00  1.0819E-04  3.1164E-05  9.0006E-05  7.9389E-05  2.8953E-05
 19  0.0000E+00  1.7467E-04  0.0000E+00  3.2372E-04  0.0000E+00  3.1745E-05  4.7410E-04  4.5302E-04  0.0000E+00
 20  0.0000E+00  1.3158E-04  0.0000E+00  0.0000E+00  0.0000E+00  0.0000E+00  4.1225E-05  0.0000E+00  0.0000E+00
 21  0.0000E+00  9.8019E-05  0.0000E+00  0.0000E+00  0.0000E+00  0.0000E+00  0.0000E+00  0.0000E+00  0.0000E+00
 22  0.0000E+00  1.3062E-04  0.0000E+00  0.0000E+00  0.0000E+00  0.0000E+00  0.0000E+00  0.0000E+00  0.0000E+00
 23  0.0000E+00  3.0881E-04  0.0000E+00  0.0000E+00  0.0000E+00  0.0000E+00  0.0000E+00  8.0979E-05  0.0000E+00
 24  0.0000E+00  1.0588E-03  0.0000E+00  0.0000E+00  0.0000E+00  0.0000E+00  0.0000E+00  5.4733E-03  0.0000E+00
 25  0.0000E+00  3.0592E-03  0.0000E+00  2.7577E-03  0.0000E+00  0.0000E+00  1.6268E-03  0.0000E+00  0.0000E+00
 26  0.0000E+00  6.6335E-03  0.0000E+00  2.6259E-02  1.7808E-02  0.0000E+00  0.0000E+00  6.5279E-03  0.0000E+00
 27  0.0000E+00  5.5562E-02  0.0000E+00  9.3276E-02  0.0000E+00  1.1528E-01  6.8821E-02  0.0000E+00  8.9766E-02
 28  3.8321E+00  3.1934E+00  3.0700E+00  2.9013E+00  3.5679E+00  3.0184E+00  2.8945E+00  3.0877E+00  3.1788E+00
 29  4.4653E+01  4.5882E+01  4.5978E+01  4.5410E+01  4.6430E+01  4.6225E+01  4.5784E+01  4.6089E+01  4.6292E+01
 30  3.4401E+01  3.3191E+01  3.3265E+01  3.3241E+01  3.2976E+01  3.3340E+01  3.3050E+01  3.2979E+01  3.3110E+01
 31  0.0000E+00  7.3450E-05  1.0384E-04  1.8149E-04  1.5777E-04  0.0000E+00  0.0000E+00  1.1851E-04  0.0000E+00
 32  0.0000E+00  9.8614E-05  0.0000E+00  6.5208E-06  2.4690E-04  2.1789E-05  2.6006E-04  6.1663E-05  0.0000E+00
 33  0.0000E+00  6.3713E-05  0.0000E+00  0.0000E+00  5.5410E-05  1.3784E-04  1.2636E-04  0.0000E+00  0.0000E+00
 34  0.0000E+00  1.2322E-04  0.0000E+00  0.0000E+00  0.0000E+00  0.0000E+00  0.0000E+00  3.2710E-04  0.0000E+00
 35  0.0000E+00  1.1223E-04  0.0000E+00  0.0000E+00  0.0000E+00  0.0000E+00  0.0000E+00  0.0000E+00  0.0000E+00
 36  0.0000E+00  1.2360E-04  0.0000E+00  0.0000E+00  0.0000E+00  0.0000E+00  0.0000E+00  0.0000E+00  0.0000E+00
 37  0.0000E+00  1.1951E-04  0.0000E+00  0.0000E+00  0.0000E+00  0.0000E+00  0.0000E+00  0.0000E+00  0.0000E+00
 38  0.0000E+00  3.9471E-04  0.0000E+00  0.0000E+00  0.0000E+00  0.0000E+00  0.0000E+00  0.0000E+00  3.4636E-04
 39  0.0000E+00  3.7235E-03  0.0000E+00  0.0000E+00  0.0000E+00  0.0000E+00  0.0000E+00  0.0000E+00  0.0000E+00
 40  0.0000E+00  7.7700E-03  1.6946E-03  1.7903E-02  0.0000E+00  1.5253E-02  0.0000E+00  0.0000E+00  1.7264E-02
 41  0.0000E+00  1.4779E-02  0.0000E+00  0.0000E+00  0.0000E+00  0.0000E+00  0.0000E+00  2.2436E-02  2.2831E-03
 42  0.0000E+00  1.4100E-01  5.6039E-01  2.4713E-01  3.7947E-02  1.8831E-01  1.5068E-01  1.3163E-01  0.0000E+00
 43  7.6263E+00  9.6538E+00  9.2776E+00  9.5290E+00  9.3776E+00  9.2425E+00  9.8490E+00  9.4041E+00  9.4847E+00
 44  0.0000E+00  1.0668E-01  0.0000E+00  0.0000E+00  0.0000E+00  0.0000E+00  0.0000E+00  0.0000E+00  0.0000E+00
 45  0.0000E+00  7.6711E-02  0.0000E+00  0.0000E+00  0.0000E+00  0.0000E+00  0.0000E+00  0.0000E+00  0.0000E+00

# AV, chi2 & Mass for <> & i_chain = 1 ...  7 solutions
AV       1.1081      1.0900      1.0961      1.0915      1.0947      1.0944      1.0923      1.0945      1.0968
chi2 2.4709E+00  2.5163E+00  2.5013E+00  2.5043E+00  2.5049E+00  2.5040E+00  2.5048E+00  2.5026E+00  2.4993E+00
Mass 8.4024E-10  8.1748E-10  8.2060E-10  8.1798E-10  8.2059E-10  8.2254E-10  8.2017E-10  8.2249E-10  8.2391E-10
   7.68                                  [v0_min (km/s) before EX0s...]
  63.29                                  [vd_min (km/s) before EX0s...]


## Synthetic spectrum (Best Model) ##l_obs f_obs f_syn wei
 3070    [Nl_obs]
 3359.00    0.00000   0.43879   -2.000
 3360.00    0.00000   0.41245   -2.000
 3361.00    0.19294   0.41289   -1.000
 3362.00    0.28834   0.43844   -1.000
 3363.00    0.27569   0.47422   -1.000
 3364.00    0.29677   0.50042   -1.000
 3365.00    0.31174   0.50385   -1.000
 3366.00    0.30632   0.48544   -1.000
 3367.00    0.30890   0.45919   -1.000
 3368.00    0.30454   0.43632   -1.000
 3369.00    0.30817   0.42310   -1.000
 3370.00    0.27804   0.41823   -1.000
 3371.00    0.26039   0.41786   -1.000
 3372.00    0.24927   0.42420   -1.000
 3373.00    0.27245   0.44206   -1.000
 3374.00    0.31184   0.47023   -1.000
 3375.00    0.31428   0.50098   -1.000
 3376.00    0.33075   0.52054   -1.000
 3377.00    0.33804   0.51737   -1.000
 3378.00    0.31181   0.49501   -1.000
 3379.00    0.30866   0.47014   -1.000
 3380.00    0.31278   0.45800   -1.000
 3381.00    0.31025   0.46451   -1.000
 3382.00    0.32576   0.48150   -1.000
 3383.00    0.33404   0.49870   -1.000
 3384.00    0.34323   0.51158   -1.000
 3385.00    0.34268   0.52152   -1.000
 3386.00    0.35963   0.52687   -1.000
 3387.00    0.36594   0.52694   -1.000
 3388.00    0.34337   0.52450   -1.000
 3389.00    0.35527   0.52118   -1.000
 3390.00    0.37520   0.51378   -1.000
 3391.00    0.36327   0.49926   -1.000
 3392.00    0.35157   0.48437   -1.000
 3393.00    0.35561   0.48047   -1.000
 3394.00    0.36963   0.49192   -1.000
 3395.00    0.37746   0.51354   -1.000
 3396.00    0.39294   0.53436   -1.000
 3397.00    0.41787   0.55141   -1.000
 3398.00    0.43186   0.56392   -1.000
 3399.00    0.44602   0.56865   -1.000
 3400.00    0.45125   0.56567   -1.000
 3401.00    0.46269   0.55628   -1.000
 3402.00    0.46741   0.54197   -1.000
 3403.00    0.45382   0.52823   -1.000
 3404.00    0.45693   0.51807   -1.000
 3405.00    0.44401   0.50985   -1.000
 3406.00    0.41599   0.50166   -1.000
 3407.00    0.41331   0.49527   -1.000
 3408.00    0.42619   0.49490   -1.000
 3409.00    0.42162   0.50120   -1.000
 3410.00    0.40120   0.50920   -1.000
 3411.00    0.40545   0.50812   -1.000
 3412.00    0.41271   0.49448   -1.000
 3413.00    0.40521   0.47634   -1.000
 3414.00    0.42063   0.46538   70.458
 3415.00    0.41589   0.47049   -1.000
 3416.00    0.40321   0.48922   -1.000
 3417.00    0.41897   0.51442   -1.000
 3418.00    0.44814   0.53817   -1.000
 3419.00    0.47196   0.55648   -1.000
 3420.00    0.47119   0.56364   -1.000
 3421.00    0.46338   0.55619   -1.000
 3422.00    0.45989   0.53877   -1.000
 3423.00    0.46824   0.52497   -1.000
 3424.00    0.47458   0.52059   62.165
 3425.00    0.47890   0.52256   63.721
 3426.00    0.47277   0.52784   -1.000
 3427.00    0.46946   0.53753   -1.000
 3428.00    0.46077   0.55459   -1.000
 3429.00    0.47955   0.57259   -1.000
 3430.00    0.50064   0.57528   -1.000
 3431.00    0.49046   0.55992   -1.000
 3432.00    0.49036   0.53765   -1.000
 3433.00    0.48847   0.52477   -1.000
 3434.00    0.50022   0.52736   87.434
 3435.00    0.51155   0.53445   60.335
 3436.00    0.49155   0.53405   -1.000
 3437.00    0.47201   0.52102   -1.000
 3438.00    0.45234   0.49572   -1.000
 3439.00    0.44299   0.46189   62.020
 3440.00    0.41868   0.42899   65.480
 3441.00    0.39204   0.40671   70.258
 3442.00    0.40490   0.40286   74.054
 3443.00    0.41609   0.41441   75.130
 3444.00    0.39288   0.43180   74.948
 3445.00    0.40122   0.44917   -1.000
 3446.00    0.42691   0.46783   69.198
 3447.00    0.44541   0.48937   65.376
 3448.00    0.47845   0.51391   62.658
 3449.00    0.50937   0.53431   -1.000
 3450.00    0.50891   0.53933   -1.000
 3451.00    0.50755   0.52832   -1.000
 3452.00    0.49105   0.51440   -1.000
 3453.00    0.48188   0.50987   -1.000
 3454.00    0.48266   0.51707   -1.000
 3455.00    0.51227   0.52478   -1.000
 3456.00    0.51832   0.52115  506.816
 3457.00    0.49963   0.50478  506.816
 3458.00    0.48340   0.48230  506.816
 3459.00    0.48393   0.46452   -1.000
 3460.00    0.46395   0.45563   88.151
 3461.00    0.45978   0.45908   60.888
 3462.00    0.49159   0.47651   60.907
 3463.00    0.50627   0.49883  144.566
 3464.00    0.50359   0.50911  506.816
 3465.00    0.52615   0.50781   -1.000
 3466.00    0.53272   0.50645   -1.000
 3467.00    0.51636   0.51296  506.816
 3468.00    0.53898   0.52720   -1.000
 3469.00    0.54771   0.54058   -1.000
 3470.00    0.53708   0.54533   -1.000
 3471.00    0.53585   0.53649  506.816
 3472.00    0.52671   0.51553   -1.000
 3473.00    0.49582   0.48771   -1.000
 3474.00    0.47479   0.46103   -1.000
 3475.00    0.46358   0.44384   -1.000
 3476.00    0.44871   0.44484   89.583
 3477.00    0.45267   0.46217   62.322
 3478.00    0.46849   0.48567   62.248
 3479.00    0.48030   0.50474   -1.000
 3480.00    0.48887   0.51416   -1.000
 3481.00    0.52453   0.51295   -1.000
 3482.00    0.54101   0.50345   -1.000
 3483.00    0.52866   0.49334   -1.000
 3484.00    0.54489   0.49321   -1.000
 3485.00    0.55406   0.50747   -1.000
 3486.00    0.53121   0.52621   -1.000
 3487.00    0.52456   0.53432   -1.000
 3488.00    0.53284   0.52231   -1.000
 3489.00    0.51536   0.49639   -1.000
 3490.00    0.49375   0.47292   -1.000
 3491.00    0.50809   0.46509   -1.000
 3492.00    0.49620   0.47313   -1.000
 3493.00    0.47080   0.48631   -1.000
 3494.00    0.48033   0.49374   -1.000
 3495.00    0.52149   0.49018   -1.000
 3496.00    0.52678   0.48341   -1.000
 3497.00    0.49941   0.48791   -1.000
 3498.00    0.50253   0.50973  506.816
 3499.00    0.53026   0.53721  506.816
 3500.00    0.54963   0.55403  506.816
 3501.00    0.58228   0.56265   -1.000
 3502.00    0.59722   0.57082   -1.000
 3503.00    0.58502   0.57575   -1.000
 3504.00    0.57602   0.57158  468.692
 3505.00    0.56825   0.55996   -1.000
 3506.00    0.54717   0.54956  484.813
 3507.00    0.55728   0.54515   -1.000
 3508.00    0.56765   0.54113   -1.000
 3509.00    0.56039   0.53113   -1.000
 3510.00    0.55217   0.51760   -1.000
 3511.00    0.54947   0.50351   -1.000
 3512.00    0.51228   0.48970   -1.000
 3513.00    0.49665   0.47817   -1.000
 3514.00    0.49458   0.47692   -1.000
 3515.00    0.48819   0.49498  506.816
 3516.00    0.52443   0.52808  506.816
 3517.00    0.56277   0.55854  506.816
 3518.00    0.58260   0.57118   -1.000
 3519.00    0.57527   0.56112   -1.000
 3520.00    0.54694   0.53605   -1.000
 3521.00    0.53421   0.50674   -1.000
 3522.00    0.52423   0.48179   -1.000
 3523.00    0.50260   0.46058   -1.000
 3524.00    0.47759   0.44365   -1.000
 3525.00    0.46500   0.43897   91.189
 3526.00    0.46888   0.45292   61.675
 3527.00    0.47612   0.48251   62.249
 3528.00    0.49909   0.51705  139.514
 3529.00    0.52103   0.54158   -1.000
 3530.00    0.51299   0.54907   -1.000
 3531.00    0.51204   0.54456   -1.000
 3532.00    0.52880   0.54183   -1.000
 3533.00    0.53943   0.54805   -1.000
 3534.00    0.53486   0.55973   -1.000
 3535.00    0.54093   0.56914   -1.000
 3536.00    0.56544   0.57257   -1.000
 3537.00    0.57982   0.57600  485.311
 3538.00    0.56869   0.58333   -1.000
 3539.00    0.58565   0.58790  482.035
 3540.00    0.57464   0.58396   -1.000
 3541.00    0.54504   0.57519   -1.000
 3542.00    0.53823   0.57280   -1.000
 3543.00    0.53742   0.58054   -1.000
 3544.00    0.54586   0.59005   -1.000
 3545.00    0.56570   0.59296   -1.000
 3546.00    0.56584   0.58792   -1.000
 3547.00    0.53682   0.58180   -1.000
 3548.00    0.54904   0.58015   -1.000
 3549.00    0.56094   0.58123   -1.000
 3550.00    0.55884   0.57970   -1.000
 3551.00    0.54252   0.57129   -1.000
 3552.00    0.52039   0.55686   -1.000
 3553.00    0.52898   0.54286   -1.000
 3554.00    0.51929   0.53747   -1.000
 3555.00    0.50388   0.54127   -1.000
 3556.00    0.51315   0.54618   -1.000
 3557.00    0.50735   0.54622   -1.000
 3558.00    0.50494   0.54200   -1.000
 3559.00    0.50003   0.54102   -1.000
 3560.00    0.49252   0.54902   -1.000
 3561.00    0.51778   0.56202   -1.000
 3562.00    0.53226   0.56812   -1.000
 3563.00    0.52667   0.55322   -1.000
 3564.00    0.52270   0.51731   -1.000
 3565.00    0.48561   0.47881   -1.000
 3566.00    0.44700   0.45958   93.862
 3567.00    0.43495   0.45768   62.443
 3568.00    0.44051   0.45505   62.988
 3569.00    0.43600   0.44454   62.478
 3570.00    0.41441   0.43487   63.637
 3571.00    0.41514   0.43840   65.216
 3572.00    0.43831   0.45573   64.402
 3573.00    0.46188   0.47453   61.829
 3574.00    0.47159   0.48782  132.201
 3575.00    0.49481   0.49467  506.816
 3576.00    0.51095   0.49362   -1.000
 3577.00    0.50020   0.48215   -1.000
 3578.00    0.46354   0.45978   -1.000
 3579.00    0.42589   0.42981  506.816
 3580.00    0.40972   0.40327   97.911
 3581.00    0.39934   0.38986   65.933
 3582.00    0.38851   0.39104   70.227
 3583.00    0.38833   0.39716   72.013
 3584.00    0.39147   0.39785   72.361
 3585.00    0.38749   0.39295   73.581
 3586.00    0.37400   0.39126   75.794
 3587.00    0.38279   0.40038   77.437
 3588.00    0.39550   0.42111   75.427
 3589.00    0.41919   0.45150   71.461
 3590.00    0.45113   0.48407   67.870
 3591.00    0.47896   0.50899   62.838
 3592.00    0.50595   0.51976  129.285
 3593.00    0.50937   0.52294   -1.000
 3594.00    0.51179   0.53093   -1.000
 3595.00    0.52923   0.54862   -1.000
 3596.00    0.54228   0.57017   -1.000
 3597.00    0.55444   0.58685   -1.000
 3598.00    0.57088   0.59929   -1.000
 3599.00    0.58531   0.60829   -1.000
 3600.00    0.59905   0.60612   -1.000
 3601.00    0.60064   0.58706   -1.000
 3602.00    0.57193   0.55697   -1.000
 3603.00    0.53323   0.52704   -1.000
 3604.00    0.51125   0.50753  506.816
 3605.00    0.50973   0.49972   -1.000
 3606.00    0.51278   0.49496   -1.000
 3607.00    0.50069   0.48443   -1.000
 3608.00    0.47354   0.46992   -1.000
 3609.00    0.46413   0.46388  506.816
 3610.00    0.47820   0.47488  506.816
 3611.00    0.49788   0.49750  506.816
 3612.00    0.51903   0.51779  506.816
 3613.00    0.52690   0.53333  506.816
 3614.00    0.54734   0.54788  506.816
 3615.00    0.55770   0.55627  506.816
 3616.00    0.55099   0.54570  499.035
 3617.00    0.54479   0.51189   -1.000
 3618.00    0.51289   0.47276   -1.000
 3619.00    0.48491   0.45936   -1.000
 3620.00    0.48589   0.47897   95.631
 3621.00    0.51916   0.51719  125.765
 3622.00    0.55965   0.55395   -1.000
 3623.00    0.57617   0.58021  496.442
 3624.00    0.58716   0.60267   -1.000
 3625.00    0.61120   0.63026   -1.000
 3626.00    0.64276   0.65871   -1.000
 3627.00    0.65425   0.67335   -1.000
 3628.00    0.64311   0.66020   -1.000
 3629.00    0.60863   0.61606   -1.000
 3630.00    0.56806   0.55600   -1.000
 3631.00    0.52329   0.51066   -1.000
 3632.00    0.49938   0.49600  506.816
 3633.00    0.50529   0.50837  506.816
 3634.00    0.52321   0.53163   -1.000
 3635.00    0.54678   0.55257  506.816
 3636.00    0.55738   0.56888   -1.000
 3637.00    0.57635   0.58823   -1.000
 3638.00    0.60126   0.61297   -1.000
 3639.00    0.62341   0.63464   -1.000
 3640.00    0.65374   0.64390  442.231
 3641.00    0.64770   0.63584   -1.000
 3642.00    0.61984   0.61458  442.127
 3643.00    0.58607   0.58977  455.585
 3644.00    0.56853   0.56697  476.449
 3645.00    0.55062   0.54685  495.546
 3646.00    0.52391   0.52776  506.444
 3647.00    0.52666   0.51180   -1.000
 3648.00    0.51672   0.50804   -1.000
 3649.00    0.51623   0.52182  506.816
 3650.00    0.55697   0.55150  506.816
 3651.00    0.59767   0.58829   -1.000
 3652.00    0.61902   0.62217  478.143
 3653.00    0.63342   0.64362   -1.000
 3654.00    0.66157   0.65471  442.285
 3655.00    0.67658   0.66366   -1.000
 3656.00    0.65772   0.67639   -1.000
 3657.00    0.66168   0.69239   -1.000
 3658.00    0.68947   0.70457   -1.000
 3659.00    0.69618   0.70950   -1.000
 3660.00    0.68626   0.70635   -1.000
 3661.00    0.68341   0.69488   -1.000
 3662.00    0.68202   0.67822  416.813
 3663.00    0.67097   0.66443  421.397
 3664.00    0.66449   0.65806  427.492
 3665.00    0.66906   0.65785   -1.000
 3666.00    0.65795   0.65697  430.777
 3667.00    0.63850   0.64867   -1.000
 3668.00    0.61676   0.63469   -1.000
 3669.00    0.60893   0.62568   -1.000
 3670.00    0.62730   0.63255   -1.000
 3671.00    0.65651   0.65182  452.168
 3672.00    0.67527   0.66984  440.840
 3673.00    0.66538   0.67820   -1.000
 3674.00    0.65359   0.67603   -1.000
 3675.00    0.65360   0.66408   -1.000
 3676.00    0.64637   0.64296  424.069
 3677.00    0.64060   0.61562   -1.000
 3678.00    0.60924   0.58851   -1.000
 3679.00    0.58703   0.57102   -1.000
 3680.00    0.58507   0.57077   -1.000
 3681.00    0.58360   0.58602  476.262
 3682.00    0.61084   0.60506  468.349
 3683.00    0.63021   0.61555   -1.000
 3684.00    0.61324   0.60875  447.179
 3685.00    0.58972   0.58449  451.651
 3686.00    0.56865   0.55511   -1.000
 3687.00    0.55396   0.54217   -1.000
 3688.00    0.58036   0.55676   -1.000
 3689.00    0.61808   0.59439   -1.000
 3690.00    0.64850   0.63793   -1.000
 3691.00    0.66975   0.66749  439.008
 3692.00    0.66448   0.67170   -1.000
 3693.00    0.65238   0.65864   -1.000
 3694.00    0.63755   0.64487   -1.000
 3695.00    0.63967   0.63868  432.027
 3696.00    0.65165   0.64294  433.430
 3697.00    0.65045   0.65896   -1.000
 3698.00    0.67392   0.68362   -1.000
 3699.00    0.70406   0.70551  415.371
 3700.00    0.71014   0.71335   -1.000
 3701.00    0.70653   0.69931  395.965
 3702.00    0.66843   0.66057  397.953
 3703.00    0.62763   0.60375   -1.000
 3704.00    0.59841   0.54833   -1.000
 3705.00    0.55741   0.51075   -1.000
 3706.00    0.54164   0.49875   -1.000
 3707.00    0.54310   0.50452   -1.000
 3708.00    0.54021   0.51813   -1.000
 3709.00    0.56248   0.53917   -1.000
 3710.00    0.60691   0.57033   -1.000
 3711.00    0.63015   0.60851   -1.000
 3712.00    0.64248   0.64876   -1.000
 3713.00    0.68184   0.68223  432.293
 3714.00    0.71170   0.69858   -1.000
 3715.00    0.71569   0.69460   -1.000
 3716.00    0.69903   0.67164   -1.000
 3717.00    0.65478   0.62924   -1.000
 3718.00    0.58337   0.57023   -1.000
 3719.00    0.52139   0.50481   -1.000
 3720.00    0.49118   0.45177   -1.000
 3721.00    0.47345   0.43371   -1.000
 3722.00    0.46894   0.45501  103.393
 3723.00    0.51332   0.50308  119.266
 3724.00    0.57004   0.55718   -1.000
 3725.00    0.61120   0.59338   -1.000
 3726.00    0.63161   0.60063   -1.000
 3727.00    0.62606   0.59356   -1.000
 3728.00    0.62233   0.59206   -1.000
 3729.00    0.61751   0.59459   -1.000
 3730.00    0.60946   0.58570   -1.000
 3731.00    0.59630   0.55293   -1.000
 3732.00    0.54511   0.49816   -1.000
 3733.00    0.47876   0.44019   -1.000
 3734.00    0.43345   0.39560   -1.000
 3735.00    0.40340   0.37766   63.871
 3736.00    0.40607   0.39182   68.758
 3737.00    0.44311   0.43368   67.953
 3738.00    0.50371   0.49167   62.817
 3739.00    0.55096   0.55142  115.045
 3740.00    0.57059   0.59205   -1.000
 3741.00    0.58104   0.60104   -1.000
 3742.00    0.57351   0.58054  448.869
 3743.00    0.55310   0.54434   -1.000
 3744.00    0.51786   0.50696   -1.000
 3745.00    0.49100   0.47863   -1.000
 3746.00    0.48104   0.45566   -1.000
 3747.00    0.45542   0.43125   -1.000
 3748.00    0.42898   0.40994  104.457
 3749.00    0.42682   0.40602   63.046
 3750.00    0.45624   0.43260   65.315
 3751.00    0.50925   0.48573   -1.000
 3752.00    0.56667   0.54638   -1.000
 3753.00    0.62138   0.60135   -1.000
 3754.00    0.66660   0.64156   -1.000
 3755.00    0.68777   0.65080   -1.000
 3756.00    0.65594   0.62273   -1.000
 3757.00    0.58026   0.57262   -1.000
 3758.00    0.53469   0.53011  452.093
 3759.00    0.53166   0.51764   -1.000
 3760.00    0.53887   0.52996   -1.000
 3761.00    0.55748   0.54737   -1.000
 3762.00    0.56625   0.55605   -1.000
 3763.00    0.55585   0.55666  469.465
 3764.00    0.55372   0.55438  463.049
 3765.00    0.56778   0.54911   -1.000
 3766.00    0.56745   0.54175   -1.000
 3767.00    0.56322   0.53831   -1.000
 3768.00    0.57395   0.54125   -1.000
 3769.00    0.59055   0.54771   -1.000
 3770.00    0.60783   0.55846   -1.000
 3771.00    0.62217   0.57784   -1.000
 3772.00    0.64193   0.60387   -1.000
 3773.00    0.66588   0.62786   -1.000
 3774.00    0.66362   0.64190   -1.000
 3775.00    0.65480   0.64858  417.454
 3776.00    0.65615   0.65501  416.653
 3777.00    0.65315   0.66488   -1.000
 3778.00    0.66080   0.67896   -1.000
 3779.00    0.67447   0.69492   -1.000
 3780.00    0.69329   0.70962   -1.000
 3781.00    0.71611   0.72032  389.562
 3782.00    0.73132   0.72594  383.984
 3783.00    0.72319   0.72394  381.598
 3784.00    0.69370   0.70756   -1.000
 3785.00    0.65374   0.67405   -1.000
 3786.00    0.61456   0.63241   -1.000
 3787.00    0.60097   0.59547   -1.000
 3788.00    0.58056   0.57286   -1.000
 3789.00    0.55290   0.56884   -1.000
 3790.00    0.55227   0.57770   -1.000
 3791.00    0.56530   0.58662   -1.000
 3792.00    0.57428   0.58393   -1.000
 3793.00    0.57045   0.56628  462.374
 3794.00    0.54996   0.54190   -1.000
 3795.00    0.52882   0.51754   -1.000
 3796.00    0.52153   0.49306   -1.000
 3797.00    0.51301   0.46907   -1.000
 3798.00    0.49354   0.45751   -1.000
 3799.00    0.50519   0.47396   -1.000
 3800.00    0.55791   0.51790   -1.000
 3801.00    0.59886   0.57106   -1.000
 3802.00    0.62438   0.61769   -1.000
 3803.00    0.64499   0.64760  444.401
 3804.00    0.64629   0.65706   -1.000
 3805.00    0.62695   0.64810   -1.000
 3806.00    0.59335   0.63191   -1.000
 3807.00    0.56828   0.62482   -1.000
 3808.00    0.57421   0.63534   -1.000
 3809.00    0.60266   0.65511   -1.000
 3810.00    0.62328   0.66678   -1.000
 3811.00    0.61701   0.65723   -1.000
 3812.00    0.60309   0.62547   -1.000
 3813.00    0.58213   0.58363  441.495
 3814.00    0.53398   0.54603   -1.000
 3815.00    0.49209   0.52568   -1.000
 3816.00    0.49314   0.52456   -1.000
 3817.00    0.50665   0.52928   -1.000
 3818.00    0.50093   0.52190   -1.000
 3819.00    0.47222   0.50016   -1.000
 3820.00    0.44080   0.48193   -1.000
 3821.00    0.44288   0.48182   -1.000
 3822.00    0.46255   0.49285   -1.000
 3823.00    0.46843   0.49281   -1.000
 3824.00    0.45848   0.47353   -1.000
 3825.00    0.42602   0.44994   -1.000
 3826.00    0.39490   0.43647   -1.000
 3827.00    0.39811   0.43633   63.714
 3828.00    0.40375   0.44434   64.080
 3829.00    0.41492   0.45189   63.254
 3830.00    0.42458   0.45059   62.216
 3831.00    0.41892   0.43675   62.114
 3832.00    0.40252   0.41430   63.957
 3833.00    0.38981   0.39309   68.019
 3834.00    0.39831   0.38222   71.812
 3835.00    0.40996   0.38328   72.091
 3836.00    0.41941   0.39081   69.837
 3837.00    0.41685   0.39700   67.662
 3838.00    0.40497   0.40110   67.684
 3839.00    0.39827   0.41069   69.270
 3840.00    0.41612   0.43407   69.448
 3841.00    0.44522   0.47270   66.731
 3842.00    0.48596   0.51698   -1.000
 3843.00    0.52786   0.55538   -1.000
 3844.00    0.53948   0.57954   -1.000
 3845.00    0.54520   0.59107   -1.000
 3846.00    0.53210   0.59640   -1.000
 3847.00    0.52446   0.59620   -1.000
 3848.00    0.53315   0.58775   -1.000
 3849.00    0.51357   0.57570   -1.000
 3850.00    0.50112   0.57089   -1.000
 3851.00    0.51660   0.57777   -1.000
 3852.00    0.53038   0.58683   -1.000
 3853.00    0.52514   0.58631   -1.000
 3854.00    0.50685   0.57382   -1.000
 3855.00    0.49781   0.55589   -1.000
 3856.00    0.49406   0.53775   -1.000
 3857.00    0.48161   0.51829   -1.000
 3858.00    0.45927   0.49837   -1.000
 3859.00    0.43357   0.48877   -1.000
 3860.00    0.43254   0.50039   -1.000
 3861.00    0.45816   0.53227   -1.000
 3862.00    0.50336   0.56776   -1.000
 3863.00    0.54798   0.58869   -1.000
 3864.00    0.56518   0.59063   -1.000
 3865.00    0.55059   0.58347   -1.000
 3866.00    0.53954   0.57791   -1.000
 3867.00    0.52986   0.57533   -1.000
 3868.00    0.50496   0.56991   -1.000
 3869.00    0.48417   0.55621   -1.000
 3870.00    0.46044   0.53558   -1.000
 3871.00    0.44842   0.51985   -1.000
 3872.00    0.46387   0.52154   -1.000
 3873.00    0.49785   0.54442   -1.000
 3874.00    0.54256   0.57693   -1.000
 3875.00    0.56844   0.59788   -1.000
 3876.00    0.55626   0.59148   -1.000
 3877.00    0.52627   0.56621   -1.000
 3878.00    0.49448   0.54503   -1.000
 3879.00    0.48348   0.53832   -1.000
 3880.00    0.49163   0.54083   -1.000
 3881.00    0.49573   0.54444   -1.000
 3882.00    0.50468   0.54921   -1.000
 3883.00    0.54041   0.55642   -1.000
 3884.00    0.57341   0.55475   -1.000
 3885.00    0.56817   0.53287   -1.000
 3886.00    0.54403   0.49889   -1.000
 3887.00    0.52784   0.47198   -1.000
 3888.00    0.54028   0.46854   -1.000
 3889.00    0.56773   0.49400   -1.000
 3890.00    0.60711   0.54125   -1.000
 3891.00    0.66625   0.59394   -1.000
 3892.00    0.70209   0.63403   -1.000
 3893.00    0.69966   0.65071   -1.000
 3894.00    0.68978   0.65078   -1.000
 3895.00    0.68612   0.64977   -1.000
 3896.00    0.68875   0.65445   -1.000
 3897.00    0.69714   0.66013   -1.000
 3898.00    0.69811   0.66001   -1.000
 3899.00    0.69404   0.65680   -1.000
 3900.00    0.69039   0.65816   -1.000
 3901.00    0.69611   0.66196   -1.000
 3902.00    0.69523   0.65963   -1.000
 3903.00    0.67992   0.64812   -1.000
 3904.00    0.66014   0.63307   -1.000
 3905.00    0.64268   0.62617   -1.000
 3906.00    0.64585   0.63621   -1.000
 3907.00    0.68042   0.66404   -1.000
 3908.00    0.71667   0.69939   -1.000
 3909.00    0.73879   0.72863   -1.000
 3910.00    0.75627   0.74594   -1.000
 3911.00    0.77339   0.75481   -1.000
 3912.00    0.77833   0.75759   -1.000
 3913.00    0.76436   0.75403   -1.000
 3914.00    0.76206   0.74531   -1.000
 3915.00    0.75887   0.73398   -1.000
 3916.00    0.73979   0.72118   -1.000
 3917.00    0.71500   0.70537   -1.000
 3918.00    0.69302   0.68290   -1.000
 3919.00    0.65148   0.65424  400.612
 3920.00    0.61304   0.62745   -1.000
 3921.00    0.60380   0.61144  434.575
 3922.00    0.60939   0.61027  449.786
 3923.00    0.61603   0.61715  452.426
 3924.00    0.61359   0.61923  446.060
 3925.00    0.59608   0.60679  443.359
 3926.00    0.55701   0.57700   -1.000
 3927.00    0.50713   0.53607   -1.000
 3928.00    0.46105   0.49175   -1.000
 3929.00    0.39987   0.45049   -1.000
 3930.00    0.34078   0.41297   -1.000
 3931.00    0.29644   0.37657   -1.000
 3932.00    0.27382   0.34319   -1.000
 3933.00    0.25743   0.32117   -1.000
 3934.00    0.23936   0.32246   -1.000
 3935.00    0.24592   0.34924   -1.000
 3936.00    0.29491   0.39168   -1.000
 3937.00    0.36552   0.43970   -1.000
 3938.00    0.43090   0.48804   -1.000
 3939.00    0.48103   0.52989   71.516
 3940.00    0.50968   0.56050   -1.000
 3941.00    0.51930   0.57648   -1.000
 3942.00    0.52512   0.57959   -1.000
 3943.00    0.53404   0.58037   -1.000
 3944.00    0.55540   0.59203   -1.000
 3945.00    0.60164   0.61718   -1.000
 3946.00    0.64930   0.64538   -1.000
 3947.00    0.66684   0.66722  428.475
 3948.00    0.67967   0.68395  413.290
 3949.00    0.70731   0.70157   -1.000
 3950.00    0.73443   0.71773   -1.000
 3951.00    0.74697   0.72451   -1.000
 3952.00    0.74277   0.72612   -1.000
 3953.00    0.74875   0.73112   -1.000
 3954.00    0.76361   0.73661   -1.000
 3955.00    0.76102   0.73415   -1.000
 3956.00    0.74691   0.72365   -1.000
 3957.00    0.72889   0.71402   -1.000
 3958.00    0.72075   0.70647   -1.000
 3959.00    0.71250   0.68565   -1.000
 3960.00    0.66479   0.64125   -1.000
 3961.00    0.59124   0.58644   -1.000
 3962.00    0.52443   0.53948   -1.000
 3963.00    0.48873   0.50788   -1.000
 3964.00    0.47057   0.48079  506.816
 3965.00    0.43114   0.44280  123.103
 3966.00    0.37471   0.39210   67.298
 3967.00    0.31666   0.33971   80.673
 3968.00    0.28008   0.30421   99.255
 3969.00    0.28869   0.29861  116.327
 3970.00    0.32345   0.32383  118.676
 3971.00    0.37889   0.37160  103.823
 3972.00    0.44127   0.43125   85.368
 3973.00    0.50213   0.49317   70.775
 3974.00    0.56207   0.55355  106.429
 3975.00    0.61159   0.60932  506.816
 3976.00    0.67566   0.65975   -1.000
 3977.00    0.74232   0.70668   -1.000
 3978.00    0.78467   0.74958   -1.000
 3979.00    0.82333   0.78490   -1.000
 3980.00    0.85135   0.80452   -1.000
 3981.00    0.84852   0.80726   -1.000
 3982.00    0.83627   0.80153   -1.000
 3983.00    0.83712   0.79958   -1.000
 3984.00    0.84040   0.80770   -1.000
 3985.00    0.84578   0.82309   -1.000
 3986.00    0.86983   0.84188   -1.000
 3987.00    0.89173   0.86038   -1.000
 3988.00    0.89978   0.87297   -1.000
 3989.00    0.90348   0.87777   -1.000
 3990.00    0.89249   0.88076  318.848
 3991.00    0.90420   0.88852   -1.000
 3992.00    0.94215   0.89985   -1.000
 3993.00    0.94820   0.90616   -1.000
 3994.00    0.93304   0.90050   -1.000
 3995.00    0.91807   0.88471   -1.000
 3996.00    0.88387   0.86839   -1.000
 3997.00    0.86793   0.86455  323.767
 3998.00    0.89458   0.87911   -1.000
 3999.00    0.93648   0.90617   -1.000
 4000.00    0.97397   0.93339   -1.000
 4001.00    0.98083   0.95184   -1.000
 4002.00    0.99039   0.95399   -1.000
 4003.00    0.99391   0.93291   -1.000
 4004.00    0.94518   0.89265   -1.000
 4005.00    0.88747   0.85694   -1.000
 4006.00    0.87158   0.85112   -1.000
 4007.00    0.90352   0.87787   -1.000
 4008.00    0.94813   0.91680   -1.000
 4009.00    0.98220   0.94571   -1.000
 4010.00    0.99677   0.96056   -1.000
 4011.00    1.00155   0.96781   -1.000
 4012.00    1.00491   0.97286   -1.000
 4013.00    0.99537   0.97882   -1.000
 4014.00    0.99824   0.98533  291.229
 4015.00    1.03514   0.98847   -1.000
 4016.00    1.02304   0.98712   -1.000
 4017.00    0.99583   0.98700  286.760
 4018.00    0.99817   0.99311  289.846
 4019.00    1.00393   1.00207  291.250
 4020.00    1.01773   1.00659  288.355
 4021.00    1.02017   1.00271   -1.000
 4022.00    1.01419   0.99292   -1.000
 4023.00    0.99710   0.98122   -1.000
 4024.00    0.98612   0.97277  293.380
 4025.00    1.00632   0.97561   -1.000
 4026.00    1.03660   0.99319   -1.000
 4027.00    1.07448   1.01345   -1.000
 4028.00    1.08512   1.01310   -1.000
 4029.00    1.04287   0.97845   -1.000
 4030.00    0.96955   0.92064   -1.000
 4031.00    0.91329   0.86759   -1.000
 4032.00    0.88242   0.83765   -1.000
 4033.00    0.88321   0.83586   -1.000
 4034.00    0.91277   0.86249   -1.000
 4035.00    0.97494   0.91301   -1.000
 4036.00    1.02327   0.97338   -1.000
 4037.00    1.05630   1.02465   -1.000
 4038.00    1.07621   1.04857   -1.000
 4039.00    1.07438   1.04402   -1.000
 4040.00    1.07073   1.02808   -1.000
 4041.00    1.05023   1.01267   -1.000
 4042.00    1.02976   0.98651   -1.000
 4043.00    0.98938   0.93231   -1.000
 4044.00    0.89826   0.85655   -1.000
 4045.00    0.81856   0.79820   -1.000
 4046.00    0.81611   0.79903   -1.000
 4047.00    0.89733   0.85777   -1.000
 4048.00    0.98901   0.93426   -1.000
 4049.00    1.04077   0.99462   -1.000
 4050.00    1.06210   1.02532   -1.000
 4051.00    1.06660   1.02884   -1.000
 4052.00    1.05044   1.01396   -1.000
 4053.00    1.02262   0.99081   -1.000
 4054.00    1.00000   0.96822   -1.000
 4055.00    0.97931   0.94915   -1.000
 4056.00    0.96198   0.93229   -1.000
 4057.00    0.95676   0.92186   -1.000
 4058.00    0.96586   0.92762   -1.000
 4059.00    0.98520   0.94696   -1.000
 4060.00    0.99515   0.95730   -1.000
 4061.00    0.98439   0.93542   -1.000
 4062.00    0.94525   0.88584   -1.000
 4063.00    0.89400   0.84152   -1.000
 4064.00    0.87767   0.82773   -1.000
 4065.00    0.90753   0.84482   -1.000
 4066.00    0.95052   0.87896   -1.000
 4067.00    0.98745   0.91499   -1.000
 4068.00    1.01690   0.94137   -1.000
 4069.00    1.02228   0.94594   -1.000
 4070.00    1.00096   0.92355   -1.000
 4071.00    0.97071   0.89392   -1.000
 4072.00    0.96346   0.88723   -1.000
 4073.00    0.98497   0.90578   -1.000
 4074.00    0.99508   0.92087   -1.000
 4075.00    0.97218   0.90579   -1.000
 4076.00    0.92468   0.86950   -1.000
 4077.00    0.88170   0.84747   -1.000
 4078.00    0.88850   0.86432   -1.000
 4079.00    0.95201   0.91637   -1.000
 4080.00    1.02017   0.97560   -1.000
 4081.00    1.06334   1.01291   -1.000
 4082.00    1.07301   1.01575   -1.000
 4083.00    1.04088   0.99625   -1.000
 4084.00    1.01218   0.97994   -1.000
 4085.00    1.01664   0.98590   -1.000
 4086.00    1.05453   1.01504   -1.000
 4087.00    1.09281   1.05221   -1.000
 4088.00    1.11954   1.07982   -1.000
 4089.00    1.13228   1.08591   -1.000
 4090.00    1.12962   1.07213   -1.000
 4091.00    1.11489   1.05210   -1.000
 4092.00    1.09395   1.03689   -1.000
 4093.00    1.08498   1.02249   -1.000
 4094.00    1.07883   0.99930   -1.000
 4095.00    1.04417   0.96525   -1.000
 4096.00    0.99337   0.92942   -1.000
 4097.00    0.97291   0.90078   -1.000
 4098.00    0.96155   0.87318   -1.000
 4099.00    0.93093   0.83433   -1.000
 4100.00    0.88760   0.78631   -1.000
 4101.00    0.84435   0.75144   -1.000
 4102.00    0.82844   0.75408   -1.000
 4103.00    0.86907   0.79804   -1.000
 4104.00    0.93508   0.86242   -1.000
 4105.00    0.99585   0.92267   -1.000
 4106.00    1.04354   0.96395   -1.000
 4107.00    1.05037   0.98385   -1.000
 4108.00    1.03370   0.98609   -1.000
 4109.00    1.00700   0.97740   -1.000
 4110.00    0.99362   0.96853   -1.000
 4111.00    0.99482   0.96914   -1.000
 4112.00    1.00478   0.98174   -1.000
 4113.00    1.03172   1.00283   -1.000
 4114.00    1.06864   1.02513   -1.000
 4115.00    1.08345   1.03934   -1.000
 4116.00    1.06406   1.03752   -1.000
 4117.00    1.02525   1.02010  283.697
 4118.00    1.00606   0.99764  287.065
 4119.00    0.99476   0.98353  294.763
 4120.00    1.01296   0.98299   -1.000
 4121.00    1.03484   0.98988   -1.000
 4122.00    1.02779   0.99738   -1.000
 4123.00    1.01947   1.00570  297.250
 4124.00    1.04316   1.01599   -1.000
 4125.00    1.06256   1.02253   -1.000
 4126.00    1.04462   1.01798   -1.000
 4127.00    1.03033   1.00391   -1.000
 4128.00    1.02538   0.98834   -1.000
 4129.00    1.00266   0.97288   -1.000
 4130.00    0.98520   0.95159   -1.000
 4131.00    0.96488   0.92382   -1.000
 4132.00    0.92009   0.90113   -1.000
 4133.00    0.90488   0.90177  319.998
 4134.00    0.93967   0.93109  326.441
 4135.00    0.98809   0.97535   -1.000
 4136.00    1.03940   1.01699   -1.000
 4137.00    1.06444   1.04608   -1.000
 4138.00    1.06007   1.06147  288.054
 4139.00    1.06373   1.06339  283.565
 4140.00    1.05137   1.04402  280.448
 4141.00    1.00661   0.99655  282.105
 4142.00    0.94132   0.93441  291.570
 4143.00    0.88196   0.89054   -1.000
 4144.00    0.87368   0.88906   -1.000
 4145.00    0.93683   0.92482   -1.000
 4146.00    0.99683   0.96883   -1.000
 4147.00    1.02568   0.99347   -1.000
 4148.00    1.01727   0.99425   -1.000
 4149.00    0.99553   0.98429  298.515
 4150.00    0.97890   0.97641  305.471
 4151.00    0.96096   0.97249   -1.000
 4152.00    0.96101   0.96777  313.627
 4153.00    0.96250   0.95965  311.385
 4154.00    0.96002   0.95124  311.439
 4155.00    0.94718   0.94965  315.342
 4156.00    0.93962   0.96001   -1.000
 4157.00    0.96292   0.98140   -1.000
 4158.00    1.12026   1.00939   -1.000
 4159.00    1.33233   1.03663   -1.000
 4160.00    1.11072   1.05718   -1.000
 4161.00    0.74552   1.07227   -1.000
 4162.00    0.94805   1.08292   -1.000
 4163.00    1.10764   1.08558   -1.000
 4164.00    1.05084   1.07595   -1.000
 4165.00    1.02546   1.05451   -1.000
 4166.00    1.00108   1.03001   -1.000
 4167.00    0.98397   1.01597   -1.000
 4168.00    0.98963   1.01591   -1.000
 4169.00    1.00275   1.01821   -1.000
 4170.00    0.99741   1.00475  304.625
 4171.00    0.96474   0.97076  302.476
 4172.00    0.92169   0.93401   -1.000
 4173.00    0.89697   0.91642   -1.000
 4174.00    0.89810   0.92441   -1.000
 4175.00    0.93542   0.94475   -1.000
 4176.00    0.95501   0.96104  326.258
 4177.00    0.94576   0.97140   -1.000
 4178.00    0.94090   0.98228   -1.000
 4179.00    0.95099   0.99278   -1.000
 4180.00    0.96837   0.99638   -1.000
 4181.00    0.97974   0.99338   -1.000
 4182.00    0.97762   0.99581   -1.000
 4183.00    0.99567   1.01174   -1.000
 4184.00    1.03103   1.02931  305.828
 4185.00    1.03788   1.03046  299.877
 4186.00    1.01588   1.01244  296.762
 4187.00    0.97865   0.99293   -1.000
 4188.00    0.95481   0.99059   -1.000
 4189.00    0.98332   1.00465   -1.000
 4190.00    1.00754   1.02275   -1.000
 4191.00    1.02053   1.03850   -1.000
 4192.00    1.03453   1.05190   -1.000
 4193.00    1.04018   1.05684   -1.000
 4194.00    1.03124   1.04133   -1.000
 4195.00    0.99208   1.00427   -1.000
 4196.00    0.95912   0.96171  304.336
 4197.00    0.92878   0.92952  318.444
 4198.00    0.92668   0.91328   -1.000
 4199.00    0.93006   0.91001   -1.000
 4200.00    0.93557   0.91465   -1.000
 4201.00    0.94148   0.92383   -1.000
 4202.00    0.94725   0.93964  321.620
 4203.00    0.97288   0.96616  320.423
 4204.00    0.99838   1.00169  317.181
 4205.00    1.01428   1.03819   -1.000
 4206.00    1.03627   1.06815   -1.000
 4207.00    1.05167   1.08746   -1.000
 4208.00    1.07573   1.09347   -1.000
 4209.00    1.09088   1.08974  291.577
 4210.00    1.07916   1.08597   -1.000
 4211.00    1.06927   1.08687   -1.000
 4212.00    1.07663   1.08326  290.642
 4213.00    1.05335   1.06107   -1.000
 4214.00    1.00229   1.02452   -1.000
 4215.00    0.96268   1.00011   -1.000
 4216.00    0.98451   1.01248   -1.000
 4217.00    1.05729   1.05946  319.378
 4218.00    1.12220   1.11337  304.319
 4219.00    1.16260   1.15025  286.859
 4220.00    1.18028   1.15936   -1.000
 4221.00    1.17439   1.13831   -1.000
 4222.00    1.13048   1.08721   -1.000
 4223.00    1.06147   1.00656   -1.000
 4224.00    0.96911   0.90549   -1.000
 4225.00    0.84911   0.81237   -1.000
 4226.00    0.75332   0.76379   -1.000
 4227.00    0.75515   0.78602   -1.000
 4228.00    0.85968   0.87237   -1.000
 4229.00    1.00245   0.97912   -1.000
 4230.00    1.10273   1.05544   -1.000
 4231.00    1.12998   1.08384   -1.000
 4232.00    1.10475   1.07522   -1.000
 4233.00    1.08744   1.04931   -1.000
 4234.00    1.06346   1.02392   -1.000
 4235.00    1.04050   1.00912   -1.000
 4236.00    1.02499   1.00633   -1.000
 4237.00    1.03703   1.01528   -1.000
 4238.00    1.05135   1.03507   -1.000
 4239.00    1.06443   1.06093  303.536
 4240.00    1.08388   1.08800  297.283
 4241.00    1.12006   1.11451  292.603
 4242.00    1.13541   1.14070  287.517
 4243.00    1.15165   1.16766   -1.000
 4244.00    1.18680   1.18844  282.156
 4245.00    1.18642   1.18754  276.768
 4246.00    1.15564   1.15736  273.989
 4247.00    1.10525   1.10709  280.586
 4248.00    1.05789   1.05551  293.174
 4249.00    1.02627   1.02125  302.965
 4250.00    1.01216   1.01261  308.807
 4251.00    1.03588   1.02358   -1.000
 4252.00    1.06255   1.03512   -1.000
 4253.00    1.07509   1.03278   -1.000
 4254.00    1.05045   1.02627   -1.000
 4255.00    1.05092   1.03813   -1.000
 4256.00    1.09020   1.06763   -1.000
 4257.00    1.10954   1.08272   -1.000
 4258.00    1.08847   1.06016   -1.000
 4259.00    1.01947   1.01636  288.030
 4260.00    0.97627   0.99238   -1.000
 4261.00    0.99488   1.01660   -1.000
 4262.00    1.06552   1.08173   -1.000
 4263.00    1.14925   1.15423  300.514
 4264.00    1.19222   1.20190   -1.000
 4265.00    1.19987   1.21600   -1.000
 4266.00    1.19262   1.20260   -1.000
 4267.00    1.15934   1.16620  269.384
 4268.00    1.11843   1.10966  275.555
 4269.00    1.06320   1.03854   -1.000
 4270.00    0.99178   0.96413   -1.000
 4271.00    0.91939   0.90705   -1.000
 4272.00    0.88171   0.88292  328.524
 4273.00    0.88855   0.89281  342.984
 4274.00    0.92532   0.92933  342.010
 4275.00    0.98196   0.98596  333.637
 4276.00    1.05843   1.05402  322.872
 4277.00    1.12590   1.11392   -1.000
 4278.00    1.15191   1.14164  287.699
 4279.00    1.12685   1.13334  279.049
 4280.00    1.08999   1.11028   -1.000
 4281.00    1.07398   1.09710   -1.000
 4282.00    1.08050   1.09814   -1.000
 4283.00    1.09647   1.10018  301.473
 4284.00    1.08224   1.09290   -1.000
 4285.00    1.04426   1.07775   -1.000
 4286.00    1.01264   1.05912   -1.000
 4287.00    1.00162   1.03352   -1.000
 4288.00    0.98314   0.99592   -1.000
 4289.00    0.93343   0.95619   -1.000
 4290.00    0.91299   0.93984   -1.000
 4291.00    0.95158   0.96157   -1.000
 4292.00    1.00819   1.00384  344.694
 4293.00    1.04410   1.03457  325.064
 4294.00    1.05485   1.03996   -1.000
 4295.00    1.04873   1.02562   -1.000
 4296.00    1.03101   0.99628   -1.000
 4297.00    0.98132   0.94990   -1.000
 4298.00    0.90256   0.89096   -1.000
 4299.00    0.83305   0.83741  347.491
 4300.00    0.80068   0.80943  376.909
 4301.00    0.80584   0.81018  397.060
 4302.00    0.82226   0.82566  395.419
 4303.00    0.85161   0.84104   -1.000
 4304.00    0.86233   0.84809   -1.000
 4305.00    0.83963   0.83896  374.006
 4306.00    0.81357   0.81029  371.570
 4307.00    0.78284   0.77503   -1.000
 4308.00    0.75922   0.75708  393.082
 4309.00    0.76607   0.77226  410.942
 4310.00    0.79734   0.81812   -1.000
 4311.00    0.84676   0.88043   -1.000
 4312.00    0.91406   0.94707   -1.000
 4313.00    0.97754   1.01937   -1.000
 4314.00    1.05482   1.10319   -1.000
 4315.00    1.15677   1.19560   -1.000
 4316.00    1.26033   1.28129   -1.000
 4317.00    1.33054   1.33583  274.629
 4318.00    1.34950   1.34801  257.775
 4319.00    1.33029   1.32909  252.058
 4320.00    1.29351   1.29297  253.670
 4321.00    1.24835   1.24030  258.391
 4322.00    1.18558   1.16479   -1.000
 4323.00    1.09921   1.06920   -1.000
 4324.00    0.99339   0.98207  291.676
 4325.00    0.93027   0.94734   -1.000
 4326.00    0.95391   0.98886   -1.000
 4327.00    1.07495   1.08847   -1.000
 4328.00    1.20503   1.19559  311.553
 4329.00    1.26695   1.26424  281.643
 4330.00    1.28197   1.28893   -1.000
 4331.00    1.28130   1.29501   -1.000
 4332.00    1.29461   1.30493   -1.000
 4333.00    1.32167   1.31935  262.027
 4334.00    1.32898   1.32189  257.919
 4335.00    1.31962   1.29254   -1.000
 4336.00    1.25522   1.22062   -1.000
 4337.00    1.17100   1.11498   -1.000
 4338.00    1.07612   1.00736   -1.000
 4339.00    0.98683   0.93813   -1.000
 4340.00    0.95212   0.92871   -1.000
 4341.00    0.98374   0.97521  363.989
 4342.00    1.08394   1.05412   -1.000
 4343.00    1.17603   1.13305   -1.000
 4344.00    1.22533   1.19244   -1.000
 4345.00    1.25705   1.23520   -1.000
 4346.00    1.27002   1.27040  276.874
 4347.00    1.27842   1.30146   -1.000
 4348.00    1.31638   1.32032  266.400
 4349.00    1.32962   1.30703   -1.000
 4350.00    1.26183   1.25324  260.353
 4351.00    1.16618   1.18496   -1.000
 4352.00    1.10591   1.14539   -1.000
 4353.00    1.13730   1.15579   -1.000
 4354.00    1.18667   1.20097   -1.000
 4355.00    1.23280   1.25014   -1.000
 4356.00    1.26891   1.28161   -1.000
 4357.00    1.28698   1.29065  264.597
 4358.00    1.27584   1.28548   -1.000
 4359.00    1.25284   1.28322   -1.000
 4360.00    1.26548   1.29772   -1.000
 4361.00    1.30426   1.32638   -1.000
 4362.00    1.34012   1.35610   -1.000
 4363.00    1.35889   1.37877   -1.000
 4364.00    1.36648   1.39253   -1.000
 4365.00    1.36347   1.38964   -1.000
 4366.00    1.33206   1.36218   -1.000
 4367.00    1.28439   1.32099   -1.000
 4368.00    1.25524   1.28865   -1.000
 4369.00    1.26121   1.27471   -1.000
 4370.00    1.27061   1.27028  269.537
 4371.00    1.28050   1.25960   -1.000
 4372.00    1.25734   1.23277   -1.000
 4373.00    1.21317   1.19261   -1.000
 4374.00    1.16614   1.15644  271.824
 4375.00    1.14581   1.14884  283.315
 4376.00    1.19006   1.17983  291.138
 4377.00    1.25869   1.22931   -1.000
 4378.00    1.30541   1.26305   -1.000
 4379.00    1.29549   1.25951   -1.000
 4380.00    1.25809   1.21173   -1.000
 4381.00    1.21102   1.12153   -1.000
 4382.00    1.09901   1.01067   -1.000
 4383.00    0.97201   0.92446   -1.000
 4384.00    0.92189   0.90630   -1.000
 4385.00    0.99072   0.96281   -1.000
 4386.00    1.09849   1.05294   -1.000
 4387.00    1.17701   1.12283   -1.000
 4388.00    1.20300   1.15183   -1.000
 4389.00    1.20914   1.15604   -1.000
 4390.00    1.19970   1.15945   -1.000
 4391.00    1.20410   1.17259   -1.000
 4392.00    1.21951   1.19016   -1.000
 4393.00    1.23859   1.20259   -1.000
 4394.00    1.22718   1.21248   -1.000
 4395.00    1.22246   1.23444   -1.000
 4396.00    1.28169   1.27189  277.761
 4397.00    1.33306   1.30319   -1.000
 4398.00    1.33941   1.30385   -1.000
 4399.00    1.29803   1.27687   -1.000
 4400.00    1.25100   1.24607  262.971
 4401.00    1.23334   1.22317  272.483
 4402.00    1.23863   1.19495   -1.000
 4403.00    1.21410   1.14585   -1.000
 4404.00    1.13586   1.09031   -1.000
 4405.00    1.09016   1.06390   -1.000
 4406.00    1.10780   1.08061   -1.000
 4407.00    1.15902   1.12407   -1.000
 4408.00    1.18220   1.17725  286.034
 4409.00    1.21700   1.23803   -1.000
 4410.00    1.30090   1.30433  277.667
 4411.00    1.37260   1.35402   -1.000
 4412.00    1.38993   1.35850   -1.000
 4413.00    1.36612   1.31534   -1.000
 4414.00    1.29475   1.25195   -1.000
 4415.00    1.21689   1.20737  258.174
 4416.00    1.20632   1.21105  271.957
 4417.00    1.25710   1.26207  278.097
 4418.00    1.31641   1.32923   -1.000
 4419.00    1.36628   1.37540   -1.000
 4420.00    1.38414   1.38158  253.024
 4421.00    1.34430   1.35425   -1.000
 4422.00    1.29727   1.31850   -1.000
 4423.00    1.28060   1.29885   -1.000
 4424.00    1.28310   1.30047   -1.000
 4425.00    1.28698   1.31070   -1.000
 4426.00    1.28332   1.31939   -1.000
 4427.00    1.28130   1.32651   -1.000
 4428.00    1.29180   1.33071   -1.000
 4429.00    1.29028   1.32817   -1.000
 4430.00    1.27553   1.32103   -1.000
 4431.00    1.26588   1.31497   -1.000
 4432.00    1.27210   1.30617   -1.000
 4433.00    1.25583   1.28227   -1.000
 4434.00    1.20919   1.24878   -1.000
 4435.00    1.18973   1.23604   -1.000
 4436.00    1.22491   1.26863   -1.000
 4437.00    1.30228   1.33589   -1.000
 4438.00    1.37661   1.39732   -1.000
 4439.00    1.41210   1.41774  249.105
 4440.00    1.38690   1.39054  241.660
 4441.00    1.31593   1.33852   -1.000
 4442.00    1.26649   1.29883   -1.000
 4443.00    1.25819   1.30071   -1.000
 4444.00    1.30518   1.34435   -1.000
 4445.00    1.37563   1.40098   -1.000
 4446.00    1.42642   1.44093   -1.000
 4447.00    1.43460   1.45589   -1.000
 4448.00    1.42821   1.45582   -1.000
 4449.00    1.41926   1.45076   -1.000
 4450.00    1.41095   1.44147   -1.000
 4451.00    1.41531   1.42378  251.330
 4452.00    1.40580   1.39194  252.557
 4453.00    1.35814   1.34211   -1.000
 4454.00    1.29958   1.28487   -1.000
 4455.00    1.25058   1.24438  265.925
 4456.00    1.23867   1.23291  276.514
 4457.00    1.26210   1.23954   -1.000
 4458.00    1.28632   1.24530   -1.000
 4459.00    1.26336   1.24232   -1.000
 4460.00    1.23582   1.23833  270.929
 4461.00    1.23404   1.24676   -1.000
 4462.00    1.26755   1.27548  275.614
 4463.00    1.31342   1.31838  275.843
 4464.00    1.36295   1.35756  268.445
 4465.00    1.38175   1.37833  258.774
 4466.00    1.38792   1.37959  254.466
 4467.00    1.38283   1.36996  254.530
 4468.00    1.35916   1.35912  255.460
 4469.00    1.33805   1.35618   -1.000
 4470.00    1.34273   1.37128   -1.000
 4471.00    1.38303   1.40649   -1.000
 4472.00    1.44193   1.45017  258.008
 4473.00    1.47769   1.48787   -1.000
 4474.00    1.50114   1.51313   -1.000
 4475.00    1.50169   1.53083   -1.000
 4476.00    1.52202   1.54679   -1.000
 4477.00    1.55102   1.55202  234.794
 4478.00    1.54564   1.52868   -1.000
 4479.00    1.48735   1.47313  232.381
 4480.00    1.40129   1.40888  236.370
 4481.00    1.35303   1.37308   -1.000
 4482.00    1.35013   1.38780   -1.000
 4483.00    1.40954   1.44372   -1.000
 4484.00    1.49298   1.51018   -1.000
 4485.00    1.55344   1.55681  244.033
 4486.00    1.55700   1.56487  235.954
 4487.00    1.53052   1.53258  232.527
 4488.00    1.48355   1.47975  234.439
 4489.00    1.42780   1.43972   -1.000
 4490.00    1.40599   1.43322   -1.000
 4491.00    1.43427   1.45194   -1.000
 4492.00    1.46846   1.46692  248.587
 4493.00    1.46217   1.45652  242.433
 4494.00    1.42438   1.42899  240.659
 4495.00    1.38027   1.41215   -1.000
 4496.00    1.39259   1.42559   -1.000
 4497.00    1.43603   1.46326   -1.000
 4498.00    1.47391   1.50214   -1.000
 4499.00    1.50842   1.52419   -1.000
 4500.00    1.50619   1.52933   -1.000
 4501.00    1.50141   1.53394   -1.000
 4502.00    1.51934   1.55411   -1.000
 4503.00    1.55884   1.59056   -1.000
 4504.00    1.59795   1.62904   -1.000
 4505.00    1.60715   1.65045   -1.000
 4506.00    1.59586   1.64701   -1.000
 4507.00    1.59429   1.63002   -1.000
 4508.00    1.60085   1.61698   -1.000
 4509.00    1.60776   1.61496  229.909
 4510.00    1.61303   1.61712  229.491
 4511.00    1.59502   1.61073   -1.000
 4512.00    1.57797   1.58982   -1.000
 4513.00    1.55041   1.56116   -1.000
 4514.00    1.52689   1.53738   -1.000
 4515.00    1.51765   1.52614  237.810
 4516.00    1.52493   1.52527  238.474
 4517.00    1.51687   1.52776   -1.000
 4518.00    1.50928   1.53278   -1.000
 4519.00    1.53569   1.54560  240.766
 4520.00    1.57009   1.56467  240.693
 4521.00    1.58772   1.57744  236.150
 4522.00    1.55868   1.57158   -1.000
 4523.00    1.51748   1.54636   -1.000
 4524.00    1.49412   1.51012   -1.000
 4525.00    1.46887   1.46750  244.745
 4526.00    1.41390   1.41778  247.185
 4527.00    1.35235   1.36640   -1.000
 4528.00    1.31546   1.32757   -1.000
 4529.00    1.32756   1.31434   -1.000
 4530.00    1.36434   1.32830   -1.000
 4531.00    1.39003   1.35637   -1.000
 4532.00    1.37965   1.37881  260.325
 4533.00    1.37048   1.38398   -1.000
 4534.00    1.34411   1.37898   -1.000
 4535.00    1.34096   1.38598   -1.000
 4536.00    1.39028   1.42236   -1.000
 4537.00    1.48807   1.48090  264.254
 4538.00    1.56190   1.53259   -1.000
 4539.00    1.56329   1.55264  235.773
 4540.00    1.54167   1.54245  231.866
 4541.00    1.52397   1.52492  235.340
 4542.00    1.52606   1.51886  239.783
 4543.00    1.53080   1.52254  238.857
 4544.00    1.50344   1.52332   -1.000
 4545.00    1.49615   1.51540   -1.000
 4546.00    1.47725   1.50372   -1.000
 4547.00    1.17142   1.49281   -1.000
 4548.00    0.20125   1.48124   -1.000
 4549.00   -0.00183   1.47094    0.000
 4550.00    0.31992   1.47025   -1.000
 4551.00    0.99227   1.48054   -1.000
 4552.00    0.52245   1.48892   -1.000
 4553.00    1.19669   1.48417   -1.000
 4554.00    1.51121   1.47335   -1.000
 4555.00    1.46335   1.47584   -1.000
 4556.00    1.49980   1.50460  253.536
 4557.00    1.55501   1.55353  248.118
 4558.00    1.60668   1.60192  238.566
 4559.00    1.63200   1.63331  230.187
 4560.00    1.62266   1.64576   -1.000
 4561.00    1.62505   1.64289   -1.000
 4562.00    1.60588   1.62473   -1.000
 4563.00    1.55554   1.59205   -1.000
 4564.00    1.51606   1.55620   -1.000
 4565.00    1.49299   1.53724   -1.000
 4566.00    1.51756   1.54854   -1.000
 4567.00    1.58710   1.58363  239.796
 4568.00    1.62249   1.61848  233.480
 4569.00    1.62502   1.63003  228.171
 4570.00    1.58954   1.61487   -1.000
 4571.00    1.54250   1.58967   -1.000
 4572.00    1.53663   1.57777   -1.000
 4573.00    1.57160   1.59042   -1.000
 4574.00    1.61524   1.61606  237.712
 4575.00    1.63533   1.63430  231.130
 4576.00    1.63725   1.63568  228.790
 4577.00    1.61634   1.62138  229.287
 4578.00    1.58133   1.59262  230.447
 4579.00    1.52875   1.55281   -1.000
 4580.00    1.47954   1.51527   -1.000
 4581.00    1.48565   1.49605  243.949
 4582.00    1.51069   1.49832   -1.000
 4583.00    1.51943   1.51013  246.006
 4584.00    1.52225   1.51758  242.770
 4585.00    1.52726   1.51912  241.616
 4586.00    1.53361   1.52690  242.634
 4587.00    1.55711   1.55104  243.115
 4588.00    1.59368   1.58542  238.836
 4589.00    1.63049   1.61221   -1.000
 4590.00    1.61604   1.61707  228.809
 4591.00    1.58019   1.59942   -1.000
 4592.00    1.55925   1.57150  233.224
 4593.00    1.53341   1.54787   -1.000
 4594.00    1.52204   1.53468  240.871
 4595.00    1.52415   1.53011  240.412
 4596.00    1.52560   1.53173  238.293
 4597.00    1.54782   1.53890  236.698
 4598.00    1.56757   1.54894   -1.000
 4599.00    1.56084   1.55632  235.655
 4600.00    1.54275   1.55809   -1.000
 4601.00    1.53307   1.55697   -1.000
 4602.00    1.54068   1.55702   -1.000
 4603.00    1.55637   1.55839  239.630
 4604.00    1.56448   1.55991  236.902
 4605.00    1.56197   1.56564  234.884
 4606.00    1.57532   1.58409  235.256
 4607.00    1.62622   1.61905  234.357
 4608.00    1.67534   1.66300   -1.000
 4609.00    1.69577   1.69840  226.498
 4610.00    1.68518   1.70919   -1.000
 4611.00    1.67991   1.69579   -1.000
 4612.00    1.64919   1.67386   -1.000
 4613.00    1.63720   1.65965   -1.000
 4614.00    1.64107   1.65988   -1.000
 4615.00    1.65590   1.67068   -1.000
 4616.00    1.67940   1.68317  226.642
 4617.00    1.67450   1.69080   -1.000
 4618.00    1.66551   1.69261   -1.000
 4619.00    1.66590   1.69182   -1.000
 4620.00    1.67334   1.69330   -1.000
 4621.00    1.70216   1.69909  226.699
 4622.00    1.70007   1.70517  224.137
 4623.00    1.69562   1.70571  221.215
 4624.00    1.70526   1.70002  221.450
 4625.00    1.69302   1.69175  222.010
 4626.00    1.67657   1.68415  222.767
 4627.00    1.67267   1.67934  224.598
 4628.00    1.66824   1.67846  224.931
 4629.00    1.67066   1.68135  225.100
 4630.00    1.68008   1.68731  226.445
 4631.00    1.69693   1.69311  226.548
 4632.00    1.68754   1.69146  225.030
 4633.00    1.65516   1.67768   -1.000
 4634.00    1.62680   1.65723   -1.000
 4635.00    1.62332   1.63911   -1.000
 4636.00    1.60526   1.62394   -1.000
 4637.00    1.58762   1.60701   -1.000
 4638.00    1.58493   1.58910  232.163
 4639.00    1.57551   1.57767  234.887
 4640.00    1.59469   1.57975   -1.000
 4641.00    1.65343   1.59483   -1.000
 4642.00    1.68821   1.61229   -1.000
 4643.00    1.67687   1.61629   -1.000
 4644.00    1.65293   1.59738   -1.000
 4645.00    1.61707   1.55967   -1.000
 4646.00    1.56221   1.51736   -1.000
 4647.00    1.51762   1.48939   -1.000
 4648.00    1.52890   1.49117   -1.000
 4649.00    1.57628   1.52293   -1.000
 4650.00    1.61995   1.56931   -1.000
 4651.00    1.64392   1.61111   -1.000
 4652.00    1.65173   1.63555   -1.000
 4653.00    1.63912   1.63807  227.912
 4654.00    1.62713   1.62272  228.037
 4655.00    1.60382   1.60451  231.416
 4656.00    1.59073   1.60322  236.425
 4657.00    1.62100   1.62995  238.081
 4658.00    1.69523   1.67902   -1.000
 4659.00    1.77179   1.72937   -1.000
 4660.00    1.77866   1.75661   -1.000
 4661.00    1.74734   1.74942  214.751
 4662.00    1.70020   1.71495  215.306
 4663.00    1.66318   1.66886  218.623
 4664.00    1.64457   1.62132   -1.000
 4665.00    1.61738   1.57152   -1.000
 4666.00    1.56434   1.51777   -1.000
 4667.00    1.48051   1.47188  233.540
 4668.00    1.45472   1.45573  243.901
 4669.00    1.49077   1.48085   -1.000
 4670.00    1.56921   1.53465   -1.000
 4671.00    1.64960   1.58955   -1.000
 4672.00    1.66074   1.62450   -1.000
 4673.00    1.65109   1.63810   -1.000
 4674.00    1.65971   1.64402   -1.000
 4675.00    1.66802   1.65382   -1.000
 4676.00    1.71145   1.66463   -1.000
 4677.00    1.70244   1.66385   -1.000
 4678.00    1.69035   1.64446   -1.000
 4679.00    1.65175   1.61349   -1.000
 4680.00    1.61067   1.58499   -1.000
 4681.00    1.59614   1.57010   -1.000
 4682.00    1.60548   1.57332   -1.000
 4683.00    1.63899   1.59119   -1.000
 4684.00    1.66629   1.61288   -1.000
 4685.00    1.67896   1.62701   -1.000
 4686.00    1.67230   1.62993   -1.000
 4687.00    1.66482   1.62540   -1.000
 4688.00    1.67191   1.61940   -1.000
 4689.00    1.67336   1.61563   -1.000
 4690.00    1.65308   1.61408   -1.000
 4691.00    1.64178   1.61385   -1.000
 4692.00    1.65202   1.61708   -1.000
 4693.00    1.69158   1.62753   -1.000
 4694.00    1.73041   1.64461   -1.000
 4695.00    1.75335   1.66133   -1.000
 4696.00    1.75609   1.66707   -1.000
 4697.00    1.72418   1.65352   -1.000
 4698.00    1.66417   1.62272   -1.000
 4699.00    1.61250   1.58786   -1.000
 4700.00    1.60288   1.56142   -1.000
 4701.00    1.61350   1.54575   -1.000
 4702.00    1.59720   1.53884   -1.000
 4703.00    1.58746   1.54247   -1.000
 4704.00    1.61919   1.55754   -1.000
 4705.00    1.64489   1.57540   -1.000
 4706.00    1.64876   1.58225   -1.000
 4707.00    1.62269   1.57442   -1.000
 4708.00    1.58572   1.56370   -1.000
 4709.00    1.58096   1.56539   -1.000
 4710.00    1.61665   1.58330   -1.000
 4711.00    1.67585   1.60724   -1.000
 4712.00    1.71819   1.62273   -1.000
 4713.00    1.69975   1.62328   -1.000
 4714.00    1.65094   1.61730   -1.000
 4715.00    1.64811   1.62203   -1.000
 4716.00    1.67952   1.64699   -1.000
 4717.00    1.71186   1.68560   -1.000
 4718.00    1.75571   1.72360   -1.000
 4719.00    1.77405   1.75108   -1.000
 4720.00    1.78252   1.76522   -1.000
 4721.00    1.77311   1.76689  217.497
 4722.00    1.74599   1.76137  217.178
 4723.00    1.74691   1.75774  219.128
 4724.00    1.75830   1.75815  220.197
 4725.00    1.77631   1.75092   -1.000
 4726.00    1.73507   1.72149   -1.000
 4727.00    1.65023   1.66904   -1.000
 4728.00    1.59507   1.61167  223.909
 4729.00    1.58735   1.57383   -1.000
 4730.00    1.59349   1.56726   -1.000
 4731.00    1.59618   1.58661   -1.000
 4732.00    1.63920   1.61780   -1.000
 4733.00    1.68382   1.64719   -1.000
 4734.00    1.70590   1.66601   -1.000
 4735.00    1.73803   1.67279   -1.000
 4736.00    1.70348   1.67389   -1.000
 4737.00    1.68579   1.67806  223.851
 4738.00    1.71035   1.68940   -1.000
 4739.00    1.73390   1.70380   -1.000
 4740.00    1.71329   1.71300  223.159
 4741.00    1.70070   1.71517  223.617
 4742.00    1.70310   1.71654  224.826
 4743.00    1.71700   1.72141  224.734
 4744.00    1.74179   1.72904   -1.000
 4745.00    1.75210   1.73920   -1.000
 4746.00    1.78044   1.75257   -1.000
 4747.00    1.77327   1.76779  221.149
 4748.00    1.76931   1.78172  219.302
 4749.00    1.78021   1.79152  217.319
 4750.00    1.77181   1.79491   -1.000
 4751.00    1.76348   1.78886   -1.000
 4752.00    1.74809   1.77201   -1.000
 4753.00    1.73038   1.74823  219.579
 4754.00    1.71267   1.72569  222.026
 4755.00    1.69088   1.71221   -1.000
 4756.00    1.69155   1.71050   -1.000
 4757.00    1.69385   1.71837   -1.000
 4758.00    1.69971   1.73217   -1.000
 4759.00    1.72020   1.74609   -1.000
 4760.00    1.71399   1.75068   -1.000
 4761.00    1.68494   1.73738   -1.000
 4762.00    1.65213   1.70633   -1.000
 4763.00    1.61384   1.66833   -1.000
 4764.00    1.58526   1.63595   -1.000
 4765.00    1.59274   1.61436   -1.000
 4766.00    1.59247   1.60535  237.705
 4767.00    1.61556   1.61608  236.999
 4768.00    1.66432   1.65126   -1.000
 4769.00    1.71203   1.69839   -1.000
 4770.00    1.73053   1.73376  226.306
 4771.00    1.70964   1.74524   -1.000
 4772.00    1.69477   1.74378   -1.000
 4773.00    1.71549   1.75009   -1.000
 4774.00    1.74363   1.77228   -1.000
 4775.00    1.76235   1.80095   -1.000
 4776.00    1.77341   1.82289   -1.000
 4777.00    1.77181   1.83336   -1.000
 4778.00    1.75920   1.83423   -1.000
 4779.00    1.76424   1.82651   -1.000
 4780.00    1.73962   1.81107   -1.000
 4781.00    1.73333   1.79064   -1.000
 4782.00    1.70807   1.76690   -1.000
 4783.00    1.68717   1.74253   -1.000
 4784.00    1.70251   1.72445   -1.000
 4785.00    1.70075   1.71619  228.866
 4786.00    1.68125   1.71330   -1.000
 4787.00    1.66884   1.71144   -1.000
 4788.00    1.68700   1.71107   -1.000
 4789.00    1.68707   1.71382   -1.000
 4790.00    1.69182   1.72159   -1.000
 4791.00    1.71595   1.73916   -1.000
 4792.00    1.74676   1.77134   -1.000
 4793.00    1.76961   1.81612   -1.000
 4794.00    1.80322   1.86280   -1.000
 4795.00    1.82932   1.89615   -1.000
 4796.00    1.82926   1.90304   -1.000
 4797.00    1.78292   1.88102   -1.000
 4798.00    1.73881   1.84206   -1.000
 4799.00    1.72675   1.80600   -1.000
 4800.00    1.73367   1.79016   -1.000
 4801.00    1.75061   1.80160   -1.000
 4802.00    1.80089   1.83160   -1.000
 4803.00    1.82362   1.85792   -1.000
 4804.00    1.79799   1.86092   -1.000
 4805.00    1.75178   1.83985   -1.000
 4806.00    1.72426   1.80984   -1.000
 4807.00    1.72667   1.78626   -1.000
 4808.00    1.72206   1.77696   -1.000
 4809.00    1.73167   1.78313   -1.000
 4810.00    1.74831   1.80008   -1.000
 4811.00    1.76639   1.81815   -1.000
 4812.00    1.78046   1.82950   -1.000
 4813.00    1.77595   1.83458   -1.000
 4814.00    1.78481   1.83994   -1.000
 4815.00    1.80048   1.85064   -1.000
 4816.00    1.81259   1.86717   -1.000
 4817.00    1.82245   1.88674   -1.000
 4818.00    1.85144   1.90532   -1.000
 4819.00    1.84747   1.91833   -1.000
 4820.00    1.84903   1.91963   -1.000
 4821.00    1.83349   1.90308   -1.000
 4822.00    1.80187   1.86798   -1.000
 4823.00    1.77265   1.82433   -1.000
 4824.00    1.75452   1.79193   -1.000
 4825.00    1.75403   1.78755   -1.000
 4826.00    1.79683   1.80714  225.644
 4827.00    1.79904   1.82762   -1.000
 4828.00    1.77247   1.83228   -1.000
 4829.00    1.77691   1.82411   -1.000
 4830.00    1.75946   1.81180   -1.000
 4831.00    1.75783   1.79752   -1.000
 4832.00    1.74523   1.78447   -1.000
 4833.00    1.75588   1.78257   -1.000
 4834.00    1.79258   1.79742  225.613
 4835.00    1.81903   1.82134  221.864
 4836.00    1.82279   1.83968  219.203
 4837.00    1.80037   1.84259   -1.000
 4838.00    1.78796   1.82951   -1.000
 4839.00    1.76831   1.80632   -1.000
 4840.00    1.73651   1.78342   -1.000
 4841.00    1.74188   1.77006   -1.000
 4842.00    1.75593   1.76756  227.151
 4843.00    1.74416   1.77308   -1.000
 4844.00    1.75609   1.78751   -1.000
 4845.00    1.80734   1.81151  223.559
 4846.00    1.82807   1.83510  221.149
 4847.00    1.81530   1.84244   -1.000
 4848.00    1.79352   1.83042   -1.000
 4849.00    1.78597   1.81466   -1.000
 4850.00    1.79077   1.81158  224.935
 4851.00    1.80027   1.81969  224.400
 4852.00    1.80544   1.82285  221.385
 4853.00    1.78845   1.80596  221.194
 4854.00    1.74961   1.76642  222.609
 4855.00    1.69686   1.71774   -1.000
 4856.00    1.66649   1.68078  231.997
 4857.00    1.66858   1.66186   -1.000
 4858.00    1.66032   1.63923   -1.000
 4859.00    1.57012   1.58098  235.145
 4860.00    1.43339   1.48418   -1.000
 4861.00    1.35825   1.39250   -1.000
 4862.00    1.37703   1.36134   -1.000
 4863.00    1.48175   1.40645   -1.000
 4864.00    1.59037   1.49617   -1.000
 4865.00    1.65604   1.58743   -1.000
 4866.00    1.68229   1.65806   -1.000
 4867.00    1.70587   1.70422  237.513
 4868.00    1.72114   1.72602  232.923
 4869.00    1.71254   1.72028  231.035
 4870.00    1.65694   1.68560   -1.000
 4871.00    1.61619   1.63486  232.981
 4872.00    1.59999   1.59940  239.703
 4873.00    1.62965   1.60742   -1.000
 4874.00    1.68613   1.65415   -1.000
 4875.00    1.69581   1.70811  234.952
 4876.00    1.72265   1.74795   -1.000
 4877.00    1.73551   1.77640   -1.000
 4878.00    1.76312   1.80356   -1.000
 4879.00    1.78549   1.82981   -1.000
 4880.00    1.77812   1.84499   -1.000
 4881.00    1.75350   1.84071   -1.000
 4882.00    1.72575   1.82187   -1.000
 4883.00    1.72334   1.80129   -1.000
 4884.00    1.73758   1.78143   -1.000
 4885.00    1.71584   1.75544   -1.000
 4886.00    1.66942   1.72635   -1.000
 4887.00    1.66775   1.70657   -1.000
 4888.00    1.67885   1.69706  234.298
 4889.00    1.67084   1.68314  233.027
 4890.00    1.62966   1.65701   -1.000
 4891.00    1.61923   1.63707  236.873
 4892.00    1.67374   1.65644   -1.000
 4893.00    1.77667   1.72958   23.894
 4894.00    1.86911   1.83379   22.889
 4895.00    1.91149   1.92645   21.852
 4896.00    1.93008   1.97944   21.243
 4897.00    1.93445   1.99361   20.880
 4898.00    1.90319   1.98201   20.803
 4899.00    1.86227   1.95635   20.889
 4900.00    1.83195   1.92728   21.364
 4901.00    1.81435   1.90310   21.850
 4902.00    1.80924   1.88526   22.050
 4903.00    1.80299   1.87303   21.940
 4904.00    1.81987   1.87281   21.998
 4905.00    1.86170   1.89231   22.236
 4906.00    1.88873   1.92218   21.953
 4907.00    1.87665   1.93494   21.498
 4908.00    1.84189   1.91169   21.373
 4909.00    1.80589   1.86137   21.611
 4910.00    1.75704   1.81150   22.157
 4911.00    1.74411   1.78829   22.775
 4912.00    1.78819   1.80125   23.001
 4913.00    1.81879   1.84010   22.667
 4914.00    1.85026   1.88517   22.260
 4915.00    1.89338   1.91820   21.959
 4916.00    1.89305   1.92151   21.681
 4917.00    1.83077   1.87708   21.517
 4918.00    1.72575   1.78249   21.681
 4919.00    1.62470   1.66727   22.500
 4920.00    1.58618   1.58142   23.744
 4921.00    1.61202   1.56135   24.806
 4922.00    1.69063   1.60443   24.972
 4923.00    1.74432   1.67339   24.114
 4924.00    1.77342   1.73206   23.275
 4925.00    1.77916   1.77482   22.972
 4926.00    1.81027   1.81810   22.940
 4927.00    1.86230   1.87005   22.613
 4928.00    1.90498   1.92297   22.024
 4929.00    1.92610   1.96618   21.651
 4930.00    1.94533   1.99076   21.458
 4931.00    1.93779   1.98822   21.314
 4932.00    1.89481   1.95630   21.211
 4933.00    1.83042   1.90732   21.460
 4934.00    1.80540   1.86500   22.074
 4935.00    1.83017   1.84417   22.834
 4936.00    1.83327   1.83297   22.830
 4937.00    1.78258   1.80651   22.431
 4938.00    1.72440   1.76283   22.478
 4939.00    1.70447   1.73370   23.164
 4940.00    1.75694   1.75185   23.743
 4941.00    1.84468   1.81513   23.464
 4942.00    1.90963   1.89062   22.646
 4943.00    1.93433   1.94657   21.942
 4944.00    1.92803   1.97208   21.561
 4945.00    1.92662   1.97452   21.385
 4946.00    1.93835   1.96906   21.417
 4947.00    1.92476   1.97061   21.568
 4948.00    1.93802   1.98477   21.595
 4949.00    1.97050   2.00471   21.387
 4950.00    1.98382   2.01987   21.144
 4951.00    1.98245   2.02489   21.085
 4952.00    1.95788   2.01883   21.008
 4953.00    1.93459   2.00128   21.127
 4954.00    1.91655   1.96861   21.280
 4955.00    1.87650   1.91065   21.532
 4956.00    1.77319   1.82206   21.821
 4957.00    1.66255   1.72619   22.450
 4958.00    1.66606   1.67609   23.618
 4959.00    1.75731   1.70761   24.472
 4960.00    1.86548   1.79673   23.873
 4961.00    1.91280   1.88519   22.509
 4962.00    1.91038   1.93363   21.787
 4963.00    1.90704   1.93896   21.654
 4964.00    1.86821   1.91487   21.768
 4965.00    1.81477   1.87476   21.949
 4966.00    1.79084   1.83434   22.225
 4967.00    1.78602   1.80897   22.695
 4968.00    1.79823   1.80399   22.966
 4969.00    1.80224   1.81571   22.958
 4970.00    1.82391   1.83906   22.883
 4971.00    1.85171   1.87042   22.706
 4972.00    1.87931   1.90539   22.460
 4973.00    1.89042   1.93640   22.218
 4974.00    1.92660   1.95522   21.954
 4975.00    1.91266   1.95802   21.755
 4976.00    1.89747   1.94485   21.684
 4977.00    1.86703   1.91794   21.847
 4978.00    1.83176   1.88288   22.084
 4979.00    1.78320   1.84629   22.390
 4980.00    1.75553   1.80798   22.753
 4981.00    1.72999   1.75975   23.033
 4982.00    1.65751   1.69962   23.384
 4983.00    1.62949   1.64615   24.171
 4984.00    1.65750   1.62771   24.914
 4985.00    1.70951   1.65682   24.865
 4986.00    1.77544   1.72081   24.371
 4987.00    1.82256   1.79279   23.674
 4988.00    1.84923   1.84619   22.927
 4989.00    1.83430   1.86709   22.394
 4990.00    1.83141   1.86157   22.446
 4991.00    1.82551   1.85003   22.783
 4992.00    1.82859   1.84753   23.004
 4993.00    1.83647   1.85428   22.996
 4994.00    1.83409   1.86359   22.789
 4995.00    1.84478   1.87290   22.701
 4996.00    1.85727   1.88218   22.687
 4997.00    1.84806   1.88394   22.567
 4998.00    1.82251   1.86589   22.467
 4999.00    1.79881   1.82621   22.619
 5000.00    1.75570   1.77861   22.935
 5001.00    1.74233   1.74222   23.396
 5002.00    1.76636   1.72681   23.672
 5003.00    1.77819   1.72353   23.669
 5004.00    1.77182   1.71352   23.440
 5005.00    1.70858   1.68796   23.309
 5006.00    1.68585   1.66171   23.670
 5007.00    1.71169   1.66259   24.265
 5008.00    1.77338   1.70147   24.353
 5009.00    1.83560   1.75573   23.729
 5010.00    1.82324   1.78814   23.019
 5011.00    1.77068   1.77791   22.811
 5012.00    1.72867   1.73089   23.142
 5013.00    1.66785   1.67273   23.859
 5014.00    1.63091   1.63327   24.749
 5015.00    1.65595   1.62762   25.287
 5016.00    1.72381   1.64649   25.126
 5017.00    1.72809   1.66943   24.557
 5018.00    1.74437   1.68648   24.060
 5019.00    1.75358   1.70129   23.975
 5020.00    1.77855   1.71668   23.973
 5021.00    1.76096   1.72707   23.694
 5022.00    1.74765   1.73124   23.513
 5023.00    1.74463   1.74040   23.625
 5024.00    1.78521   1.76339   23.669
 5025.00    1.81133   1.79164   23.523
 5026.00    1.80380   1.80628   23.273
 5027.00    1.78344   1.80146   23.130
 5028.00    1.78559   1.79383   23.249
 5029.00    1.82099   1.80432   23.349
 5030.00    1.85974   1.83791   23.117
 5031.00    1.89134   1.88411   22.677
 5032.00    1.91147   1.92765   22.356
 5033.00    1.93577   1.95282   21.994
 5034.00    1.91536   1.94523   21.753
 5035.00    1.83988   1.90402   21.820
 5036.00    1.76707   1.84903   22.549
 5037.00    1.75791   1.80295   23.438
 5038.00    1.75938   1.76573   23.799
 5039.00    1.70831   1.71830   23.879
 5040.00    1.60796   1.65617   24.202
 5041.00    1.57353   1.60923   25.180
 5042.00    1.65259   1.61877   26.179
 5043.00    1.75903   1.69585   26.117
 5044.00    1.86397   1.80926   24.802
 5045.00    1.93518   1.91080   23.270
 5046.00    1.95411   1.96554   22.351
 5047.00    1.92089   1.96413   21.884
 5048.00    1.95331   1.91785   21.071
 5049.00    1.08375   1.85271   -1.000
 5050.00   -0.15885   1.79929    0.000
 5051.00    0.00228   1.77695   -1.000
 5052.00    0.55271   1.78713   -1.000
 5053.00    1.91512   1.82215   23.477
 5054.00    1.91824   1.86999   22.933
 5055.00    1.92793   1.91432   22.355
 5056.00    1.96805   1.94463   21.958
 5057.00    1.97544   1.96315   21.759
 5058.00    1.96778   1.97799   21.696
 5059.00    1.97146   1.99545   21.740
 5060.00    1.97671   2.01586   21.779
 5061.00    1.98545   2.03136   21.766
 5062.00    1.97806   2.02758   21.615
 5063.00    1.94754   1.99187   21.640
 5064.00    1.86885   1.92903   21.949
 5065.00    1.81592   1.86502   22.608
 5066.00    1.81170   1.82613   23.411
 5067.00    1.82771   1.81807   23.648
 5068.00    1.84089   1.82900   23.338
 5069.00    1.87073   1.84674   22.987
 5070.00    1.88738   1.86354   22.924
 5071.00    1.88568   1.87161   22.813
 5072.00    1.86569   1.86748   22.666
 5073.00    1.89267   1.85999   22.864
 5074.00    1.89787   1.86117   23.036
 5075.00    1.89748   1.87115   22.735
 5076.00    1.91041   1.87870   22.564
 5077.00    1.89449   1.87072   22.540
 5078.00    1.84026   1.83693   22.527
 5079.00    1.77574   1.77955   22.764
 5080.00    1.71895   1.72252   23.589
 5081.00    1.69824   1.69628   24.718
 5082.00    1.74535   1.70882   24.956
 5083.00    1.79615   1.74369   24.397
 5084.00    1.83112   1.78424   23.879
 5085.00    1.87822   1.82410   23.564
 5086.00    1.91638   1.86054   23.113
 5087.00    1.91559   1.88926   22.722
 5088.00    1.92209   1.90854   22.570
 5089.00    1.94196   1.92180   22.544
 5090.00    1.93953   1.93453   22.426
 5091.00    1.94881   1.95147   22.262
 5092.00    1.98261   1.97430   22.141
 5093.00    2.00371   1.99637   22.025
 5094.00    1.98678   2.00253   21.765
 5095.00    1.96843   1.97985   21.575
 5096.00    1.92438   1.92957   21.792
 5097.00    1.87022   1.86609   22.260
 5098.00    1.80634   1.80878   22.742
 5099.00    1.79738   1.77784   23.296
 5100.00    1.83531   1.78705   23.779
 5101.00    1.88805   1.82992   23.831
 5102.00    1.92638   1.87873   23.217
 5103.00    1.91075   1.90592   22.541
 5104.00    1.90206   1.90413   22.366
 5105.00    1.87276   1.88449   22.513
 5106.00    1.85677   1.85858   22.818
 5107.00    1.82702   1.83175   23.106
 5108.00    1.82558   1.80840   23.388
 5109.00    1.83488   1.79548   23.681
 5110.00    1.83402   1.80019   23.630
 5111.00    1.86221   1.82432   23.473
 5112.00    1.90508   1.86072   23.303
 5113.00    1.92624   1.89763   22.960
 5114.00    1.93961   1.92819   22.681
 5115.00    1.94198   1.95480   22.405
 5116.00    1.96381   1.98063   22.206
 5117.00    2.00256   2.00300   22.091
 5118.00    2.01483   2.01469   21.852
 5119.00    2.01077   2.00881   21.671
 5120.00    1.98178   1.98342   21.747
 5121.00    1.91672   1.94164   22.043
 5122.00    1.86643   1.88904   22.377
 5123.00    1.80617   1.83391   22.748
 5124.00    1.78569   1.78897   23.345
 5125.00    1.80280   1.76587   24.055
 5126.00    1.80850   1.76529   24.198
 5127.00    1.81939   1.77528   23.966
 5128.00    1.82074   1.78441   23.853
 5129.00    1.81574   1.79316   23.709
 5130.00    1.81858   1.80905   23.752
 5131.00    1.86272   1.83489   23.728
 5132.00    1.91235   1.86497   23.405
 5133.00    1.91833   1.89161   23.001
 5134.00    1.93626   1.91228   22.824
 5135.00    1.95549   1.92523   22.604
 5136.00    1.94677   1.92224   22.406
 5137.00    1.90844   1.89560   22.354
 5138.00    1.86656   1.85374   22.777
 5139.00    1.84999   1.82009   23.340
 5140.00    1.85678   1.80856   23.703
 5141.00    1.83908   1.81081   23.722
 5142.00    1.82847   1.81321   23.499
 5143.00    1.82597   1.81413   23.690
 5144.00    1.84500   1.81884   24.086
 5145.00    1.85935   1.82289   23.924
 5146.00    1.85047   1.81594   23.510
 5147.00    1.83066   1.80204   23.441
 5148.00    1.83920   1.79712   23.673
 5149.00    1.86835   1.80546   23.725
 5150.00    1.86809   1.81425   23.419
 5151.00    1.83986   1.81100   23.294
 5152.00    1.79435   1.79804   23.600
 5153.00    1.79547   1.78817   24.037
 5154.00    1.83654   1.79365   24.185
 5155.00    1.85200   1.82128   24.052
 5156.00    1.92224   1.86824   23.579
 5157.00    1.98268   1.92065   22.974
 5158.00    1.99258   1.96203   22.390
 5159.00    2.01888   1.98405   21.976
 5160.00    2.02317   1.98702   21.823
 5161.00    2.00393   1.97261   21.825
 5162.00    1.96956   1.94018   21.901
 5163.00    1.94236   1.88837   22.029
 5164.00    1.87853   1.81510   22.282
 5165.00    1.73489   1.71397   22.631
 5166.00    1.56393   1.58440   23.516
 5167.00    1.41715   1.45697   25.502
 5168.00    1.39542   1.38537   28.198
 5169.00    1.49753   1.38989   -1.000
 5170.00    1.56963   1.42447   -1.000
 5171.00    1.50584   1.42407   27.639
 5172.00    1.37398   1.38115   27.310
 5173.00    1.35071   1.35864   29.148
 5174.00    1.50215   1.41714   -1.000
 5175.00    1.69578   1.54838   -1.000
 5176.00    1.81565   1.68847   -1.000
 5177.00    1.86235   1.78274   24.304
 5178.00    1.87344   1.82392   23.425
 5179.00    1.87004   1.82400   23.175
 5180.00    1.81661   1.78225   23.135
 5181.00    1.70103   1.68799   23.373
 5182.00    1.52829   1.54891   24.211
 5183.00    1.36272   1.41488   25.996
 5184.00    1.34889   1.35943   29.069
 5185.00    1.51362   1.42066   -1.000
 5186.00    1.72610   1.56530   -1.000
 5187.00    1.86029   1.71675   -1.000
 5188.00    1.89247   1.82083   24.109
 5189.00    1.92899   1.86761   23.386
 5190.00    1.94337   1.86711   23.196
 5191.00    1.87423   1.82968   23.102
 5192.00    1.80227   1.77574   23.362
 5193.00    1.78885   1.73894   24.121
 5194.00    1.83309   1.73916   24.786
 5195.00    1.86451   1.76636   -1.000
 5196.00    1.90254   1.80338   24.143
 5197.00    1.93658   1.84591   23.788
 5198.00    1.97434   1.89204   23.441
 5199.00    2.02037   1.93348   22.965
 5200.00    2.03693   1.95905   22.577
 5201.00    2.01839   1.96108   22.397
 5202.00    1.99394   1.93675   22.380
 5203.00    1.94819   1.88549   22.566
 5204.00    1.87386   1.81125   22.983
 5205.00    1.78035   1.72888   23.512
 5206.00    1.74707   1.66135   24.259
 5207.00    1.73285   1.62383   -1.000
 5208.00    1.72769   1.61754   -1.000
 5209.00    1.73974   1.64045   -1.000
 5210.00    1.80915   1.69533   -1.000
 5211.00    1.90447   1.77910   -1.000
 5212.00    1.98840   1.87088   -1.000
 5213.00    2.04548   1.93906   -1.000
 5214.00    2.05336   1.96190   22.274
 5215.00    2.00001   1.94367   21.822
 5216.00    1.95077   1.91442   22.081
 5217.00    1.96874   1.90818   22.612
 5218.00    2.00339   1.93787   22.882
 5219.00    2.03771   1.98853   22.681
 5220.00    2.09823   2.03467   22.183
 5221.00    2.11701   2.05763   21.850
 5222.00    2.07564   2.04800   21.686
 5223.00    2.01873   2.00199   21.600
 5224.00    1.93866   1.92237   21.889
 5225.00    1.86143   1.82406   22.567
 5226.00    1.78235   1.73815   23.507
 5227.00    1.78083   1.70373   24.613
 5228.00    1.86384   1.74187   -1.000
 5229.00    1.99196   1.83289   -1.000
 5230.00    2.07036   1.92465   -1.000
 5231.00    2.06707   1.96987   22.381
 5232.00    2.02992   1.95988   21.993
 5233.00    1.99415   1.92527   21.965
 5234.00    1.98461   1.90744   22.421
 5235.00    2.01767   1.92955   22.820
 5236.00    2.06871   1.98397   22.762
 5237.00    2.11091   2.04451   22.230
 5238.00    2.13304   2.08789   21.698
 5239.00    2.12406   2.10571   21.459
 5240.00    2.13719   2.10486   21.444
 5241.00    2.13974   2.09739   21.514
 5242.00    2.14381   2.09308   21.474
 5243.00    2.14860   2.09652   21.345
 5244.00    2.14090   2.10185   21.380
 5245.00    2.12013   2.09268   21.335
 5246.00    2.06819   2.05697   21.301
 5247.00    1.99650   2.00377   21.737
 5248.00    1.98648   1.95655   22.425
 5249.00    1.98223   1.93024   22.945
 5250.00    1.97051   1.92325   22.996
 5251.00    1.98308   1.93010   23.038
 5252.00    2.02218   1.94679   23.188
 5253.00    2.02714   1.96454   23.075
 5254.00    2.02780   1.97574   22.751
 5255.00    2.04165   1.98838   22.527
 5256.00    2.07764   2.02054   22.534
 5257.00    2.14216   2.07540   22.369
 5258.00    2.18875   2.12893   21.841
 5259.00    2.20723   2.14946   21.248
 5260.00    2.15396   2.12160   21.066
 5261.00    2.03501   2.04857   21.268
 5262.00    1.94402   1.94624   21.858
 5263.00    1.87411   1.83695   22.791
 5264.00    1.79907   1.74370   23.880
 5265.00    1.76064   1.68410   24.703
 5266.00    1.78121   1.66357   -1.000
 5267.00    1.82596   1.66616   -1.000
 5268.00    1.81472   1.66063   -1.000
 5269.00    1.74014   1.63306   -1.000
 5270.00    1.72078   1.61334   -1.000
 5271.00    1.81817   1.64767   -1.000
 5272.00    1.95040   1.73982   -1.000
 5273.00    2.01800   1.83948   -1.000
 5274.00    2.01953   1.90067   -1.000
 5275.00    2.00949   1.93178   22.706
 5276.00    2.05317   1.96967   22.720
 5277.00    2.13887   2.02935   -1.000
 5278.00    2.21155   2.09130   -1.000
 5279.00    2.20099   2.12232   21.464
 5280.00    2.17000   2.10723   21.066
 5281.00    2.09562   2.05799   21.197
 5282.00    2.04000   2.00095   21.711
 5283.00    2.01406   1.96542   22.278
 5284.00    2.04394   1.97516   22.685
 5285.00    2.12861   2.03460   22.796
 5286.00    2.23632   2.11863   -1.000
 5287.00    2.25574   2.18824   21.646
 5288.00    2.24142   2.22332   20.964
 5289.00    2.26073   2.23454   20.807
 5290.00    2.27733   2.24011   20.919
 5291.00    2.29059   2.24462   20.916
 5292.00    2.29361   2.24151   20.792
 5293.00    2.25951   2.22640   20.748
 5294.00    2.22935   2.19860   20.871
 5295.00    2.20179   2.15179   21.069
 5296.00    2.10251   2.08034   21.349
 5297.00    2.00251   1.99924   21.930
 5298.00    1.97461   1.94383   22.776
 5299.00    2.01576   1.93933   23.388
 5300.00    2.08160   1.97649   -1.000
 5301.00    2.11549   2.02615   22.651
 5302.00    2.14043   2.07371   22.229
 5303.00    2.19502   2.12506   22.087
 5304.00    2.26356   2.18273   21.815
 5305.00    2.29901   2.23129   21.226
 5306.00    2.28856   2.25308   20.835
 5307.00    2.27151   2.25127   20.781
 5308.00    2.26901   2.24680   20.984
 5309.00    2.30089   2.25464   21.167
 5310.00    2.32880   2.27052   21.030
 5311.00    2.32403   2.27921   20.808
 5312.00    2.31495   2.27240   20.675
 5313.00    2.28883   2.25373   20.695
 5314.00    2.27636   2.23004   20.812
 5315.00    2.24681   2.20571   20.902
 5316.00    2.22591   2.18430   21.053
 5317.00    2.22525   2.17143   21.262
 5318.00    2.23346   2.17100   21.451
 5319.00    2.25182   2.17847   21.459
 5320.00    2.25777   2.18336   21.300
 5321.00    2.24650   2.17682   21.209
 5322.00    2.22826   2.15330   21.286
 5323.00    2.17580   2.11255   21.436
 5324.00    2.14171   2.06231   21.688
 5325.00    2.11651   2.00881   22.068
 5326.00    2.07215   1.94430   -1.000
 5327.00    1.96776   1.86234   22.267
 5328.00    1.85217   1.78837   22.874
 5329.00    1.87976   1.77346   -1.000
 5330.00    2.00143   1.84119   -1.000
 5331.00    2.13276   1.95487   -1.000
 5332.00    2.17355   2.05489   -1.000
 5333.00    2.21138   2.11795   21.995
 5334.00    2.25987   2.15875   21.759
 5335.00    2.27586   2.19241   21.552
 5336.00    2.26755   2.21438   21.301
 5337.00    2.25330   2.21149   21.207
 5338.00    2.22344   2.17825   21.342
 5339.00    2.16868   2.12099   21.480
 5340.00    2.10863   2.06058   21.715
 5341.00    2.08980   2.02895   22.261
 5342.00    2.14266   2.04435   22.655
 5343.00    2.20200   2.08973   -1.000
 5344.00    2.22405   2.12901   21.872
 5345.00    2.22349   2.14182   21.476
 5346.00    2.21448   2.13198   21.469
 5347.00    2.20847   2.11265   21.609
 5348.00    2.18895   2.09441   21.748
 5349.00    2.17500   2.08756   21.855
 5350.00    2.21534   2.10352   -1.000
 5351.00    2.26942   2.14444   -1.000
 5352.00    2.28945   2.19713   21.771
 5353.00    2.31337   2.24515   21.266
 5354.00    2.34568   2.28304   20.997
 5355.00    2.36120   2.31445   20.927
 5356.00    2.38605   2.33978   20.764
 5357.00    2.39631   2.35396   20.500
 5358.00    2.39700   2.35496   20.344
 5359.00    2.38816   2.34434   20.359
 5360.00    2.36470   2.32259   20.390
 5361.00    2.33132   2.29120   20.464
 5362.00    2.28282   2.25578   20.702
 5363.00    2.26440   2.22249   21.048
 5364.00    2.23203   2.19380   21.358
 5365.00    2.19358   2.17027   21.511
 5366.00    2.21053   2.15314   21.636
 5367.00    2.22497   2.13987   21.767
 5368.00    2.21122   2.11741   21.704
 5369.00    2.15980   2.07085   21.701
 5370.00    2.07855   2.00665   21.917
 5371.00    2.05337   1.95936   22.459
 5372.00    2.10555   1.96682   -1.000
 5373.00    2.22374   2.03583   -1.000
 5374.00    2.32061   2.13291   -1.000
 5375.00    2.36561   2.21255   -1.000
 5376.00    2.35533   2.25229   20.828
 5377.00    2.33918   2.26131   20.667
 5378.00    2.33687   2.26090   20.725
 5379.00    2.33368   2.26071   20.735
 5380.00    2.31501   2.25560   20.775
 5381.00    2.28659   2.23959   20.894
 5382.00    2.26736   2.21742   21.099
 5383.00    2.26579   2.20184   21.308
 5384.00    2.28715   2.20237   21.414
 5385.00    2.32612   2.21769   -1.000
 5386.00    2.33559   2.23580   21.303
 5387.00    2.32336   2.24094   21.076
 5388.00    2.29925   2.22408   21.030
 5389.00    2.25474   2.18889   21.123
 5390.00    2.23316   2.14824   21.325
 5391.00    2.21514   2.11560   21.650
 5392.00    2.19617   2.09768   21.895
 5393.00    2.20192   2.09126   -1.000
 5394.00    2.20778   2.08537   -1.000
 5395.00    2.18104   2.06792   -1.000
 5396.00    2.12576   2.03710   22.237
 5397.00    2.11489   2.00967   -1.000
 5398.00    2.15176   2.01047   -1.000
 5399.00    2.19733   2.04699   -1.000
 5400.00    2.24881   2.09920   -1.000
 5401.00    2.25680   2.13772   -1.000
 5402.00    2.24457   2.14306   21.554
 5403.00    2.18614   2.10790   21.591
 5404.00    2.10444   2.03848   21.760
 5405.00    2.04092   1.96300   22.410
 5406.00    2.03589   1.92232   -1.000
 5407.00    2.09209   1.93370   -1.000
 5408.00    2.13235   1.97248   -1.000
 5409.00    2.12339   2.00427   -1.000
 5410.00    2.13492   2.02443   -1.000
 5411.00    2.19507   2.05475   -1.000
 5412.00    2.25075   2.10595   -1.000
 5413.00    2.29641   2.16020   -1.000
 5414.00    2.31267   2.19780   -1.000
 5415.00    2.29846   2.22109   21.321
 5416.00    2.31691   2.24361   21.328
 5417.00    2.33533   2.26722   21.339
 5418.00    2.32427   2.27923   21.183
 5419.00    2.31008   2.27153   21.047
 5420.00    2.28864   2.25204   21.127
 5421.00    2.29226   2.23390   21.335
 5422.00    2.30742   2.22089   21.466
 5423.00    2.29553   2.20875   21.386
 5424.00    2.26386   2.20048   21.299
 5425.00    2.26724   2.20949   21.586
 5426.00    2.31704   2.23701   21.788
 5427.00    2.34035   2.25619   21.570
 5428.00    2.28549   2.23460   21.206
 5429.00    2.20111   2.17398   21.259
 5430.00    2.17199   2.11464   21.832
 5431.00    2.20530   2.09089   -1.000
 5432.00    2.22862   2.09492   -1.000
 5433.00    2.19995   2.09478   -1.000
 5434.00    2.16009   2.07791   22.178
 5435.00    2.14397   2.06521   22.487
 5436.00    2.17189   2.08407   22.750
 5437.00    2.25739   2.14037   -1.000
 5438.00    2.33673   2.21700   -1.000
 5439.00    2.37517   2.28927   21.628
 5440.00    2.40257   2.34038   21.170
 5441.00    2.42193   2.36722   20.869
 5442.00    2.40421   2.37351   20.693
 5443.00    2.38938   2.35781   20.653
 5444.00    2.32592   2.31144   20.651
 5445.00    2.25094   2.23279   20.861
 5446.00    2.15505   2.14379   21.407
 5447.00    2.12291   2.08526   22.282
 5448.00    2.18541   2.08660   -1.000
 5449.00    2.27116   2.13938   -1.000
 5450.00    2.31554   2.20336   -1.000
 5451.00    2.34338   2.24030   -1.000
 5452.00    2.30810   2.23774   21.329
 5453.00    2.25869   2.20091   21.326
 5454.00    2.18957   2.14159   21.502
 5455.00    2.13804   2.08417   21.992
 5456.00    2.16596   2.06368   -1.000
 5457.00    2.24258   2.09990   -1.000
 5458.00    2.32333   2.17273   -1.000
 5459.00    2.35014   2.23450   -1.000
 5460.00    2.33634   2.25148   21.433
 5461.00    2.27930   2.22577   21.293
 5462.00    2.24480   2.18322   21.530
 5463.00    2.23067   2.15251   21.932
 5464.00    2.24744   2.14984   22.235
 5465.00    2.27701   2.17192   -1.000
 5466.00    2.30226   2.20279   -1.000
 5467.00    2.32009   2.22801   21.842
 5468.00    2.33212   2.24120   21.732
 5469.00    2.31465   2.24111   21.497
 5470.00    2.28806   2.22962   21.399
 5471.00    2.29999   2.21200   21.589
 5472.00    2.28673   2.19353   21.815
 5473.00    2.26325   2.17348   21.900
 5474.00    2.24386   2.14481   22.010
 5475.00    2.19229   2.10379   22.230
 5476.00    2.13906   2.06160   22.543
 5477.00    2.13113   2.04310   23.019
 5478.00    2.20988   2.06410   -1.000
 5479.00    2.26160   2.10721   -1.000
 5480.00    2.24892   2.13601   -1.000
 5481.00    2.22886   2.13627   22.066
 5482.00    2.22432   2.13060   22.207
 5483.00    2.25115   2.14963   -1.000
 5484.00    2.31009   2.19504   -1.000
 5485.00    2.35449   2.23822   -1.000
 5486.00    2.33576   2.25155   21.626
 5487.00    2.28141   2.23341   21.425
 5488.00    2.25642   2.20636   21.614
 5489.00    2.26338   2.19484   21.924
 5490.00    2.28334   2.20516   22.061
 5491.00    2.31646   2.22446   22.071
 5492.00    2.32994   2.23729   21.922
 5493.00    2.32770   2.23950   21.762
 5494.00    2.33288   2.23647   21.677
 5495.00    2.34172   2.23272   -1.000
 5496.00    2.32819   2.22759   -1.000
 5497.00    2.30517   2.22251   21.728
 5498.00    2.31821   2.22436   21.878
 5499.00    2.35643   2.23352   -1.000
 5500.00    2.35803   2.23680   -1.000
 5501.00    2.31487   2.22229   21.686
 5502.00    2.29116   2.19627   21.835
 5503.00    2.29315   2.17637   -1.000
 5504.00    2.30521   2.16842   -1.000
 5505.00    2.29625   2.16214   -1.000
 5506.00    2.26204   2.15260   -1.000
 5507.00    2.25272   2.15094   -1.000
 5508.00    2.28519   2.16780   -1.000
 5509.00    2.30534   2.19341   -1.000
 5510.00    2.30156   2.20302   -1.000
 5511.00    2.26927   2.18298   21.871
 5512.00    2.22475   2.14450   22.004
 5513.00    2.20676   2.11189   22.422
 5514.00    2.21786   2.10281   -1.000
 5515.00    2.26000   2.11908   -1.000
 5516.00    2.31090   2.15298   -1.000
 5517.00    2.36028   2.19677   -1.000
 5518.00    2.39549   2.24394   -1.000
 5519.00    2.41391   2.28520   -1.000
 5520.00    2.43098   2.31051   -1.000
 5521.00    2.42729   2.31772   -1.000
 5522.00    2.41942   2.31513   -1.000
 5523.00    2.40794   2.31062   21.257
 5524.00    2.38913   2.30185   21.330
 5525.00    2.36098   2.27870   21.369
 5526.00    2.31765   2.23480   21.491
 5527.00    2.24794   2.17875   21.774
 5528.00    2.22033   2.13555   22.265
 5529.00    2.24808   2.13138   -1.000
 5530.00    2.31155   2.16851   -1.000
 5531.00    2.35133   2.22036   -1.000
 5532.00    2.35978   2.25561   -1.000
 5533.00    2.36018   2.26353   21.639
 5534.00    2.35372   2.25432   -1.000
 5535.00    2.34312   2.24292   -1.000
 5536.00    2.34733   2.23853   -1.000
 5537.00    2.36752   2.24419   -1.000
 5538.00    2.36728   2.25902   -1.000
 5539.00    2.38725   2.28036   -1.000
 5540.00    2.42960   2.30355   -1.000
 5541.00    2.43373   2.31987   -1.000
 5542.00    2.42960   2.32093   -1.000
 5543.00    2.39568   2.30796   21.204
 5544.00    2.38890   2.29205   21.410
 5545.00    2.39393   2.28393   -1.000
 5546.00    2.39129   2.28736   -1.000
 5547.00    2.41092   2.30228   -1.000
 5548.00    2.43608   2.32696   -1.000
 5549.00    2.46317   2.35430   -1.000
 5550.00    2.48120   2.37327   -1.000
 5551.00    2.47408   2.37635   21.073
 5552.00    2.45379   2.36314   21.015
 5553.00    2.42467   2.33965   21.117
 5554.00    2.40255   2.31664   21.298
 5555.00    2.40829   2.30359   -1.000
 5556.00    2.41687   2.30171   -1.000
 5557.00    2.41750   2.30486   -1.000
 5558.00    2.42060   2.30749   -1.000
 5559.00    2.42168   2.30867   -1.000
 5560.00    2.42107   2.30711   -1.000
 5561.00    2.40556   2.29860   -1.000
 5562.00    2.39672   2.28265   -1.000
 5563.00    2.38139   2.26578   -1.000
 5564.00    2.34199   2.25398   21.835
 5565.00    2.34104   2.24619   21.994
 5566.00    2.35181   2.23840   -1.000
 5567.00    2.35171   2.23060   -1.000
 5568.00    2.36429   2.22660   -1.000
 5569.00    2.37061   2.22868   -1.000
 5570.00    2.37459   2.23467   -1.000
 5571.00    2.37609   2.23944   -1.000
 5572.00    2.36469   2.23932   -1.000
 5573.00    2.35908   2.23754   -1.000
 5574.00    2.37744   2.24355   -1.000
 5575.00    2.38504   2.26162   -1.000
 5576.00    2.29318   2.28288   21.843
 5577.00    1.89914   2.29750   -1.000
 5578.00    1.19255   2.30708   -1.000
 5579.00    0.92074   2.31629   -1.000
 5580.00    1.28278   2.32303   -1.000
 5581.00    1.99142   2.32259   -1.000
 5582.00    2.46944   2.31403   -1.000
 5583.00    2.47579   2.29934   -1.000
 5584.00    2.41448   2.27592   -1.000
 5585.00    2.36042   2.23498   -1.000
 5586.00    2.28920   2.17424   -1.000
 5587.00    2.22549   2.10883   -1.000
 5588.00    2.20081   2.06447   -1.000
 5589.00    2.21698   2.05787   -1.000
 5590.00    2.26363   2.08439   -1.000
 5591.00    2.30288   2.12451   -1.000
 5592.00    2.30686   2.15915   -1.000
 5593.00    2.30588   2.18268   -1.000
 5594.00    2.33116   2.20372   -1.000
 5595.00    2.35217   2.23129   -1.000
 5596.00    2.38663   2.25936   -1.000
 5597.00    2.38123   2.26941   -1.000
 5598.00    2.34143   2.25068   22.009
 5599.00    2.32184   2.21220   -1.000
 5600.00    2.29991   2.17276   -1.000
 5601.00    2.27917   2.14563   -1.000
 5602.00    2.28322   2.13841   -1.000
 5603.00    2.30759   2.15983   -1.000
 5604.00    2.34972   2.21268   -1.000
 5605.00    2.42176   2.28241   -1.000
 5606.00    2.47818   2.34445   -1.000
 5607.00    2.49352   2.38280   -1.000
 5608.00    2.49770   2.39761   -1.000
 5609.00    2.50180   2.39974   -1.000
 5610.00    2.50088   2.40097   -1.000
 5611.00    2.49779   2.40435   21.325
 5612.00    2.49671   2.39837   -1.000
 5613.00    2.45082   2.36359   21.246
 5614.00    2.37194   2.29333   21.330
 5615.00    2.28907   2.21092   21.742
 5616.00    2.27723   2.15802   -1.000
 5617.00    2.32027   2.15821   -1.000
 5618.00    2.37453   2.19630   -1.000
 5619.00    2.38239   2.23871   -1.000
 5620.00    2.39449   2.26847   -1.000
 5621.00    2.40762   2.28711   -1.000
 5622.00    2.42021   2.29098   -1.000
 5623.00    2.38393   2.27045   -1.000
 5624.00    2.32270   2.23134   21.846
 5625.00    2.31376   2.19957   -1.000
 5626.00    2.35317   2.19983   -1.000
 5627.00    2.39221   2.23270   -1.000
 5628.00    2.42875   2.27900   -1.000
 5629.00    2.46278   2.32120   -1.000
 5630.00    2.48815   2.35128   -1.000
 5631.00    2.49529   2.36614   -1.000
 5632.00    2.50234   2.36560   -1.000
 5633.00    2.48210   2.35269   -1.000
 5634.00    2.45973   2.33170   -1.000
 5635.00    2.42612   2.30670   -1.000
 5636.00    2.40016   2.28257   -1.000
 5637.00    2.39096   2.26526   -1.000
 5638.00    2.39426   2.25828   -1.000
 5639.00    2.39443   2.25863   -1.000
 5640.00    2.39346   2.25832   -1.000
 5641.00    2.38592   2.25303   -1.000
 5642.00    2.38621   2.24821   -1.000
 5643.00    2.39576   2.25232   -1.000
 5644.00    2.40796   2.26576   -1.000
 5645.00    2.41652   2.28221   -1.000
 5646.00    2.43451   2.29643   -1.000
 5647.00    2.45079   2.30535   -1.000
 5648.00    2.45994   2.30737   -1.000
 5649.00    2.45873   2.30524   -1.000
 5650.00    2.45847   2.30633   -1.000
 5651.00    2.46986   2.31561   -1.000
 5652.00    2.47182   2.32759   -1.000
 5653.00    2.47166   2.32995   -1.000
 5654.00    2.45326   2.31771   -1.000
 5655.00    2.42132   2.29614   -1.000
 5656.00    2.39943   2.26828   -1.000
 5657.00    2.33966   2.23134   -1.000
 5658.00    2.27361   2.19009   22.339
 5659.00    2.27985   2.16390   -1.000
 5660.00    2.34300   2.16814   -1.000
 5661.00    2.37497   2.19268   -1.000
 5662.00    2.36636   2.21658   -1.000
 5663.00    2.38087   2.23689   -1.000
 5664.00    2.42541   2.26200   -1.000
 5665.00    2.45189   2.28833   -1.000
 5666.00    2.45350   2.30259   -1.000
 5667.00    2.43228   2.29991   -1.000
 5668.00    2.40153   2.29003   -1.000
 5669.00    2.40595   2.28639   -1.000
 5670.00    2.42231   2.29486   -1.000
 5671.00    2.44655   2.31498   -1.000
 5672.00    2.47095   2.34356   -1.000
 5673.00    2.50545   2.37280   -1.000
 5674.00    2.51403   2.39296   -1.000
 5675.00    2.51332   2.40094   -1.000
 5676.00    2.52554   2.40178   -1.000
 5677.00    2.52016   2.40084   -1.000
 5678.00    2.51261   2.39682   -1.000
 5679.00    2.49469   2.38501   -1.000
 5680.00    2.49111   2.36429   -1.000
 5681.00    2.46853   2.33713   -1.000
 5682.00    2.42298   2.30860   -1.000
 5683.00    2.40703   2.28861   -1.000
 5684.00    2.43070   2.28511   -1.000
 5685.00    2.43759   2.29180   -1.000
 5686.00    2.42337   2.29382   -1.000
 5687.00    2.39161   2.28667   -1.000
 5688.00    2.38451   2.28124   -1.000
 5689.00    2.41648   2.29085   -1.000
 5690.00    2.46628   2.31805   -1.000
 5691.00    2.51100   2.35341   -1.000
 5692.00    2.53670   2.38408   -1.000
 5693.00    2.54394   2.40185   -1.000
 5694.00    2.54198   2.40596   -1.000
 5695.00    2.52715   2.40076   -1.000
 5696.00    2.51379   2.38979   -1.000
 5697.00    2.49074   2.37277   -1.000
 5698.00    2.46545   2.34910   -1.000
 5699.00    2.43211   2.32168   -1.000
 5700.00    2.39623   2.29523   -1.000
 5701.00    2.38591   2.27501   -1.000
 5702.00    2.38878   2.26797   -1.000
 5703.00    2.39951   2.27650   -1.000
 5704.00    2.41382   2.28998   -1.000
 5705.00    2.40934   2.29085   -1.000
 5706.00    2.36212   2.26984   -1.000
 5707.00    2.30876   2.23326   22.168
 5708.00    2.28257   2.19613   22.467
 5709.00    2.28556   2.17034   -1.000
 5710.00    2.28322   2.16204   -1.000
 5711.00    2.29861   2.17429   -1.000
 5712.00    2.34724   2.20734   -1.000
 5713.00    2.40565   2.25622   -1.000
 5714.00    2.46813   2.30862   -1.000
 5715.00    2.50162   2.35086   -1.000
 5716.00    2.51582   2.37833   -1.000
 5717.00    2.53417   2.39531   -1.000
 5718.00    2.54617   2.40815   -1.000
 5719.00    2.55180   2.42203   -1.000
 5720.00    2.56383   2.43937   -1.000
 5721.00    2.56950   2.45857   -1.000
 5722.00    2.58041   2.47561   -1.000
 5723.00    2.59200   2.48587   -1.000
 5724.00    2.59133   2.48447   -1.000
 5725.00    2.57881   2.46841   -1.000
 5726.00    2.53744   2.44212   -1.000
 5727.00    2.50896   2.41899   21.305
 5728.00    2.52084   2.41146   -1.000
 5729.00    2.54548   2.41733   -1.000
 5730.00    2.54287   2.42231   -1.000
 5731.00    2.53743   2.41913   -1.000
 5732.00    2.53445   2.41683   -1.000
 5733.00    2.57039   2.42758   -1.000
 5734.00    2.59988   2.44908   -1.000
 5735.00    2.58789   2.46616   -1.000
 5736.00    2.58085   2.46865   -1.000
 5737.00    2.56750   2.46034   -1.000
 5738.00    2.55545   2.45162   -1.000
 5739.00    2.55264   2.44833   -1.000
 5740.00    2.54806   2.44827   -1.000
 5741.00    2.55163   2.44705   -1.000
 5742.00    2.55994   2.44506   -1.000
 5743.00    2.56452   2.44794   -1.000
 5744.00    2.58183   2.45922   -1.000
 5745.00    2.57901   2.47236   -1.000
 5746.00    2.57478   2.47444   -1.000
 5747.00    2.55928   2.46088   -1.000
 5748.00    2.53667   2.44395   21.225
 5749.00    2.54968   2.43943   -1.000
 5750.00    2.56974   2.44526   -1.000
 5751.00    2.55486   2.44213   -1.000
 5752.00    2.50786   2.41668   21.350
 5753.00    2.47132   2.38035   21.489
 5754.00    2.47166   2.36134   -1.000
 5755.00    2.51727   2.37805   -1.000
 5756.00    2.56683   2.42247   -1.000
 5757.00    2.60608   2.46727   -1.000
 5758.00    2.60599   2.48772   -1.000
 5759.00    2.57224   2.47546   -1.000
 5760.00    2.55070   2.43785   -1.000
 5761.00    2.51222   2.39274   -1.000
 5762.00    2.47875   2.36258   -1.000
 5763.00    2.48785   2.36512   -1.000
 5764.00    2.53646   2.40188   -1.000
 5765.00    2.59050   2.45410   -1.000
 5766.00    2.62638   2.49709   -1.000
 5767.00    2.60900   2.51945   21.180
 5768.00    2.61383   2.52443   21.090
 5769.00    2.61261   2.51902   -1.000
 5770.00    2.60414   2.50826   -1.000
 5771.00    2.57981   2.49492   21.064
 5772.00    2.55820   2.48049   21.132
 5773.00    2.55415   2.46711   21.243
 5774.00    2.53838   2.45849   21.374
 5775.00    2.54805   2.45793   -1.000
 5776.00    2.55931   2.46459   -1.000
 5777.00    2.56957   2.46974   -1.000
 5778.00    2.54849   2.45944   21.333
 5779.00    2.49421   2.42452   21.298
 5780.00    2.39840   2.36932   21.355
 5781.00    2.32020   2.31156   21.631
 5782.00    2.28662   2.27126   22.101
 5783.00    2.28908   2.25554   22.425
 5784.00    2.31977   2.25642   22.431
 5785.00    2.35662   2.26723   -1.000
 5786.00    2.41651   2.29207   -1.000
 5787.00    2.50318   2.33224   -1.000
 5788.00    2.54894   2.37524   -1.000
 5789.00    2.55501   2.40456   -1.000
 5790.00    2.53754   2.41500   -1.000
 5791.00    2.53373   2.41685   -1.000
 5792.00    2.55294   2.42643   -1.000
 5793.00    2.58350   2.45138   -1.000
 5794.00    2.60738   2.48310   -1.000
 5795.00    2.60129   2.50402   -1.000
 5796.00    2.57940   2.50325   21.118
 5797.00    2.55173   2.48734   21.085
 5798.00    2.53841   2.47704   21.192
 5799.00    2.57966   2.48972   21.329
 5800.00    2.64044   2.52287   -1.000
 5801.00    2.67471   2.55574   -1.000
 5802.00    2.65955   2.56777   -1.000
 5803.00    2.62466   2.55399   20.640
 5804.00    2.60841   2.52529   20.782
 5805.00    2.59476   2.49893   -1.000
 5806.00    2.60320   2.48686   -1.000
 5807.00    2.62038   2.48964   -1.000
 5808.00    2.63059   2.50070   -1.000
 5809.00    2.63080   2.51394   -1.000
 5810.00    2.64014   2.52606   -1.000
 5811.00    2.64362   2.53393   -1.000
 5812.00    2.63796   2.53357   -1.000
 5813.00    2.63987   2.52210   -1.000
 5814.00    2.61705   2.50026   -1.000
 5815.00    2.59718   2.47527   -1.000
 5816.00    2.59146   2.46114   -1.000
 5817.00    2.59961   2.47014   -1.000
 5818.00    2.63363   2.50048   -1.000
 5819.00    2.66644   2.53587   -1.000
 5820.00    2.68603   2.55886   -1.000
 5821.00    2.69496   2.56363   -1.000
 5822.00    2.69655   2.55656   -1.000
 5823.00    2.67970   2.54822   -1.000
 5824.00    2.68717   2.54544   -1.000
 5825.00    2.69019   2.54840   -1.000
 5826.00    2.68854   2.55382   -1.000
 5827.00    2.69408   2.55928   -1.000
 5828.00    2.69680   2.56463   -1.000
 5829.00    2.70435   2.56996   -1.000
 5830.00    2.71173   2.57352   -1.000
 5831.00    2.69976   2.57287   -1.000
 5832.00    2.69030   2.56699   -1.000
 5833.00    2.68831   2.55660   -1.000
 5834.00    2.68482   2.54458   -1.000
 5835.00    2.68200   2.53568   -1.000
 5836.00    2.68437   2.53273   -1.000
 5837.00    2.67790   2.53372   -1.000
 5838.00    2.67471   2.53654   -1.000
 5839.00    2.67519   2.54389   -1.000
 5840.00    2.67352   2.55851   -1.000
 5841.00    2.70045   2.57670   -1.000
 5842.00    2.71338   2.58966   -1.000
 5843.00    2.71241   2.59025   -1.000
 5844.00    2.69639   2.57750   -1.000
 5845.00    2.66559   2.55540   -1.000
 5846.00    2.63267   2.53027   -1.000
 5847.00    2.62806   2.50915   -1.000
 5848.00    2.63527   2.49722   -1.000
 5849.00    2.63538   2.49344   -1.000
 5850.00    2.62453   2.48968   -1.000
 5851.00    2.60216   2.47734   -1.000
 5852.00    2.57825   2.45640   -1.000
 5853.00    2.55869   2.43552   -1.000
 5854.00    2.56242   2.42131   -1.000
 5855.00    2.56931   2.40884   -1.000
 5856.00    2.54741   2.38759   -1.000
 5857.00    2.51539   2.35914   -1.000
 5858.00    2.50798   2.34159   -1.000
 5859.00    2.54413   2.35124   -1.000
 5860.00    2.58292   2.38377   -1.000
 5861.00    2.58965   2.41872   -1.000
 5862.00    2.59787   2.44078   -1.000
 5863.00    2.62309   2.44963   -1.000
 5864.00    2.62011   2.45126   -1.000
 5865.00    2.60656   2.44789   -1.000
 5866.00    2.59534   2.44068   -1.000
 5867.00    2.58324   2.43770   -1.000
 5868.00    2.61176   2.44904   -1.000
 5869.00    2.64396   2.47315   -1.000
 5870.00    2.68953   2.49694   -1.000
 5871.00    2.68289   2.50894   -1.000
 5872.00    2.66290   2.50799   -1.000
 5873.00    2.65853   2.50120   -1.000
 5874.00    2.66420   2.49589   -1.000
 5875.00    2.66295   2.49264   -1.000
 5876.00    2.66177   2.48580   -1.000
 5877.00    2.64240   2.47054   -1.000
 5878.00    2.62111   2.44819   -1.000
 5879.00    2.60041   2.42512   -1.000
 5880.00    2.59419   2.40885   -1.000
 5881.00    2.59758   2.40332   -1.000
 5882.00    2.60060   2.40487   -1.000
 5883.00    2.59787   2.40501   -1.000
 5884.00    2.59284   2.39873   -1.000
 5885.00    2.58837   2.38261   -1.000
 5886.00    2.53552   2.34163   -1.000
 5887.00    2.40063   2.24973   -1.000
 5888.00    2.14280   2.09647   21.877
 5889.00    1.74130   1.91586   -1.000
 5890.00    1.36209   1.78132   -1.000
 5891.00    1.17402   1.75244   -1.000
 5892.00    1.35204   1.81893   -1.000
 5893.00    1.73593   1.90532   -1.000
 5894.00    1.95300   1.94005   24.680
 5895.00    1.86074   1.91702   24.093
 5896.00    1.62696   1.89368   -1.000
 5897.00    1.53863   1.93019   -1.000
 5898.00    1.73838   2.03017   -1.000
 5899.00    2.07769   2.15043   24.341
 5900.00    2.35767   2.25238   -1.000
 5901.00    2.51307   2.32429   -1.000
 5902.00    2.56528   2.36949   -1.000
 5903.00    2.58334   2.39417   -1.000
 5904.00    2.59305   2.40454   -1.000
 5905.00    2.58257   2.40715   -1.000
 5906.00    2.58218   2.40922   -1.000
 5907.00    2.59985   2.41620   -1.000
 5908.00    2.60562   2.42825   -1.000
 5909.00    2.60709   2.44167   -1.000
 5910.00    2.60943   2.45236   -1.000
 5911.00    2.60927   2.45527   -1.000
 5912.00    2.59654   2.44425   -1.000
 5913.00    2.55935   2.41776   -1.000
 5914.00    2.52685   2.38504   -1.000
 5915.00    2.51575   2.36269   -1.000
 5916.00    2.53386   2.36175   -1.000
 5917.00    2.57416   2.38022   -1.000
 5918.00    2.60197   2.40777   -1.000
 5919.00    2.61853   2.43292   -1.000
 5920.00    2.61867   2.44790   -1.000
 5921.00    2.60320   2.45127   -1.000
 5922.00    2.60378   2.44809   -1.000
 5923.00    2.60916   2.44700   -1.000
 5924.00    2.62160   2.45387   -1.000
 5925.00    2.62945   2.46642   -1.000
 5926.00    2.63002   2.47547   -1.000
 5927.00    2.62575   2.47193   -1.000
 5928.00    2.60520   2.45464   -1.000
 5929.00    2.59291   2.43345   -1.000
 5930.00    2.58729   2.42272   -1.000
 5931.00    2.60822   2.42863   -1.000
 5932.00    2.63970   2.44214   -1.000
 5933.00    2.63587   2.44865   -1.000
 5934.00    2.63022   2.44503   -1.000
 5935.00    2.61299   2.44281   -1.000
 5936.00    2.61941   2.45300   -1.000
 5937.00    2.65080   2.47190   -1.000
 5938.00    2.65277   2.48602   -1.000
 5939.00    2.63904   2.48604   -1.000
 5940.00    2.62414   2.47211   -1.000
 5941.00    2.61327   2.45258   -1.000
 5942.00    2.60232   2.44030   -1.000
 5943.00    2.61787   2.44403   -1.000
 5944.00    2.64026   2.46083   -1.000
 5945.00    2.64318   2.47859   -1.000
 5946.00    2.63409   2.48502   -1.000
 5947.00    2.62967   2.47568   -1.000
 5948.00    2.62201   2.45744   -1.000
 5949.00    2.60394   2.44378   -1.000
 5950.00    2.59012   2.44160   -1.000
 5951.00    2.60577   2.44458   -1.000
 5952.00    2.59163   2.44382   -1.000
 5953.00    2.56991   2.43990   -1.000
 5954.00    2.58905   2.43892   -1.000
 5955.00    2.60143   2.44044   -1.000
 5956.00    2.60440   2.43825   -1.000
 5957.00    2.60270   2.43350   -1.000
 5958.00    2.60219   2.43661   -1.000
 5959.00    2.60900   2.45420   -1.000
 5960.00    2.63518   2.48123   -1.000
 5961.00    2.66738   2.50623   -1.000
 5962.00    2.66880   2.52020   -1.000
 5963.00    2.66386   2.52087   -1.000
 5964.00    2.66401   2.51160   -1.000
 5965.00    2.64973   2.49945   -1.000
 5966.00    2.64946   2.49317   -1.000
 5967.00    2.65941   2.49806   -1.000
 5968.00    2.67073   2.51169   -1.000
 5969.00    2.68197   2.52761   -1.000
 5970.00    2.68472   2.54126   -1.000
 5971.00    2.68051   2.55020   -1.000
 5972.00    2.67265   2.55204   -1.000
 5973.00    2.66556   2.54429   -1.000
 5974.00    2.65128   2.52544   -1.000
 5975.00    2.62741   2.49740   -1.000
 5976.00    2.61196   2.46814   -1.000
 5977.00    2.60029   2.44888   -1.000
 5978.00    2.59526   2.44697   -1.000
 5979.00    2.62562   2.46107   -1.000
 5980.00    2.65756   2.48052   -1.000
 5981.00    2.66039   2.48957   -1.000
 5982.00    2.62732   2.47741   -1.000
 5983.00    2.59004   2.44832   -1.000
 5984.00    2.58638   2.42107   -1.000
 5985.00    2.59029   2.41442   -1.000
 5986.00    2.60194   2.43104   -1.000
 5987.00    2.63297   2.45794   -1.000
 5988.00    2.65071   2.48193   -1.000
 5989.00    2.65984   2.49812   -1.000
 5990.00    2.66216   2.50705   -1.000
 5991.00    2.65574   2.51298   -1.000
 5992.00    2.65289   2.52264   -1.000
 5993.00    2.67172   2.53837   -1.000
 5994.00    2.68688   2.55218   -1.000
 5995.00    2.68232   2.55161   -1.000
 5996.00    2.65498   2.53291   -1.000
 5997.00    2.63852   2.50639   -1.000
 5998.00    2.64202   2.48783   -1.000
 5999.00    2.63665   2.48501   -1.000
 6000.00    2.63075   2.49231   -1.000
 6001.00    2.63787   2.49826   -1.000
 6002.00    2.63230   2.49734   -1.000
 6003.00    2.61611   2.49343   -1.000
 6004.00    2.63193   2.49121   -1.000
 6005.00    2.62812   2.48607   -1.000
 6006.00    2.61107   2.46991   -1.000
 6007.00    2.58128   2.44660   -1.000
 6008.00    2.56586   2.43360   -1.000
 6009.00    2.57639   2.44422   -1.000
 6010.00    2.59165   2.47022   -1.000
 6011.00    2.60032   2.48884   -1.000
 6012.00    2.58444   2.48749   -1.000
 6013.00    2.58882   2.47419   -1.000
 6014.00    2.60408   2.46392   -1.000
 6015.00    2.60188   2.46150   -1.000
 6016.00    2.59959   2.46164   -1.000
 6017.00    2.60193   2.46048   -1.000
 6018.00    2.59855   2.45767   -1.000
 6019.00    2.58942   2.45180   -1.000
 6020.00    2.58252   2.44398   -1.000
 6021.00    2.58262   2.44093   -1.000
 6022.00    2.58989   2.44800   -1.000
 6023.00    2.61729   2.46411   -1.000
 6024.00    2.64544   2.48491   -1.000
 6025.00    2.64498   2.50655   -1.000
 6026.00    2.65775   2.52656   -1.000
 6027.00    2.68446   2.54438   -1.000
 6028.00    2.69292   2.56093   -1.000
 6029.00    2.69758   2.57591   -1.000
 6030.00    2.70023   2.58758   -1.000
 6031.00    2.71087   2.59657   -1.000
 6032.00    2.72711   2.60657   -1.000
 6033.00    2.73721   2.62080   -1.000
 6034.00    2.73697   2.63775   -1.000
 6035.00    2.73009   2.65048   -1.000
 6036.00    2.71682   2.65237   21.438
 6037.00    2.71412   2.64306   21.420
 6038.00    2.70796   2.62742   -1.000
 6039.00    2.68150   2.61158   21.395
 6040.00    2.66537   2.60117   21.496
 6041.00    2.67606   2.60029   21.563
 6042.00    2.70574   2.60939   -1.000
 6043.00    2.71918   2.62423   -1.000
 6044.00    2.71443   2.63836   21.567
 6045.00    2.72563   2.64782   -1.000
 6046.00    2.74121   2.65320   -1.000
 6047.00    2.73184   2.65653   21.282
 6048.00    2.71585   2.65869   21.297
 6049.00    2.71934   2.65970   21.271
 6050.00    2.73020   2.65831   21.276
 6051.00    2.73657   2.65162   -1.000
 6052.00    2.72660   2.63726   -1.000
 6053.00    2.70833   2.61663   -1.000
 6054.00    2.70257   2.59426   -1.000
 6055.00    2.70014   2.57522   -1.000
 6056.00    2.69165   2.56463   -1.000
 6057.00    2.69418   2.56633   -1.000
 6058.00    2.71200   2.57910   -1.000
 6059.00    2.71956   2.59560   -1.000
 6060.00    2.73021   2.60617   -1.000
 6061.00    2.73498   2.60365   -1.000
 6062.00    2.70067   2.58630   -1.000
 6063.00    2.67247   2.55881   -1.000
 6064.00    2.64986   2.53253   -1.000
 6065.00    2.64322   2.52258   -1.000
 6066.00    2.66944   2.53885   -1.000
 6067.00    2.62294   2.57637   -1.000
 6068.00    2.30712   2.61802    9.246
 6069.00    2.38234   2.64925   12.044
 6070.00    2.67170   2.66747   22.815
 6071.00    2.76211   2.67719   -1.000
 6072.00    2.80555   2.68159   -1.000
 6073.00    2.56765   2.68092   20.813
 6074.00    1.24318   2.67443   -1.000
 6075.00    1.76366   2.66107   -1.000
 6076.00    2.67649   2.64043   21.377
 6077.00    2.72679   2.61490   -1.000
 6078.00    2.67465   2.59001   -1.000
 6079.00    2.65518   2.57079   -1.000
 6080.00    2.63571   2.55755   -1.000
 6081.00    2.63520   2.54772   -1.000
 6082.00    2.65294   2.54115   -1.000
 6083.00    2.65597   2.54017   -1.000
 6084.00    2.66004   2.54499   -1.000
 6085.00    2.65926   2.55347   -1.000
 6086.00    2.66703   2.56336   -1.000
 6087.00    2.66789   2.57110   -1.000
 6088.00    2.66823   2.57133   -1.000
 6089.00    2.65511   2.56151   -1.000
 6090.00    2.63542   2.54656   -1.000
 6091.00    2.63752   2.53654   -1.000
 6092.00    2.65136   2.53887   -1.000
 6093.00    2.66453   2.55371   -1.000
 6094.00    2.69668   2.57496   -1.000
 6095.00    2.72738   2.59419   -1.000
 6096.00    2.72844   2.60627   -1.000
 6097.00    2.71588   2.61278   -1.000
 6098.00    2.71154   2.61606   -1.000
 6099.00    2.69604   2.61009   -1.000
 6100.00    2.66539   2.58333   -1.000
 6101.00    2.61262   2.53455   -1.000
 6102.00    2.56180   2.48362   -1.000
 6103.00    2.55166   2.46039   -1.000
 6104.00    2.59320   2.47760   -1.000
 6105.00    2.65640   2.51978   -1.000
 6106.00    2.69632   2.56132   -1.000
 6107.00    2.70039   2.58938   -1.000
 6108.00    2.68393   2.60619   -1.000
 6109.00    2.69221   2.61635   -1.000
 6110.00    2.70958   2.62099   -1.000
 6111.00    2.69636   2.62290   -1.000
 6112.00    2.68156   2.62779   22.005
 6113.00    2.70519   2.63715   21.921
 6114.00    2.72128   2.64486   -1.000
 6115.00    2.70637   2.64417   21.809
 6116.00    2.68923   2.63526   21.732
 6117.00    2.67043   2.62177   21.779
 6118.00    2.65870   2.60209   21.911
 6119.00    2.64381   2.57012   -1.000
 6120.00    2.60606   2.52606   -1.000
 6121.00    2.56749   2.48371   -1.000
 6122.00    2.56816   2.46403   -1.000
 6123.00    2.60371   2.47755   -1.000
 6124.00    2.64166   2.51282   -1.000
 6125.00    2.66236   2.54609   -1.000
 6126.00    2.65250   2.56261   -1.000
 6127.00    2.63514   2.56570   22.257
 6128.00    2.63625   2.56890   22.358
 6129.00    2.64563   2.58317   22.382
 6130.00    2.67307   2.60821   22.332
 6131.00    2.69767   2.63265   22.190
 6132.00    2.70066   2.64066   21.982
 6133.00    2.68396   2.61866   21.887
 6134.00    2.62915   2.56143   21.909
 6135.00    2.55065   2.48036   22.069
 6136.00    2.47714   2.40674   22.487
 6137.00    2.46594   2.37672   -1.000
 6138.00    2.51534   2.40327   -1.000
 6139.00    2.56926   2.46360   -1.000
 6140.00    2.60651   2.52028   -1.000
 6141.00    2.62491   2.55495   -1.000
 6142.00    2.64177   2.57680   22.502
 6143.00    2.65929   2.60000   22.469
 6144.00    2.67886   2.62413   22.518
 6145.00    2.68078   2.63854   22.370
 6146.00    2.68053   2.63608   22.103
 6147.00    2.67932   2.61856   21.997
 6148.00    2.65841   2.59406   22.067
 6149.00    2.62378   2.57263   22.200
 6150.00    2.62638   2.56224   22.357
 6151.00    2.63741   2.56427   -1.000
 6152.00    2.65920   2.57140   -1.000
 6153.00    2.65014   2.57284   -1.000
 6154.00    2.62058   2.56393   22.339
 6155.00    2.60830   2.54956   22.268
 6156.00    2.60918   2.53622   -1.000
 6157.00    2.59788   2.52177   -1.000
 6158.00    2.56335   2.49459   22.587
 6159.00    2.52998   2.44236   -1.000
 6160.00    2.46738   2.36494   -1.000
 6161.00    2.36988   2.28281   -1.000
 6162.00    2.31447   2.22910   -1.000
 6163.00    2.33467   2.22617   -1.000
 6164.00    2.40431   2.26827   -1.000
 6165.00    2.46411   2.32786   -1.000
 6166.00    2.49283   2.37477   -1.000
 6167.00    2.47962   2.39127   -1.000
 6168.00    2.43402   2.37906   23.510
 6169.00    2.40838   2.35891   23.530
 6170.00    2.42461   2.35665   -1.000
 6171.00    2.46782   2.38193   -1.000
 6172.00    2.51138   2.42150   -1.000
 6173.00    2.52689   2.45533   -1.000
 6174.00    2.52150   2.47448   23.215
 6175.00    2.53047   2.48239   23.135
 6176.00    2.54440   2.48689   23.170
 6177.00    2.54373   2.49420   23.134
 6178.00    2.54873   2.50596   23.083
 6179.00    2.56033   2.51976   23.028
 6180.00    2.57277   2.53335   22.929
 6181.00    2.57674   2.54595   22.834
 6182.00    2.58085   2.55485   22.760
 6183.00    2.58746   2.55495   22.664
 6184.00    2.58126   2.54290   22.590
 6185.00    2.55733   2.51997   22.605
 6186.00    2.52459   2.49123   22.679
 6187.00    2.50093   2.46227   22.828
 6188.00    2.47728   2.43484   23.062
 6189.00    2.46079   2.40664   23.308
 6190.00    2.44802   2.37921   -1.000
 6191.00    2.43503   2.36433   -1.000
 6192.00    2.45250   2.37550   -1.000
 6193.00    2.49978   2.41249   -1.000
 6194.00    2.54535   2.45962   -1.000
 6195.00    2.56637   2.49864   -1.000
 6196.00    2.58402   2.51911   -1.000
 6197.00    2.58200   2.51904   22.874
 6198.00    2.54830   2.50395   22.815
 6199.00    2.52116   2.48732   22.909
 6200.00    2.51322   2.48439   23.147
 6201.00    2.53620   2.50019   23.368
 6202.00    2.56225   2.52632   23.409
 6203.00    2.56315   2.55056   23.231
 6204.00    2.56603   2.56678   22.947
 6205.00    2.57313   2.57606   22.808
 6206.00    2.57531   2.58145   22.801
 6207.00    2.58235   2.58365   22.777
 6208.00    2.58248   2.58067   22.761
 6209.00    2.57547   2.56975   22.823
 6210.00    2.56644   2.54866   22.856
 6211.00    2.54501   2.51576   22.917
 6212.00    2.50910   2.47193   23.099
 6213.00    2.46844   2.42442   23.294
 6214.00    2.43149   2.38641   23.505
 6215.00    2.42491   2.36893   23.825
 6216.00    2.44840   2.37199   -1.000
 6217.00    2.46974   2.38396   -1.000
 6218.00    2.47424   2.39131   -1.000
 6219.00    2.46598   2.39044   -1.000
 6220.00    2.46545   2.38919   -1.000
 6221.00    2.46978   2.39563   -1.000
 6222.00    2.49339   2.40890   -1.000
 6223.00    2.52421   2.42262   -1.000
 6224.00    2.52603   2.43302   -1.000
 6225.00    2.49189   2.44009   25.197
 6226.00    2.46942   2.44205   23.977
 6227.00    2.49918   2.43247   -1.000
 6228.00    2.49507   2.40519   -1.000
 6229.00    2.43923   2.36342   -1.000
 6230.00    2.39148   2.32357   -1.000
 6231.00    2.39406   2.30682   -1.000
 6232.00    2.43457   2.32435   -1.000
 6233.00    2.47598   2.36988   -1.000
 6234.00    2.51929   2.42389   -1.000
 6235.00    2.55701   2.46417   -1.000
 6236.00    2.56973   2.47716   -1.000
 6237.00    2.55327   2.46355   -1.000
 6238.00    2.52694   2.43480   -1.000
 6239.00    2.48988   2.40444   -1.000
 6240.00    2.46767   2.38073   -1.000
 6241.00    2.45817   2.36400   -1.000
 6242.00    2.43439   2.35047   -1.000
 6243.00    2.42640   2.33915   -1.000
 6244.00    2.43123   2.33438   -1.000
 6245.00    2.42951   2.34201   -1.000
 6246.00    2.44782   2.36457   -1.000
 6247.00    2.48951   2.39825   -1.000
 6248.00    2.52519   2.43196   -1.000
 6249.00    2.53469   2.45135   -1.000
 6250.00    2.51555   2.44690   -1.000
 6251.00    2.47850   2.42027   23.688
 6252.00    2.43205   2.38395   23.833
 6253.00    2.40314   2.35264   24.209
 6254.00    2.40298   2.33245   -1.000
 6255.00    2.40462   2.31853   -1.000
 6256.00    2.39164   2.30447   -1.000
 6257.00    2.36760   2.29300   -1.000
 6258.00    2.36803   2.29502   -1.000
 6259.00    2.40116   2.31869   -1.000
 6260.00    2.44556   2.36138   -1.000
 6261.00    2.50132   2.41110   -1.000
 6262.00    2.53977   2.45337   -1.000
 6263.00    2.54666   2.47814   -1.000
 6264.00    2.53437   2.48464   23.886
 6265.00    2.52566   2.48146   23.673
 6266.00    2.52929   2.47903   23.763
 6267.00    2.53223   2.48056   23.947
 6268.00    2.54145   2.48248   -1.000
 6269.00    2.54138   2.48304   23.770
 6270.00    2.52985   2.48565   23.757
 6271.00    2.53021   2.49308   23.879
 6272.00    2.53751   2.50198   23.904
 6273.00    2.54391   2.50491   23.832
 6274.00    2.54449   2.49655   23.764
 6275.00    2.54303   2.47755   -1.000
 6276.00    2.53879   2.45288   -1.000
 6277.00    2.51914   2.42769   -1.000
 6278.00    2.48042   2.40533   -1.000
 6279.00    2.42461   2.38894   24.975
 6280.00    2.35886   2.38342   25.508
 6281.00    2.32315   2.39371   25.769
 6282.00    2.32209   2.41975   25.754
 6283.00    2.33702   2.45443   25.450
 6284.00    2.34377   2.48835   25.010
 6285.00    2.34105   2.51645   24.607
 6286.00    2.35831   2.53910   24.282
 6287.00    2.41082   2.55686   24.052
 6288.00    2.48109   2.56622   23.844
 6289.00    2.51647   2.56246   23.657
 6290.00    2.52269   2.54610   23.568
 6291.00    2.53241   2.52477   23.634
 6292.00    2.52785   2.50749   23.815
 6293.00    2.51693   2.49715   24.006
 6294.00    2.50854   2.48878   24.101
 6295.00    2.50847   2.47535   24.128
 6296.00    2.50463   2.45657   24.164
 6297.00    2.49363   2.44040   24.297
 6298.00    2.51348   2.43355   -1.000
 6299.00    2.55833   2.43305   -1.000
 6300.00    2.59072   2.43129   -1.000
 6301.00    2.66029   2.42741   -1.000
 6302.00    2.80284   2.42883   -1.000
 6303.00    2.89588   2.44174   -1.000
 6304.00    2.84625   2.46494   -1.000
 6305.00    2.72312   2.49331   -1.000
 6306.00    2.64596   2.52267   -1.000
 6307.00    2.63150   2.54885   -1.000
 6308.00    2.61472   2.56549   23.772
 6309.00    2.59682   2.56763   23.565
 6310.00    2.58952   2.55689   23.456
 6311.00    2.56513   2.54033   23.514
 6312.00    2.54914   2.52359   23.658
 6313.00    2.55076   2.50701   23.779
 6314.00    2.52577   2.48858   23.870
 6315.00    2.50143   2.46869   23.924
 6316.00    2.49436   2.45016   24.062
 6317.00    2.48997   2.43714   24.214
 6318.00    2.48851   2.43579   24.230
 6319.00    2.50704   2.45078   24.205
 6320.00    2.53881   2.47868   -1.000
 6321.00    2.55288   2.50960   24.179
 6322.00    2.57495   2.53671   23.960
 6323.00    2.60968   2.55952   23.694
 6324.00    2.63651   2.57870   -1.000
 6325.00    2.64812   2.59267   23.474
 6326.00    2.64329   2.60051   23.366
 6327.00    2.64277   2.60423   23.268
 6328.00    2.64624   2.60639   23.235
 6329.00    2.65223   2.60832   23.162
 6330.00    2.65920   2.61141   23.123
 6331.00    2.65583   2.61589   23.149
 6332.00    2.65432   2.61652   23.164
 6333.00    2.65012   2.60381   23.121
 6334.00    2.62540   2.57428   23.058
 6335.00    2.58423   2.53811   23.083
 6336.00    2.56272   2.51334   23.148
 6337.00    2.57494   2.51135   -1.000
 6338.00    2.60145   2.52968   -1.000
 6339.00    2.63080   2.55674   -1.000
 6340.00    2.66126   2.57908   -1.000
 6341.00    2.67665   2.58647   -1.000
 6342.00    2.66301   2.57686   -1.000
 6343.00    2.63931   2.55922   -1.000
 6344.00    2.63522   2.54843   -1.000
 6345.00    2.65275   2.55440   -1.000
 6346.00    2.68506   2.57564   -1.000
 6347.00    2.70872   2.60340   -1.000
 6348.00    2.71493   2.62925   -1.000
 6349.00    2.72283   2.64836   -1.000
 6350.00    2.72135   2.65853   -1.000
 6351.00    2.71584   2.65827   22.666
 6352.00    2.70557   2.64641   22.643
 6353.00    2.68689   2.62451   -1.000
 6354.00    2.66015   2.59859   -1.000
 6355.00    2.63667   2.57519   -1.000
 6356.00    2.63344   2.55483   -1.000
 6357.00    2.62307   2.53268   -1.000
 6358.00    2.60056   2.50617   -1.000
 6359.00    2.58506   2.47884   -1.000
 6360.00    2.57850   2.45634   -1.000
 6361.00    2.58385   2.44278   -1.000
 6362.00    2.59890   2.44150   -1.000
 6363.00    2.63272   2.45502   -1.000
 6364.00    2.68842   2.48235   -1.000
 6365.00    2.74391   2.51834   -1.000
 6366.00    2.79907   2.55655   -1.000
 6367.00    2.83089   2.59112   -1.000
 6368.00    2.81100   2.61738   -1.000
 6369.00    2.77215   2.63386   -1.000
 6370.00    2.73957   2.64451   -1.000
 6371.00    2.72320   2.65549   -1.000
 6372.00    2.73912   2.66878   -1.000
 6373.00    2.75350   2.68081   -1.000
 6374.00    2.74519   2.68728   22.579
 6375.00    2.73519   2.68693   22.574
 6376.00    2.72820   2.67998   22.618
 6377.00    2.72196   2.66699   22.650
 6378.00    2.71186   2.65083   -1.000
 6379.00    2.69024   2.63694   22.825
 6380.00    2.67948   2.63000   22.965
 6381.00    2.69605   2.63081   -1.000
 6382.00    2.70536   2.63635   -1.000
 6383.00    2.70407   2.64287   -1.000
 6384.00    2.70740   2.64923   -1.000
 6385.00    2.70047   2.65680   23.134
 6386.00    2.70086   2.66596   23.165
 6387.00    2.71632   2.67443   23.251
 6388.00    2.70524   2.67906   23.260
 6389.00    2.68116   2.67655   23.288
 6390.00    2.66750   2.66266   23.366
 6391.00    2.64063   2.63525   23.507
 6392.00    2.60135   2.60119   23.702
 6393.00    2.56604   2.57712   23.935
 6394.00    2.55004   2.57778   24.264
 6395.00    2.56886   2.60163   24.549
 6396.00    2.59174   2.62936   24.591
 6397.00    2.59036   2.63809   24.339
 6398.00    2.57322   2.61946   24.140
 6399.00    2.53488   2.58815   24.221
 6400.00    2.49881   2.57158   24.499
 6401.00    2.50702   2.58689   24.987
 6402.00    2.54582   2.62675   25.358
 6403.00    2.57574   2.66808   25.278
 6404.00    2.58515   2.69076   24.917
 6405.00    2.57443   2.68849   24.663
 6406.00    2.54342   2.66877   24.659
 6407.00    2.49752   2.64657   24.772
 6408.00    2.46805   2.63340   25.032
 6409.00    2.45883   2.62963   25.420
 6410.00    2.44534   2.62778   25.741
 6411.00    2.42744   2.62355   -1.000
 6412.00    2.40706   2.62047   -1.000
 6413.00    2.39663   2.62408   -1.000
 6414.00    2.39218   2.63498   -1.000
 6415.00    2.38401   2.64833   -1.000
 6416.00    2.37823   2.65664   -1.000
 6417.00    2.36607   2.65285   -1.000
 6418.00    2.34453   2.63456   -1.000
 6419.00    2.31863   2.60831   -1.000
 6420.00    2.27829   2.58902   -1.000
 6421.00    2.24781   2.59066   -1.000
 6422.00    2.25614   2.61506   -1.000
 6423.00    2.26936   2.65050   -1.000
 6424.00    2.26243   2.68292   -1.000
 6425.00    2.25361   2.70568   -1.000
 6426.00    2.25203   2.71751   -1.000
 6427.00    2.24733   2.71537   -1.000
 6428.00    2.21881   2.69507   -1.000
