###################################################################
## OUTPUT of StarlightChains_v04.for    [Cid@UFSC - 01/Apr/2007] ##
###################################################################

## Some input info
NGC5927_b_1.cxt                          [arq_obs]
Base.BC03.N                              [arq_base]
NGC5927_b_1.msk                          [arq_masks]
StCv04.C11.config                        [arq_config]
   45                                    [N_base]
    0                                    [N_YAV_components = # of components with extra extinction!]
    0                                    [i_FitPowerLaw (1/0 = Yes/No)]
-9.99                                    [alpha_PowerLaw]
CCM                                      [red_law_option]
 1.458241                                [q_norm = A(l_norm)/A(V)]

## (Re)Sampling Parameters
 3359.00                                 [l_ini (A)]
 6428.00                                 [l_fin (A)]
    1.00                                 [dl    (A)]     (OBS: dl_cushion =    50.00 A)

## Normalization info
 4020.00                                 [l_norm (A) - for base]
 4010.00                                 [llow_norm (A) - window for f_obs]
 4060.00                                 [lupp_norm (A) - window for f_obs]
5.211403E-15                             [fobs_norm (in input units)]

## S/N
 4730.00                                 [llow_SN (A) - window for S/N]
 4780.00                                 [lupp_SN (A) - window for S/N]
  32.308                                 [S/N in S/N window]
  18.819                                 [S/N in norm. window]
 338.726                                 [S/N_err in S/N window]
 197.303                                 [S/N_err in norm. window]
  1.0000                                 [fscale_chi2]

## etc...
  2147483632                             [idum_orig]
  3067                                   [NOl_eff]
  1433                                   [Nl_eff]
  1634    NSIGMA                         [Ntot_cliped & clip_method]
  1181740                                [Nglobal_steps]
   7                                     [N_chains]
  16                                     [NEX0s_base = N_base in EX0s-fits]
 0   0   1      139   2.0   4.522E+02    [Clip-Bug, RC-Crash & Burn-In warning-flags, n_censored_weights, wei_nsig_threshold & wei_limit]
    11     11.118     11.118      0.000  [idt_all, wdt_TotTime, wdt_UsrTime & wdt_SysTime (sec)]

## Synthesis Results - Best model ##

 3.05127E+00                             [chi2/Nl_eff]
     2.30511                             [adev (%)]

    99.80112                             [sum-of-x (%)]
 2.93286E-14                             [Flux_tot (units of input spectrum!)]
 1.67425E-09                             [Mini_tot (???)]
 8.47559E-10                             [Mcor_tot (???)]

  -8.02                                  [v0_min  (km/s)]
  19.37                                  [vd_min  (km/s)]
 1.2879                                  [AV_min  (mag)]
 0.0000                                  [YAV_min (mag)]

# j     x_j(%)      Mini_j(%)     Mcor_j(%)     age_j(yr)     Z_j      (L/M)_j    YAV?  Mstars   component_j        a/Fe...       SSP_chi2r SSP_adev(%)   SSP_AV   SSP_x(%)
  1      5.3266     8.3926E-03    1.6579E-02    1.000000E+06  0.00400  1.114E-02    0   1.0000   age020_m42            0.0000     2.2936E+03    33.7533   4.0000    99.4351
  2      6.4324     2.7720E-03    5.4752E-03    3.160000E+06  0.00400  4.073E-02    0   0.9999   age045_m42            0.0000     5.4573E+02    11.3104   4.0000   102.2524
  3      3.2416     2.2454E-03    4.2083E-03    5.010000E+06  0.00400  2.534E-02    0   0.9488   age055_m42            0.0000     1.0743E+03    20.6424   4.0000   102.2577
  4      4.8212     6.6580E-03    1.1655E-02    1.000000E+07  0.00400  1.271E-02    0   0.8862   age070_m42            0.0000     4.5821E+02    10.6636   4.0000    95.1264
  5      0.0000     0.0000E+00    0.0000E+00    2.512000E+07  0.00400  5.070E-03    0   0.8174   age090_m42            0.0000     4.1068E+02    11.5308   3.9845    94.4292
  6      0.0000     0.0000E+00    0.0000E+00    4.000000E+07  0.00400  3.505E-03    0   0.7851   age104_m42            0.0000     3.3259E+02     9.2199   3.6441    96.9026
  7      0.0000     0.0000E+00    0.0000E+00    1.015200E+08  0.00400  2.268E-03    0   0.7207   age116_m42            0.0000     6.2025E+02     8.3479   3.5647   104.1226
  8      0.0000     0.0000E+00    0.0000E+00    2.861200E+08  0.00400  1.079E-03    0   0.6613   age125_m42            0.0000     6.2001E+02     8.3635   3.0740   105.6444
  9      0.8894     3.0750E-02    3.7642E-02    6.405400E+08  0.00400  5.077E-04    0   0.6197   age132_m42            0.0000     6.2559E+02     8.6666   2.7059   110.0464
 10      1.3005     6.4575E-02    7.6842E-02    9.047900E+08  0.00400  3.535E-04    0   0.6024   age135_m42            0.0000     4.6490E+02     7.7706   2.4560   109.5940
 11      0.0198     1.8239E-03    2.0594E-03    1.434000E+09  0.00400  1.910E-04    0   0.5716   age139_m42            0.0000     2.4510E+02     6.7826   1.9010   108.0365
 12      0.0000     0.0000E+00    0.0000E+00    2.500000E+09  0.00400  9.818E-05    0   0.5463   age150_m42            0.0000     9.6307E+01     5.6032   1.5987   103.8064
 13      3.4091     1.2683E+00    1.3098E+00    5.000000E+09  0.00400  4.718E-05    0   0.5228   age161_m42            0.0000     4.1297E+01     4.5302   1.4324   100.6728
 14     15.6330     1.2444E+01    1.2242E+01    1.100000E+10  0.00400  2.205E-05    0   0.4980   age185_m42            0.0000     2.8436E+01     5.2946   1.1450    98.4304
 15      9.6316     8.9781E+00    8.7381E+00    1.300000E+10  0.00400  1.883E-05    0   0.4927   age193_m42            0.0000     2.9348E+01     5.3090   1.1300    98.2415
 16      0.0000     0.0000E+00    0.0000E+00    1.000000E+06  0.02000  1.989E-02    0   1.0000   age020_m62            0.0000     2.2247E+03    32.8249   4.0000    99.9563
 17      0.0000     0.0000E+00    0.0000E+00    3.160000E+06  0.02000  3.772E-02    0   0.9858   age045_m62            0.0000     1.8973E+03    29.7271   4.0000   101.3911
 18      0.0000     0.0000E+00    0.0000E+00    5.010000E+06  0.02000  3.227E-02    0   0.9342   age055_m62            0.0000     8.5511E+02    17.5160   4.0000   103.0775
 19      0.0000     0.0000E+00    0.0000E+00    1.000000E+07  0.02000  1.011E-02    0   0.8751   age070_m62            0.0000     6.0179E+02    14.4324   4.0000    94.1096
 20      0.0000     0.0000E+00    0.0000E+00    2.512000E+07  0.02000  4.206E-03    0   0.8099   age090_m62            0.0000     4.9090E+02    13.0886   4.0000    92.6387
 21      0.0000     0.0000E+00    0.0000E+00    4.000000E+07  0.02000  3.373E-03    0   0.7799   age104_m62            0.0000     4.1419E+02     8.9461   3.8602    98.0157
 22      0.0000     0.0000E+00    0.0000E+00    1.015200E+08  0.02000  1.878E-03    0   0.7221   age116_m62            0.0000     6.0881E+02     7.9998   3.6231   104.5347
 23      0.0000     0.0000E+00    0.0000E+00    2.861200E+08  0.02000  8.869E-04    0   0.6700   age125_m62            0.0000     8.3940E+02     9.5451   3.0959   109.8523
 24      0.0000     0.0000E+00    0.0000E+00    6.405400E+08  0.02000  3.657E-04    0   0.6322   age132_m62            0.0000     5.8416E+02    10.0586   2.3569   113.0237
 25      0.0000     0.0000E+00    0.0000E+00    9.047900E+08  0.02000  2.312E-04    0   0.6152   age135_m62            0.0000     3.6656E+02     9.2509   1.9563   112.5444
 26      0.0000     0.0000E+00    0.0000E+00    1.434000E+09  0.02000  1.168E-04    0   0.5865   age139_m62            0.0000     1.3210E+02     7.1142   1.5242   107.3150
 27      0.0000     0.0000E+00    0.0000E+00    2.500000E+09  0.02000  5.505E-05    0   0.5610   age150_m62            0.0000     5.6772E+01     7.1220   1.1218   104.6689
 28      6.4357     4.3514E+00    4.6013E+00    5.000000E+09  0.02000  2.596E-05    0   0.5353   age161_m62            0.0000     7.2113E+01     9.1485   0.7531   104.3232
 29     11.8393     1.7777E+01    1.7919E+01    1.100000E+10  0.02000  1.169E-05    0   0.5103   age185_m62            0.0000     1.3973E+02    11.5318   0.3539   105.3693
 30     27.8113     5.0372E+01    5.0219E+01    1.300000E+10  0.02000  9.691E-06    0   0.5047   age193_m62            0.0000     1.5657E+02    11.8702   0.3058   105.4916
 31      0.0000     0.0000E+00    0.0000E+00    1.000000E+06  0.05000  2.651E-02    0   0.9998   age020_m72            0.0000     2.1682E+03    32.7969   4.0000   100.9152
 32      0.0000     0.0000E+00    0.0000E+00    3.160000E+06  0.05000  4.817E-02    0   0.9577   age045_m72            0.0000     1.4925E+03    26.3099   4.0000   103.4582
 33      0.0000     0.0000E+00    0.0000E+00    5.010000E+06  0.05000  3.101E-02    0   0.9147   age055_m72            0.0000     9.7313E+02    17.6449   4.0000   102.3465
 34      0.0000     0.0000E+00    0.0000E+00    1.000000E+07  0.05000  8.954E-03    0   0.8524   age070_m72            0.0000     1.2605E+03    23.3411   4.0000   103.3854
 35      0.0000     0.0000E+00    0.0000E+00    2.512000E+07  0.05000  4.207E-03    0   0.7902   age090_m72            0.0000     6.3608E+02    13.3290   4.0000   102.6935
 36      0.0000     0.0000E+00    0.0000E+00    4.000000E+07  0.05000  3.198E-03    0   0.7618   age104_m72            0.0000     5.1098E+02     7.1612   3.9653   101.0369
 37      0.0000     0.0000E+00    0.0000E+00    1.015200E+08  0.05000  1.716E-03    0   0.7092   age116_m72            0.0000     6.7184E+02     8.0461   3.7055   104.5002
 38      0.0000     0.0000E+00    0.0000E+00    2.861200E+08  0.05000  7.047E-04    0   0.6618   age125_m72            0.0000     7.7706E+02    10.0040   2.8617   110.1917
 39      0.0000     0.0000E+00    0.0000E+00    6.405400E+08  0.05000  2.633E-04    0   0.6253   age132_m72            0.0000     4.2800E+02     9.7662   1.9623   112.3838
 40      0.0000     0.0000E+00    0.0000E+00    9.047900E+08  0.05000  1.484E-04    0   0.6088   age135_m72            0.0000     1.8049E+02     8.7045   1.4465   107.7358
 41      0.0000     0.0000E+00    0.0000E+00    1.434000E+09  0.05000  7.827E-05    0   0.5847   age139_m72            0.0000     8.9599E+01     8.9619   1.0117   104.6430
 42      0.0000     0.0000E+00    0.0000E+00    2.500000E+09  0.05000  3.759E-05    0   0.5583   age150_m72            0.0000     8.8901E+01     9.8189   0.6692   103.8502
 43      2.3961     2.7169E+00    2.8552E+00    5.000000E+09  0.05000  1.548E-05    0   0.5320   age161_m72            0.0000     1.6297E+02    11.2382   0.2571   102.6651
 44      0.0812     2.1821E-01    2.1854E-01    1.100000E+10  0.05000  6.532E-06    0   0.5070   age185_m72            0.0000     3.0260E+02    14.6125  -0.1814   102.0702
 45      0.5322     1.7573E+00    1.7419E+00    1.300000E+10  0.05000  5.316E-06    0   0.5018   age193_m72            0.0000     3.6799E+02    15.9597  -0.3255   102.0735


## Synthesis Results - Average & Chains ##

# j      x_j: min, <> & last-chain-values for 1 ...  7 chains
  1      5.3266      4.6628      4.8432      4.7411      4.6441      4.6688      4.7311      4.7715      4.7009
  2      6.4324      5.5045      5.9944      5.7092      5.6025      5.4754      5.4425      5.5043      5.7577
  3      3.2416      2.9328      2.9715      3.0948      2.9292      2.9300      2.9974      2.9698      3.0164
  4      4.8212      4.7305      4.8826      4.7331      4.6964      4.9661      4.7326      4.8483      4.6620
  5      0.0000      0.0535      0.0000      0.0000      0.0000      0.0000      0.0000      0.0000      0.1605
  6      0.0000      0.0268      0.0000      0.0000      0.1082      0.0000      0.0000      0.0000      0.0000
  7      0.0000      0.0349      0.0000      0.0000      0.0503      0.0000      0.0000      0.0000      0.0000
  8      0.0000      0.0442      0.0000      0.1300      0.0000      0.0182      0.0000      0.0000      0.0000
  9      0.8894      0.3303      0.3685      0.3655      0.4299      0.5972      0.3271      0.7360      0.4480
 10      1.3005      0.2415      0.2160      0.2445      0.6251      0.2343      0.3612      0.5673      0.5697
 11      0.0198      0.1949      0.1859      0.4200      0.0000      0.2530      0.3935      0.6265      0.2819
 12      0.0000      0.1397      0.0933      0.2276      0.0447      0.0000      0.0000      0.0000      0.0000
 13      3.4091      7.7963      7.1903      7.6196      7.2215      7.3118      7.4828      6.0467      7.8843
 14     15.6330     14.9337     16.4005     15.0643     15.5962     14.8416     15.1294     15.1515     15.3784
 15      9.6316      4.9989      4.1933      5.3579      5.6434      6.1337      5.9544      6.5140      5.1357
 16      0.0000      0.4002      0.4149      0.3633      0.3529      0.4608      0.4057      0.3260      0.5041
 17      0.0000      0.1273      0.0000      0.3310      0.3184      0.0000      0.1107      0.4050      0.0811
 18      0.0000      0.0211      0.0000      0.0000      0.0000      0.0000      0.0000      0.0000      0.0000
 19      0.0000      0.4269      0.3657      0.3663      0.5606      0.5619      0.4189      0.3670      0.4058
 20      0.0000      0.0670      0.0000      0.0000      0.0000      0.0000      0.0000      0.0000      0.0000
 21      0.0000      0.0235      0.0000      0.0833      0.0248      0.0000      0.0949      0.0000      0.0000
 22      0.0000      0.0363      0.0000      0.0086      0.0000      0.0000      0.0000      0.0000      0.0000
 23      0.0000      0.0278      0.0000      0.0133      0.1232      0.1936      0.0000      0.0000      0.0134
 24      0.0000      0.0602      0.1252      0.0000      0.1506      0.0000      0.2241      0.0593      0.0052
 25      0.0000      0.0612      0.3570      0.0000      0.0381      0.0000      0.1009      0.0342      0.1091
 26      0.0000      0.0632      0.0000      0.0000      0.0000      0.0000      0.0000      0.0000      0.0000
 27      0.0000      0.0516      0.1001      0.0000      0.0354      0.2961      0.0000      0.0000      0.3501
 28      6.4357     10.0262      9.0336      9.2407      9.2115      9.4286      8.3313      8.7276      7.7891
 29     11.8393     11.6424     11.4008     11.7449     11.4136     11.5744     11.4984     11.6354     11.7588
 30     27.8113     26.2744     27.0204     26.0167     26.3086     26.0681     26.5876     26.8905     26.9836
 31      0.0000      0.2265      0.1084      0.1456      0.2219      0.3062      0.3979      0.1271      0.1521
 32      0.0000      0.0425      0.0000      0.0000      0.0000      0.0000      0.0238      0.0000      0.0000
 33      0.0000      0.0390      0.0000      0.0000      0.0000      0.0000      0.0000      0.0726      0.0000
 34      0.0000      0.0626      0.0000      0.0000      0.0000      0.0000      0.0000      0.0000      0.0248
 35      0.0000      0.0496      0.0554      0.0000      0.0000      0.1231      0.0773      0.1638      0.0000
 36      0.0000      0.0263      0.1143      0.0000      0.0000      0.0000      0.0000      0.0150      0.0000
 37      0.0000      0.0214      0.0000      0.0000      0.0000      0.0000      0.0000      0.0000      0.0000
 38      0.0000      0.0364      0.0000      0.1223      0.0000      0.0000      0.0204      0.0000      0.0000
 39      0.0000      0.0399      0.0511      0.0000      0.0000      0.0000      0.3267      0.0000      0.0307
 40      0.0000      0.0874      0.0000      0.0665      0.0000      0.0000      0.0000      0.0000      0.1264
 41      0.0000      0.0271      0.0000      0.0000      0.0000      0.0000      0.0000      0.0000      0.0000
 42      0.0000      0.0272      0.0000      0.0000      0.0000      0.0000      0.0038      0.0683      0.0000
 43      2.3961      1.3328      1.4042      1.4358      1.5627      1.5162      1.6595      1.4894      1.6354
 44      0.0812      0.7076      0.7438      0.8446      0.6688      0.6010      0.8070      0.5398      0.6695
 45      0.5322      1.2313      1.2329      1.3157      1.2408      1.2730      1.1927      1.1967      1.2297

# j      m_j: min, <> & last-chain-values for 1 ...  7 chains
  1  1.6579E-02  1.4633E-02  1.5103E-02  1.4844E-02  1.4552E-02  1.4659E-02  1.4768E-02  1.4872E-02  1.4650E-02
  2  5.4752E-03  4.7244E-03  5.1121E-03  4.8885E-03  4.8011E-03  4.7015E-03  4.6459E-03  4.6918E-03  4.9072E-03
  3  4.2083E-03  3.8391E-03  3.8651E-03  4.0417E-03  3.8285E-03  3.8371E-03  3.9025E-03  3.8609E-03  3.9210E-03
  4  1.1655E-02  1.1531E-02  1.1826E-02  1.1511E-02  1.1431E-02  1.2111E-02  1.1474E-02  1.1737E-02  1.1285E-02
  5  0.0000E+00  3.0132E-04  0.0000E+00  0.0000E+00  0.0000E+00  0.0000E+00  0.0000E+00  0.0000E+00  8.9857E-04
  6  0.0000E+00  2.1013E-04  0.0000E+00  0.0000E+00  8.4617E-04  0.0000E+00  0.0000E+00  0.0000E+00  0.0000E+00
  7  0.0000E+00  3.8808E-04  0.0000E+00  0.0000E+00  5.5797E-04  0.0000E+00  0.0000E+00  0.0000E+00  0.0000E+00
  8  0.0000E+00  9.4733E-04  0.0000E+00  2.7782E-03  0.0000E+00  3.8942E-04  0.0000E+00  0.0000E+00  0.0000E+00
  9  3.7642E-02  1.4096E-02  1.5625E-02  1.5562E-02  1.8316E-02  2.5495E-02  1.3885E-02  3.1192E-02  1.8985E-02
 10  7.6842E-02  1.4388E-02  1.2789E-02  1.4532E-02  3.7186E-02  1.3966E-02  2.1405E-02  3.3568E-02  3.3706E-02
 11  2.0594E-03  2.0390E-02  1.9331E-02  4.3845E-02  0.0000E+00  2.6482E-02  4.0945E-02  6.5103E-02  2.9288E-02
 12  0.0000E+00  2.7173E-02  1.8027E-02  4.4172E-02  8.6844E-03  0.0000E+00  0.0000E+00  0.0000E+00  0.0000E+00
 13  1.3098E+00  3.0203E+00  2.7678E+00  2.9449E+00  2.7933E+00  2.8338E+00  2.8832E+00  2.3264E+00  3.0331E+00
 14  1.2242E+01  1.1792E+01  1.2867E+01  1.1867E+01  1.2296E+01  1.1724E+01  1.1882E+01  1.1882E+01  1.2058E+01
 15  8.7381E+00  4.5729E+00  3.8115E+00  4.8898E+00  5.1545E+00  5.6134E+00  5.4175E+00  5.9180E+00  4.6652E+00
 16  0.0000E+00  7.0342E-04  7.2471E-04  6.3708E-04  6.1939E-04  8.1031E-04  7.0921E-04  5.6913E-04  8.7996E-04
 17  0.0000E+00  1.1627E-04  0.0000E+00  3.0170E-04  2.9045E-04  0.0000E+00  1.0061E-04  3.6753E-04  7.3549E-05
 18  0.0000E+00  2.1391E-05  0.0000E+00  0.0000E+00  0.0000E+00  0.0000E+00  0.0000E+00  0.0000E+00  0.0000E+00
 19  0.0000E+00  1.2920E-03  1.0996E-03  1.1058E-03  1.6939E-03  1.7012E-03  1.2608E-03  1.1030E-03  1.2195E-03
 20  0.0000E+00  4.5111E-04  0.0000E+00  0.0000E+00  0.0000E+00  0.0000E+00  0.0000E+00  0.0000E+00  0.0000E+00
 21  0.0000E+00  1.8988E-04  0.0000E+00  6.7145E-04  2.0056E-04  0.0000E+00  7.6321E-04  0.0000E+00  0.0000E+00
 22  0.0000E+00  4.8793E-04  0.0000E+00  1.1544E-04  0.0000E+00  0.0000E+00  0.0000E+00  0.0000E+00  0.0000E+00
 23  0.0000E+00  7.3486E-04  0.0000E+00  3.4926E-04  3.2499E-03  5.1143E-03  0.0000E+00  0.0000E+00  3.5100E-04
 24  0.0000E+00  3.6404E-03  7.5214E-03  0.0000E+00  9.0894E-03  0.0000E+00  1.3472E-02  3.5623E-03  3.1445E-04
 25  0.0000E+00  5.6936E-03  3.3001E-02  0.0000E+00  3.5434E-03  0.0000E+00  9.3341E-03  3.1619E-03  1.0076E-02
 26  0.0000E+00  1.1093E-02  0.0000E+00  0.0000E+00  0.0000E+00  0.0000E+00  0.0000E+00  0.0000E+00  0.0000E+00
 27  0.0000E+00  1.8374E-02  3.5452E-02  0.0000E+00  1.2608E-02  1.0555E-01  0.0000E+00  0.0000E+00  1.2385E-01
 28  4.6013E+00  7.2280E+00  6.4709E+00  6.6459E+00  6.6304E+00  6.8001E+00  5.9736E+00  6.2486E+00  5.5760E+00
 29  1.7919E+01  1.7768E+01  1.7289E+01  1.7882E+01  1.7392E+01  1.7672E+01  1.7453E+01  1.7636E+01  1.7820E+01
 30  5.0219E+01  4.7839E+01  4.8884E+01  4.7258E+01  4.7827E+01  4.7484E+01  4.8148E+01  4.8625E+01  4.8787E+01
 31  0.0000E+00  2.9869E-04  1.4208E-04  1.9158E-04  2.9212E-04  4.0386E-04  5.2179E-04  1.6645E-04  1.9920E-04
 32  0.0000E+00  2.9564E-05  0.0000E+00  0.0000E+00  0.0000E+00  0.0000E+00  1.6461E-05  0.0000E+00  0.0000E+00
 33  0.0000E+00  4.0260E-05  0.0000E+00  0.0000E+00  0.0000E+00  0.0000E+00  0.0000E+00  7.4334E-05  0.0000E+00
 34  0.0000E+00  2.0836E-04  0.0000E+00  0.0000E+00  0.0000E+00  0.0000E+00  0.0000E+00  0.0000E+00  8.1851E-05
 35  0.0000E+00  3.2581E-04  3.6123E-04  0.0000E+00  0.0000E+00  8.0901E-04  5.0458E-04  1.0681E-03  0.0000E+00
 36  0.0000E+00  2.1870E-04  9.4584E-04  0.0000E+00  0.0000E+00  0.0000E+00  0.0000E+00  1.2431E-04  0.0000E+00
 37  0.0000E+00  3.0850E-04  0.0000E+00  0.0000E+00  0.0000E+00  0.0000E+00  0.0000E+00  0.0000E+00  0.0000E+00
 38  0.0000E+00  1.1954E-03  0.0000E+00  4.0074E-03  0.0000E+00  0.0000E+00  6.6591E-04  0.0000E+00  0.0000E+00
 39  0.0000E+00  3.3105E-03  4.2178E-03  0.0000E+00  0.0000E+00  0.0000E+00  2.6979E-02  0.0000E+00  2.5339E-03
 40  0.0000E+00  1.2540E-02  0.0000E+00  9.5157E-03  0.0000E+00  0.0000E+00  0.0000E+00  0.0000E+00  1.8006E-02
 41  0.0000E+00  7.0867E-03  0.0000E+00  0.0000E+00  0.0000E+00  0.0000E+00  0.0000E+00  0.0000E+00  0.0000E+00
 42  0.0000E+00  1.4119E-02  0.0000E+00  0.0000E+00  0.0000E+00  0.0000E+00  1.9802E-03  3.5232E-02  0.0000E+00
 43  2.8552E+00  1.6014E+00  1.6764E+00  1.7211E+00  1.8747E+00  1.8225E+00  1.9832E+00  1.7773E+00  1.9512E+00
 44  2.1854E-01  1.9201E+00  2.0056E+00  2.2865E+00  1.8121E+00  1.6317E+00  2.1779E+00  1.4548E+00  1.8040E+00
 45  1.7419E+00  4.0633E+00  4.0427E+00  4.3316E+00  4.0884E+00  4.2027E+00  3.9147E+00  3.9222E+00  4.0300E+00

# AV, chi2 & Mass for <> & i_chain = 1 ...  7 solutions
AV       1.2879      1.2702      1.2733      1.2769      1.2764      1.2757      1.2751      1.2783      1.2728
chi2 3.0513E+00  3.1307E+00  3.1092E+00  3.1065E+00  3.1009E+00  3.1060E+00  3.1023E+00  3.0967E+00  3.1016E+00
Mass 8.4756E-10  8.2088E-10  8.2959E-10  8.3023E-10  8.2901E-10  8.2662E-10  8.3079E-10  8.3558E-10  8.2958E-10
  -8.02                                  [v0_min (km/s) before EX0s...]
  19.37                                  [vd_min (km/s) before EX0s...]


## Synthetic spectrum (Best Model) ##l_obs f_obs f_syn wei
 3070    [Nl_obs]
 3359.00    0.00000   0.42917   -2.000
 3360.00    0.00000   0.40495   -2.000
 3361.00    0.17053   0.40678   -1.000
 3362.00    0.27412   0.43768   -1.000
 3363.00    0.29634   0.47668   -1.000
 3364.00    0.26824   0.50276   -1.000
 3365.00    0.28490   0.50402   -1.000
 3366.00    0.28625   0.48125   -1.000
 3367.00    0.26982   0.45371   -1.000
 3368.00    0.28448   0.43030   -1.000
 3369.00    0.27627   0.42026   -1.000
 3370.00    0.23684   0.41717   -1.000
 3371.00    0.23549   0.41595   -1.000
 3372.00    0.23308   0.42020   -1.000
 3373.00    0.22126   0.43910   -1.000
 3374.00    0.25165   0.46869   -1.000
 3375.00    0.33077   0.50293   -1.000
 3376.00    0.32705   0.52356   -1.000
 3377.00    0.25672   0.51591   -1.000
 3378.00    0.27706   0.48890   -1.000
 3379.00    0.31319   0.46271   -1.000
 3380.00    0.29933   0.45034   -1.000
 3381.00    0.27909   0.46039   -1.000
 3382.00    0.28982   0.47939   -1.000
 3383.00    0.31138   0.49683   -1.000
 3384.00    0.32312   0.50641   -1.000
 3385.00    0.32566   0.51789   -1.000
 3386.00    0.33739   0.52355   -1.000
 3387.00    0.35704   0.52284   -1.000
 3388.00    0.34121   0.51967   -1.000
 3389.00    0.35700   0.51684   -1.000
 3390.00    0.41212   0.51058   -1.000
 3391.00    0.40029   0.49574   -1.000
 3392.00    0.34068   0.47935   -1.000
 3393.00    0.31830   0.47585   -1.000
 3394.00    0.35036   0.48938   -1.000
 3395.00    0.37958   0.51462   -1.000
 3396.00    0.37724   0.53422   -1.000
 3397.00    0.38157   0.55174   -1.000
 3398.00    0.40151   0.56372   -1.000
 3399.00    0.43752   0.56452   -1.000
 3400.00    0.44916   0.55876   -1.000
 3401.00    0.43532   0.54870   -1.000
 3402.00    0.43264   0.53220   -1.000
 3403.00    0.43828   0.51899   -1.000
 3404.00    0.43811   0.51124   -1.000
 3405.00    0.41783   0.50547   -1.000
 3406.00    0.42746   0.49736   -1.000
 3407.00    0.44004   0.49049   60.737
 3408.00    0.41322   0.49118   -1.000
 3409.00    0.40159   0.49859   -1.000
 3410.00    0.41276   0.50976   -1.000
 3411.00    0.40612   0.50728   -1.000
 3412.00    0.40688   0.49130   -1.000
 3413.00    0.42009   0.47292   60.072
 3414.00    0.43011   0.46252   61.594
 3415.00    0.43175   0.47170   63.297
 3416.00    0.41282   0.49031   -1.000
 3417.00    0.42962   0.51523   -1.000
 3418.00    0.44009   0.53586   -1.000
 3419.00    0.47137   0.55512   -1.000
 3420.00    0.48329   0.56192   -1.000
 3421.00    0.45649   0.55442   -1.000
 3422.00    0.45364   0.53473   -1.000
 3423.00    0.47347   0.52336   53.239
 3424.00    0.47848   0.52071   54.366
 3425.00    0.48455   0.52361   55.738
 3426.00    0.48947   0.52825   55.131
 3427.00    0.46542   0.53677   -1.000
 3428.00    0.46140   0.55660   -1.000
 3429.00    0.49388   0.57849   -1.000
 3430.00    0.52890   0.57708   -1.000
 3431.00    0.51172   0.55848   -1.000
 3432.00    0.46843   0.53301   -1.000
 3433.00    0.47163   0.52094   -1.000
 3434.00    0.49295   0.52770   79.441
 3435.00    0.50059   0.53727   52.820
 3436.00    0.44260   0.53739   -1.000
 3437.00    0.43921   0.52411   -1.000
 3438.00    0.47113   0.49870   79.009
 3439.00    0.47888   0.46324   54.213
 3440.00    0.46005   0.42953   57.217
 3441.00    0.40800   0.40603   61.360
 3442.00    0.38175   0.40705   64.746
 3443.00    0.41335   0.42165   65.757
 3444.00    0.43228   0.43975   65.608
 3445.00    0.46286   0.45410   63.830
 3446.00    0.48606   0.47311   60.663
 3447.00    0.48459   0.49577   57.313
 3448.00    0.49660   0.52295   54.897
 3449.00    0.50024   0.54355   -1.000
 3450.00    0.50141   0.54455   -1.000
 3451.00    0.50686   0.52792   -1.000
 3452.00    0.50059   0.51098   -1.000
 3453.00    0.50848   0.50625  452.188
 3454.00    0.54230   0.51817   -1.000
 3455.00    0.53831   0.52872   -1.000
 3456.00    0.52390   0.52525  452.188
 3457.00    0.52424   0.50764   -1.000
 3458.00    0.49759   0.48317   -1.000
 3459.00    0.46615   0.46856  452.188
 3460.00    0.44593   0.45841   80.124
 3461.00    0.47168   0.46191   53.273
 3462.00    0.50263   0.48274   53.321
 3463.00    0.53459   0.51069   -1.000
 3464.00    0.53286   0.51546   -1.000
 3465.00    0.50258   0.51083  452.188
 3466.00    0.48911   0.50716   -1.000
 3467.00    0.50085   0.51449   -1.000
 3468.00    0.53180   0.53130  452.188
 3469.00    0.55535   0.54488   -1.000
 3470.00    0.58345   0.55008   -1.000
 3471.00    0.56805   0.53868   -1.000
 3472.00    0.55029   0.51719   -1.000
 3473.00    0.52914   0.48875   -1.000
 3474.00    0.48853   0.46186   -1.000
 3475.00    0.45559   0.44261   -1.000
 3476.00    0.45669   0.44775   81.447
 3477.00    0.49022   0.46849   54.491
 3478.00    0.51060   0.49436   54.519
 3479.00    0.52688   0.51316  118.981
 3480.00    0.52621   0.52182  452.188
 3481.00    0.52634   0.51959   -1.000
 3482.00    0.54045   0.50837   -1.000
 3483.00    0.52956   0.49659   -1.000
 3484.00    0.52002   0.49626   -1.000
 3485.00    0.52569   0.51424   -1.000
 3486.00    0.54190   0.53630   -1.000
 3487.00    0.56071   0.54524   -1.000
 3488.00    0.54223   0.52845   -1.000
 3489.00    0.51678   0.49827   -1.000
 3490.00    0.49372   0.47392   -1.000
 3491.00    0.49698   0.47015   -1.000
 3492.00    0.51557   0.48216   -1.000
 3493.00    0.50340   0.49539   -1.000
 3494.00    0.49275   0.50168  452.188
 3495.00    0.50141   0.49344   -1.000
 3496.00    0.49516   0.48323   -1.000
 3497.00    0.50490   0.48835   -1.000
 3498.00    0.50940   0.51604  452.188
 3499.00    0.51760   0.54589   -1.000
 3500.00    0.53630   0.55508   -1.000
 3501.00    0.56871   0.56007   -1.000
 3502.00    0.57363   0.56886  419.104
 3503.00    0.58615   0.57515   -1.000
 3504.00    0.60136   0.56952   -1.000
 3505.00    0.58680   0.55502   -1.000
 3506.00    0.57826   0.54459   -1.000
 3507.00    0.55479   0.54330   -1.000
 3508.00    0.53723   0.54182  431.517
 3509.00    0.54489   0.53061   -1.000
 3510.00    0.54396   0.51784   -1.000
 3511.00    0.54331   0.50497   -1.000
 3512.00    0.51407   0.49371   -1.000
 3513.00    0.48758   0.47998   -1.000
 3514.00    0.48105   0.47769  452.188
 3515.00    0.48271   0.49908   -1.000
 3516.00    0.51146   0.53718   -1.000
 3517.00    0.53703   0.56776   -1.000
 3518.00    0.56865   0.57721   -1.000
 3519.00    0.58551   0.56093   -1.000
 3520.00    0.56940   0.53326   -1.000
 3521.00    0.51150   0.50270   -1.000
 3522.00    0.48798   0.48332   -1.000
 3523.00    0.46900   0.46229   -1.000
 3524.00    0.45356   0.44493   -1.000
 3525.00    0.45418   0.44037   83.058
 3526.00    0.45398   0.45717   53.927
 3527.00    0.47307   0.48957   54.496
 3528.00    0.51307   0.52741  115.384
 3529.00    0.52488   0.54922   -1.000
 3530.00    0.52527   0.55386   -1.000
 3531.00    0.51807   0.54466   -1.000
 3532.00    0.50838   0.54214   -1.000
 3533.00    0.54338   0.55003  449.703
 3534.00    0.57683   0.56351   -1.000
 3535.00    0.57321   0.57257  441.283
 3536.00    0.57064   0.57240  432.667
 3537.00    0.54661   0.57517   -1.000
 3538.00    0.55004   0.58609   -1.000
 3539.00    0.58178   0.59226   -1.000
 3540.00    0.58122   0.58678  416.904
 3541.00    0.56346   0.57413   -1.000
 3542.00    0.55998   0.57409   -1.000
 3543.00    0.54394   0.58486   -1.000
 3544.00    0.54530   0.59510   -1.000
 3545.00    0.58276   0.59693   -1.000
 3546.00    0.57475   0.58802   -1.000
 3547.00    0.55646   0.58124   -1.000
 3548.00    0.57219   0.58075   -1.000
 3549.00    0.56993   0.58338   -1.000
 3550.00    0.54414   0.58311   -1.000
 3551.00    0.53805   0.57538   -1.000
 3552.00    0.53742   0.56040   -1.000
 3553.00    0.50543   0.54573   -1.000
 3554.00    0.50389   0.54174   -1.000
 3555.00    0.50920   0.54827   -1.000
 3556.00    0.52293   0.55349   -1.000
 3557.00    0.52476   0.55240   -1.000
 3558.00    0.49410   0.54493   -1.000
 3559.00    0.49852   0.54332   -1.000
 3560.00    0.51121   0.55377   -1.000
 3561.00    0.52181   0.57028   -1.000
 3562.00    0.54541   0.58031   -1.000
 3563.00    0.55817   0.56301  452.188
 3564.00    0.53314   0.51876   -1.000
 3565.00    0.48607   0.47420   -1.000
 3566.00    0.44942   0.46316   85.596
 3567.00    0.44620   0.46835   54.590
 3568.00    0.45765   0.46696   55.152
 3569.00    0.44755   0.45102   54.694
 3570.00    0.43764   0.43664   55.644
 3571.00    0.46359   0.44325   57.052
 3572.00    0.48789   0.46687   56.423
 3573.00    0.49621   0.48472   54.190
 3574.00    0.51558   0.49577  109.456
 3575.00    0.50654   0.49962   -1.000
 3576.00    0.49932   0.49972  452.188
 3577.00    0.48672   0.48947  452.188
 3578.00    0.46034   0.46908   -1.000
 3579.00    0.44557   0.43646   -1.000
 3580.00    0.42198   0.41031   89.336
 3581.00    0.39673   0.39705   57.578
 3582.00    0.38877   0.40283   61.372
 3583.00    0.38867   0.41316   63.020
 3584.00    0.39664   0.41260   63.328
 3585.00    0.39072   0.40255   64.355
 3586.00    0.37588   0.39828   66.277
 3587.00    0.37497   0.40810   67.751
 3588.00    0.40758   0.43009   66.122
 3589.00    0.44537   0.46364   62.648
 3590.00    0.46245   0.49668   59.492
 3591.00    0.48907   0.52233   55.151
 3592.00    0.50832   0.52720  107.182
 3593.00    0.51073   0.52616   -1.000
 3594.00    0.51004   0.53294   -1.000
 3595.00    0.52618   0.55317   -1.000
 3596.00    0.55314   0.57667   -1.000
 3597.00    0.56437   0.58969   -1.000
 3598.00    0.58432   0.60155   -1.000
 3599.00    0.61545   0.61169  407.232
 3600.00    0.61104   0.60892  398.866
 3601.00    0.59365   0.58534   -1.000
 3602.00    0.57001   0.55313   -1.000
 3603.00    0.54767   0.52224   -1.000
 3604.00    0.54300   0.50671   -1.000
 3605.00    0.53315   0.50494   -1.000
 3606.00    0.51500   0.50389   -1.000
 3607.00    0.49254   0.49289  452.188
 3608.00    0.49722   0.47494   -1.000
 3609.00    0.49873   0.46823   -1.000
 3610.00    0.48861   0.48303   -1.000
 3611.00    0.50993   0.50988  452.188
 3612.00    0.52212   0.52520  452.188
 3613.00    0.53469   0.53809  452.188
 3614.00    0.55871   0.55251   -1.000
 3615.00    0.56888   0.56437  450.200
 3616.00    0.55947   0.55313  437.280
 3617.00    0.52887   0.51107   -1.000
 3618.00    0.48208   0.46356   -1.000
 3619.00    0.45746   0.46000  452.188
 3620.00    0.47160   0.48694   87.430
 3621.00    0.50978   0.53100  104.265
 3622.00    0.54173   0.56406   -1.000
 3623.00    0.55415   0.58291   -1.000
 3624.00    0.57964   0.59911   -1.000
 3625.00    0.61230   0.62835   -1.000
 3626.00    0.62617   0.65828   -1.000
 3627.00    0.63863   0.67460   -1.000
 3628.00    0.63813   0.65959   -1.000
 3629.00    0.61116   0.61032  375.809
 3630.00    0.56811   0.54202   -1.000
 3631.00    0.51642   0.50234   -1.000
 3632.00    0.49647   0.49469  452.188
 3633.00    0.51744   0.51675  452.188
 3634.00    0.53423   0.54012  452.188
 3635.00    0.54733   0.55821   -1.000
 3636.00    0.57351   0.56692  452.188
 3637.00    0.61036   0.58647   -1.000
 3638.00    0.62383   0.61344   -1.000
 3639.00    0.62582   0.63604   -1.000
 3640.00    0.62449   0.64443   -1.000
 3641.00    0.61067   0.63191   -1.000
 3642.00    0.59627   0.60667   -1.000
 3643.00    0.56661   0.58124   -1.000
 3644.00    0.53906   0.56037   -1.000
 3645.00    0.53966   0.54471  433.368
 3646.00    0.53989   0.52784   -1.000
 3647.00    0.53686   0.51124   -1.000
 3648.00    0.52146   0.51115   -1.000
 3649.00    0.51423   0.52566   -1.000
 3650.00    0.55934   0.55683  452.188
 3651.00    0.57840   0.59106   -1.000
 3652.00    0.58981   0.62522   -1.000
 3653.00    0.61133   0.64111   -1.000
 3654.00    0.61229   0.64956   -1.000
 3655.00    0.62821   0.65572   -1.000
 3656.00    0.65469   0.66857   -1.000
 3657.00    0.66198   0.68580   -1.000
 3658.00    0.66212   0.69445   -1.000
 3659.00    0.67067   0.69839   -1.000
 3660.00    0.65968   0.69514   -1.000
 3661.00    0.64856   0.68363   -1.000
 3662.00    0.66937   0.66527  364.702
 3663.00    0.66728   0.65245   -1.000
 3664.00    0.62899   0.64700   -1.000
 3665.00    0.62669   0.65005   -1.000
 3666.00    0.66126   0.65112  377.192
 3667.00    0.66042   0.64234   -1.000
 3668.00    0.62865   0.62552  379.659
 3669.00    0.60509   0.61474   -1.000
 3670.00    0.59140   0.62584   -1.000
 3671.00    0.60570   0.64923   -1.000
 3672.00    0.65115   0.66679   -1.000
 3673.00    0.67359   0.67239  375.377
 3674.00    0.66302   0.66858   -1.000
 3675.00    0.65445   0.65535  370.714
 3676.00    0.64327   0.63302  371.150
 3677.00    0.62419   0.60611   -1.000
 3678.00    0.59562   0.57996   -1.000
 3679.00    0.57104   0.56520  401.609
 3680.00    0.57920   0.56772   -1.000
 3681.00    0.60560   0.58606   -1.000
 3682.00    0.61705   0.60540   -1.000
 3683.00    0.61553   0.61652  398.800
 3684.00    0.61033   0.60758  391.508
 3685.00    0.58547   0.57898  395.020
 3686.00    0.54978   0.54447  408.335
 3687.00    0.53757   0.53555  425.229
 3688.00    0.55190   0.55447  437.453
 3689.00    0.60099   0.59740  434.186
 3690.00    0.66138   0.64172   -1.000
 3691.00    0.68454   0.66902   -1.000
 3692.00    0.67769   0.66455   -1.000
 3693.00    0.65646   0.64714  363.559
 3694.00    0.63158   0.63525  370.389
 3695.00    0.63390   0.63007  377.990
 3696.00    0.64498   0.63496   -1.000
 3697.00    0.65831   0.65080  376.762
 3698.00    0.68896   0.67890  372.709
 3699.00    0.69337   0.70109   -1.000
 3700.00    0.68586   0.70928   -1.000
 3701.00    0.68968   0.69283  346.716
 3702.00    0.67158   0.64985   -1.000
 3703.00    0.61940   0.58677   -1.000
 3704.00    0.57184   0.53453   -1.000
 3705.00    0.55848   0.50037   -1.000
 3706.00    0.55066   0.50031   -1.000
 3707.00    0.53597   0.51034   -1.000
 3708.00    0.53347   0.52381   -1.000
 3709.00    0.55227   0.54175   -1.000
 3710.00    0.58916   0.57199   -1.000
 3711.00    0.63452   0.60578   -1.000
 3712.00    0.66831   0.64663   -1.000
 3713.00    0.69682   0.68048   -1.000
 3714.00    0.72467   0.69598   -1.000
 3715.00    0.71847   0.69108   -1.000
 3716.00    0.68268   0.66905   -1.000
 3717.00    0.64364   0.62659   -1.000
 3718.00    0.59120   0.56802   -1.000
 3719.00    0.52265   0.49825   -1.000
 3720.00    0.47102   0.44102   -1.000
 3721.00    0.45567   0.43124   -1.000
 3722.00    0.48027   0.46026   94.880
 3723.00    0.53723   0.51520   99.171
 3724.00    0.60261   0.57403   -1.000
 3725.00    0.65313   0.60710   -1.000
 3726.00    0.65827   0.60288   -1.000
 3727.00    0.62494   0.59059   -1.000
 3728.00    0.61743   0.59484   -1.000
 3729.00    0.62945   0.60169   -1.000
 3730.00    0.62302   0.59393   -1.000
 3731.00    0.58171   0.55824   -1.000
 3732.00    0.53916   0.49548   -1.000
 3733.00    0.48403   0.43886   -1.000
 3734.00    0.42372   0.39202   -1.000
 3735.00    0.40846   0.37857   55.707
 3736.00    0.42826   0.39800   60.115
 3737.00    0.45243   0.44662   59.572
 3738.00    0.49416   0.50772   55.149
 3739.00    0.55318   0.57350   95.735
 3740.00    0.58468   0.60921   -1.000
 3741.00    0.60932   0.61302  405.359
 3742.00    0.60846   0.58499   -1.000
 3743.00    0.56894   0.54666   -1.000
 3744.00    0.52138   0.50701   -1.000
 3745.00    0.49121   0.48557   -1.000
 3746.00    0.47566   0.46458   -1.000
 3747.00    0.46148   0.43861   -1.000
 3748.00    0.45364   0.41139   -1.000
 3749.00    0.44881   0.40438   55.075
 3750.00    0.47485   0.43620   57.151
 3751.00    0.53217   0.49831   -1.000
 3752.00    0.58780   0.55931   -1.000
 3753.00    0.63765   0.61388   -1.000
 3754.00    0.67409   0.65621   -1.000
 3755.00    0.68360   0.66112   -1.000
 3756.00    0.66010   0.62536   -1.000
 3757.00    0.59606   0.56789   -1.000
 3758.00    0.52813   0.52254   -1.000
 3759.00    0.51382   0.51909  443.305
 3760.00    0.53924   0.53904  452.188
 3761.00    0.55343   0.55959  449.912
 3762.00    0.56011   0.56573  425.113
 3763.00    0.58448   0.56580   -1.000
 3764.00    0.60085   0.56529   -1.000
 3765.00    0.59131   0.55926   -1.000
 3766.00    0.57973   0.54865   -1.000
 3767.00    0.57753   0.54484   -1.000
 3768.00    0.58158   0.54722   -1.000
 3769.00    0.59114   0.54978   -1.000
 3770.00    0.60847   0.55425   -1.000
 3771.00    0.62448   0.57319   -1.000
 3772.00    0.63995   0.60301   -1.000
 3773.00    0.66272   0.63092   -1.000
 3774.00    0.67200   0.64197   -1.000
 3775.00    0.66432   0.64763   -1.000
 3776.00    0.66649   0.65465   -1.000
 3777.00    0.67302   0.66536  364.060
 3778.00    0.67558   0.68143  363.082
 3779.00    0.68703   0.69747   -1.000
 3780.00    0.69306   0.71289   -1.000
 3781.00    0.69402   0.72233   -1.000
 3782.00    0.70958   0.72769   -1.000
 3783.00    0.72492   0.72720  334.066
 3784.00    0.72167   0.71050   -1.000
 3785.00    0.68203   0.67238   -1.000
 3786.00    0.62822   0.62973  350.012
 3787.00    0.59290   0.59443  372.632
 3788.00    0.56566   0.57532  396.259
 3789.00    0.56170   0.57674   -1.000
 3790.00    0.57207   0.58942   -1.000
 3791.00    0.58456   0.59848   -1.000
 3792.00    0.59583   0.59301  403.473
 3793.00    0.57860   0.56898   -1.000
 3794.00    0.54998   0.54376   -1.000
 3795.00    0.54066   0.52050   -1.000
 3796.00    0.53712   0.49744   -1.000
 3797.00    0.51777   0.46708   -1.000
 3798.00    0.49695   0.45238   -1.000
 3799.00    0.51595   0.47694   -1.000
 3800.00    0.56367   0.53280   -1.000
 3801.00    0.60095   0.58889   -1.000
 3802.00    0.62588   0.63718   -1.000
 3803.00    0.64779   0.66184   -1.000
 3804.00    0.64709   0.66812   -1.000
 3805.00    0.62538   0.65283   -1.000
 3806.00    0.59756   0.63093   -1.000
 3807.00    0.58054   0.62465   -1.000
 3808.00    0.59422   0.64384   -1.000
 3809.00    0.61470   0.67023   -1.000
 3810.00    0.63571   0.68342   -1.000
 3811.00    0.64612   0.67096   -1.000
 3812.00    0.61390   0.63338   -1.000
 3813.00    0.56500   0.59036   -1.000
 3814.00    0.53486   0.54971   -1.000
 3815.00    0.51791   0.53332   -1.000
 3816.00    0.51522   0.54081   -1.000
 3817.00    0.52278   0.55264   -1.000
 3818.00    0.51569   0.54373   -1.000
 3819.00    0.48477   0.51305   -1.000
 3820.00    0.46027   0.49083   -1.000
 3821.00    0.46064   0.49646   -1.000
 3822.00    0.47445   0.51742   -1.000
 3823.00    0.49870   0.51668   -1.000
 3824.00    0.49127   0.48858   -1.000
 3825.00    0.44374   0.46207   -1.000
 3826.00    0.41273   0.44901   -1.000
 3827.00    0.40902   0.45120   55.730
 3828.00    0.42650   0.46056   56.104
 3829.00    0.43863   0.46761   55.393
 3830.00    0.43083   0.46389   54.484
 3831.00    0.42834   0.44649   54.345
 3832.00    0.40975   0.42051   55.900
 3833.00    0.38574   0.39519   59.390
 3834.00    0.40555   0.38453   62.798
 3835.00    0.43123   0.38815   63.141
 3836.00    0.42855   0.39976   61.207
 3837.00    0.42281   0.40559   59.263
 3838.00    0.40854   0.40732   59.201
 3839.00    0.40861   0.41665   60.585
 3840.00    0.42745   0.44319   60.823
 3841.00    0.45449   0.48955   58.519
 3842.00    0.51007   0.53711   97.014
 3843.00    0.55521   0.57932   -1.000
 3844.00    0.56377   0.59872   -1.000
 3845.00    0.54874   0.60684   -1.000
 3846.00    0.55471   0.61265   -1.000
 3847.00    0.55459   0.61631   -1.000
 3848.00    0.54123   0.60664   -1.000
 3849.00    0.52561   0.59272   -1.000
 3850.00    0.51413   0.58838   -1.000
 3851.00    0.52640   0.60073   -1.000
 3852.00    0.54424   0.61348   -1.000
 3853.00    0.54627   0.61336   -1.000
 3854.00    0.53783   0.59609   -1.000
 3855.00    0.53127   0.57588   -1.000
 3856.00    0.51329   0.55851   -1.000
 3857.00    0.48770   0.53861   -1.000
 3858.00    0.45651   0.51408   -1.000
 3859.00    0.42747   0.50310   -1.000
 3860.00    0.43454   0.51783   -1.000
 3861.00    0.48943   0.55742   -1.000
 3862.00    0.55042   0.59888   -1.000
 3863.00    0.57876   0.61858   -1.000
 3864.00    0.57036   0.61355   -1.000
 3865.00    0.56162   0.60432   -1.000
 3866.00    0.55830   0.59988   -1.000
 3867.00    0.54353   0.60010   -1.000
 3868.00    0.52739   0.59686   -1.000
 3869.00    0.51294   0.58323   -1.000
 3870.00    0.49031   0.55664   -1.000
 3871.00    0.47451   0.53603   -1.000
 3872.00    0.47969   0.53400   -1.000
 3873.00    0.49631   0.55913   -1.000
 3874.00    0.54179   0.59734   -1.000
 3875.00    0.57743   0.62264   -1.000
 3876.00    0.56809   0.60813   -1.000
 3877.00    0.52904   0.57380   -1.000
 3878.00    0.50133   0.55363   -1.000
 3879.00    0.49515   0.55200   -1.000
 3880.00    0.49633   0.55956   -1.000
 3881.00    0.49626   0.56273   -1.000
 3882.00    0.50718   0.56433   -1.000
 3883.00    0.54233   0.57326   -1.000
 3884.00    0.57641   0.57060  452.188
 3885.00    0.58816   0.54049   -1.000
 3886.00    0.55743   0.49848   -1.000
 3887.00    0.51506   0.46856   -1.000
 3888.00    0.53285   0.46578   -1.000
 3889.00    0.58570   0.49497   -1.000
 3890.00    0.62365   0.54758   -1.000
 3891.00    0.65832   0.60487   -1.000
 3892.00    0.68638   0.64441   -1.000
 3893.00    0.69775   0.65066   -1.000
 3894.00    0.68720   0.64330   -1.000
 3895.00    0.67291   0.64327   -1.000
 3896.00    0.67897   0.65431   -1.000
 3897.00    0.68798   0.66473   -1.000
 3898.00    0.68354   0.66255   -1.000
 3899.00    0.67499   0.65639   -1.000
 3900.00    0.67695   0.66177   -1.000
 3901.00    0.68878   0.66959   -1.000
 3902.00    0.69548   0.66741   -1.000
 3903.00    0.67470   0.65415   -1.000
 3904.00    0.64455   0.63444   -1.000
 3905.00    0.62513   0.62804  368.438
 3906.00    0.61899   0.63925   -1.000
 3907.00    0.65840   0.67228   -1.000
 3908.00    0.72163   0.71206   -1.000
 3909.00    0.74583   0.73990  347.104
 3910.00    0.74663   0.75087  330.558
 3911.00    0.76094   0.75935  325.124
 3912.00    0.77911   0.76207   -1.000
 3913.00    0.77328   0.75716   -1.000
 3914.00    0.76440   0.74726   -1.000
 3915.00    0.76580   0.73593   -1.000
 3916.00    0.75577   0.72405   -1.000
 3917.00    0.74200   0.71066   -1.000
 3918.00    0.71432   0.68763   -1.000
 3919.00    0.66425   0.65671   -1.000
 3920.00    0.61788   0.63001   -1.000
 3921.00    0.59718   0.61528   -1.000
 3922.00    0.60969   0.62071   -1.000
 3923.00    0.62986   0.63280  396.123
 3924.00    0.63983   0.63492  390.664
 3925.00    0.61729   0.62032  387.954
 3926.00    0.57541   0.58461  398.314
 3927.00    0.51622   0.54077   -1.000
 3928.00    0.44975   0.49178   -1.000
 3929.00    0.41629   0.45083  117.316
 3930.00    0.39836   0.41022   62.389
 3931.00    0.35088   0.36976   73.091
 3932.00    0.29126   0.33207   85.897
 3933.00    0.26914   0.30509  101.201
 3934.00    0.26474   0.31183   -1.000
 3935.00    0.27812   0.34863   -1.000
 3936.00    0.33121   0.39699   -1.000
 3937.00    0.38372   0.44799   -1.000
 3938.00    0.43458   0.50208   -1.000
 3939.00    0.48772   0.54373   62.952
 3940.00    0.51856   0.57748   -1.000
 3941.00    0.55907   0.59141   -1.000
 3942.00    0.57972   0.59229  452.188
 3943.00    0.57446   0.58922   -1.000
 3944.00    0.57330   0.60124   -1.000
 3945.00    0.60004   0.63143   -1.000
 3946.00    0.65350   0.66100  407.136
 3947.00    0.68768   0.67845   -1.000
 3948.00    0.70333   0.68999   -1.000
 3949.00    0.73007   0.70771   -1.000
 3950.00    0.76287   0.72686   -1.000
 3951.00    0.75710   0.72732   -1.000
 3952.00    0.74105   0.72501   -1.000
 3953.00    0.76261   0.73278   -1.000
 3954.00    0.78035   0.74164   -1.000
 3955.00    0.76701   0.73707   -1.000
 3956.00    0.74447   0.72046   -1.000
 3957.00    0.73612   0.71136   -1.000
 3958.00    0.73392   0.71154   -1.000
 3959.00    0.70646   0.69349   -1.000
 3960.00    0.64880   0.64026  343.298
 3961.00    0.59073   0.58226   -1.000
 3962.00    0.53383   0.53489  406.024
 3963.00    0.50743   0.51159  452.188
 3964.00    0.49011   0.48777   -1.000
 3965.00    0.45127   0.44561  114.231
 3966.00    0.37952   0.38588   58.599
 3967.00    0.31818   0.32400   70.133
 3968.00    0.29383   0.28902   86.318
 3969.00    0.28244   0.28924  101.500
 3970.00    0.30519   0.32424  104.135
 3971.00    0.37553   0.37978   91.461
 3972.00    0.45674   0.44501   75.208
 3973.00    0.51859   0.50650   62.310
 3974.00    0.57596   0.56949   88.934
 3975.00    0.63569   0.62338   -1.000
 3976.00    0.68470   0.67234   -1.000
 3977.00    0.73103   0.71736   -1.000
 3978.00    0.77658   0.75795   -1.000
 3979.00    0.81598   0.79520   -1.000
 3980.00    0.84802   0.80871   -1.000
 3981.00    0.85133   0.80599   -1.000
 3982.00    0.83468   0.79491   -1.000
 3983.00    0.82904   0.79405   -1.000
 3984.00    0.83366   0.80736   -1.000
 3985.00    0.84191   0.82352   -1.000
 3986.00    0.88004   0.84075   -1.000
 3987.00    0.90924   0.85913   -1.000
 3988.00    0.90088   0.87155   -1.000
 3989.00    0.90885   0.87412   -1.000
 3990.00    0.92004   0.87632   -1.000
 3991.00    0.92885   0.88611   -1.000
 3992.00    0.95036   0.90118   -1.000
 3993.00    0.94951   0.90808   -1.000
 3994.00    0.92881   0.89802   -1.000
 3995.00    0.91318   0.87808   -1.000
 3996.00    0.88729   0.85723   -1.000
 3997.00    0.86720   0.85455   -1.000
 3998.00    0.87687   0.87260  287.358
 3999.00    0.91232   0.90281  285.961
 4000.00    0.96971   0.92937   -1.000
 4001.00    1.00291   0.94887   -1.000
 4002.00    0.99085   0.95077   -1.000
 4003.00    0.97617   0.92728   -1.000
 4004.00    0.92697   0.87835   -1.000
 4005.00    0.86868   0.83669   -1.000
 4006.00    0.86291   0.83769   -1.000
 4007.00    0.91082   0.87572   -1.000
 4008.00    0.95724   0.92145   -1.000
 4009.00    0.97680   0.94547   -1.000
 4010.00    0.97975   0.95569   -1.000
 4011.00    0.97317   0.96021  254.839
 4012.00    0.98345   0.96327   -1.000
 4013.00    0.98801   0.96861   -1.000
 4014.00    0.99514   0.97574   -1.000
 4015.00    1.05031   0.97801   -1.000
 4016.00    1.05385   0.97345   -1.000
 4017.00    1.00000   0.97110   -1.000
 4018.00    0.98500   0.98040  253.591
 4019.00    1.01095   0.99071   -1.000
 4020.00    1.03499   0.99638   -1.000
 4021.00    1.01640   0.99005   -1.000
 4022.00    1.00334   0.98170   -1.000
 4023.00    1.00699   0.97084   -1.000
 4024.00    0.99679   0.96042   -1.000
 4025.00    0.99086   0.96322   -1.000
 4026.00    1.01835   0.98577   -1.000
 4027.00    1.05385   1.01375   -1.000
 4028.00    1.05699   1.01231   -1.000
 4029.00    1.01831   0.96970   -1.000
 4030.00    0.96229   0.90392   -1.000
 4031.00    0.91812   0.85546   -1.000
 4032.00    0.88773   0.83237   -1.000
 4033.00    0.87600   0.83674   -1.000
 4034.00    0.90307   0.86634   -1.000
 4035.00    0.96693   0.92039   -1.000
 4036.00    1.03541   0.97965   -1.000
 4037.00    1.06758   1.03390   -1.000
 4038.00    1.07287   1.04988   -1.000
 4039.00    1.07226   1.03358   -1.000
 4040.00    1.06328   1.01266   -1.000
 4041.00    1.05104   1.00504   -1.000
 4042.00    1.04048   0.98518   -1.000
 4043.00    1.00075   0.92987   -1.000
 4044.00    0.90022   0.84142   -1.000
 4045.00    0.81159   0.77891   -1.000
 4046.00    0.81523   0.79474   -1.000
 4047.00    0.88348   0.87283  305.340
 4048.00    0.97552   0.95030   -1.000
 4049.00    1.04953   1.00703   -1.000
 4050.00    1.08449   1.02729   -1.000
 4051.00    1.08074   1.02512   -1.000
 4052.00    1.04868   1.00595   -1.000
 4053.00    1.01874   0.98043   -1.000
 4054.00    0.98418   0.96030   -1.000
 4055.00    0.95936   0.94690  258.590
 4056.00    0.94998   0.93067   -1.000
 4057.00    0.93834   0.91862   -1.000
 4058.00    0.93630   0.92848  265.874
 4059.00    0.97173   0.95702   -1.000
 4060.00    1.02677   0.97332   -1.000
 4061.00    1.03077   0.94500   -1.000
 4062.00    0.96646   0.88090   -1.000
 4063.00    0.88213   0.83382   -1.000
 4064.00    0.85136   0.82605   -1.000
 4065.00    0.89618   0.84989   -1.000
 4066.00    0.95504   0.88798   -1.000
 4067.00    0.97885   0.92286   -1.000
 4068.00    1.01557   0.95050   -1.000
 4069.00    1.05406   0.95539   -1.000
 4070.00    1.03475   0.92270   -1.000
 4071.00    0.97300   0.88232   -1.000
 4072.00    0.94590   0.88214   -1.000
 4073.00    0.98748   0.91313   -1.000
 4074.00    1.02278   0.93448   -1.000
 4075.00    0.98408   0.90918   -1.000
 4076.00    0.92692   0.86028   -1.000
 4077.00    0.88356   0.83765   -1.000
 4078.00    0.87051   0.85958   -1.000
 4079.00    0.92604   0.92193  296.763
 4080.00    1.00732   0.98416   -1.000
 4081.00    1.04861   1.01792   -1.000
 4082.00    1.04772   1.00764   -1.000
 4083.00    1.03682   0.97779   -1.000
 4084.00    1.01226   0.95895   -1.000
 4085.00    1.00236   0.97080   -1.000
 4086.00    1.03637   1.00887   -1.000
 4087.00    1.10546   1.04891   -1.000
 4088.00    1.15571   1.07664   -1.000
 4089.00    1.14756   1.07548   -1.000
 4090.00    1.12346   1.05493   -1.000
 4091.00    1.09944   1.03213   -1.000
 4092.00    1.08474   1.02425   -1.000
 4093.00    1.08752   1.01344   -1.000
 4094.00    1.07351   0.99164   -1.000
 4095.00    1.03908   0.95444   -1.000
 4096.00    0.99102   0.91780   -1.000
 4097.00    0.95892   0.89525   -1.000
 4098.00    0.95220   0.87093   -1.000
 4099.00    0.93101   0.82840   -1.000
 4100.00    0.86643   0.76660   -1.000
 4101.00    0.81094   0.72563   -1.000
 4102.00    0.80419   0.73337   -1.000
 4103.00    0.85491   0.79245   -1.000
 4104.00    0.92922   0.86570   -1.000
 4105.00    0.98898   0.92857   -1.000
 4106.00    1.03141   0.96212   -1.000
 4107.00    1.04332   0.97865   -1.000
 4108.00    1.04042   0.97767   -1.000
 4109.00    1.02793   0.96639   -1.000
 4110.00    1.00526   0.95870   -1.000
 4111.00    0.99842   0.96347   -1.000
 4112.00    1.01146   0.97889   -1.000
 4113.00    1.02946   1.00114   -1.000
 4114.00    1.04191   1.02493  256.872
 4115.00    1.06296   1.03991   -1.000
 4116.00    1.06120   1.03568   -1.000
 4117.00    1.03389   1.01447   -1.000
 4118.00    1.01332   0.99050   -1.000
 4119.00    0.99745   0.97776   -1.000
 4120.00    1.00416   0.98290   -1.000
 4121.00    1.01921   0.99251   -1.000
 4122.00    1.00722   0.99821  261.764
 4123.00    1.00457   1.00513  260.162
 4124.00    1.02705   1.01769  259.367
 4125.00    1.04486   1.02647   -1.000
 4126.00    1.04627   1.01955   -1.000
 4127.00    1.04159   1.00172   -1.000
 4128.00    1.03340   0.98838   -1.000
 4129.00    1.00327   0.97968   -1.000
 4130.00    0.97861   0.95936   -1.000
 4131.00    0.94956   0.92820   -1.000
 4132.00    0.92450   0.89941   -1.000
 4133.00    0.91305   0.90191  279.789
 4134.00    0.93193   0.93918  285.709
 4135.00    0.98837   0.98647  282.502
 4136.00    1.03120   1.02889  271.079
 4137.00    1.05000   1.05457  259.031
 4138.00    1.07046   1.06757  252.262
 4139.00    1.07752   1.07236  248.331
 4140.00    1.06424   1.05270  245.498
 4141.00    1.01685   0.99764   -1.000
 4142.00    0.94800   0.92674   -1.000
 4143.00    0.88052   0.88325  271.254
 4144.00    0.87820   0.89316   -1.000
 4145.00    0.92907   0.94415   -1.000
 4146.00    0.98063   0.99469   -1.000
 4147.00    1.00215   1.01146   -1.000
 4148.00    1.01106   1.00305  260.932
 4149.00    0.98717   0.99013  261.104
 4150.00    0.97792   0.98806   -1.000
 4151.00    0.98362   0.98852  273.219
 4152.00    0.97242   0.98360   -1.000
 4153.00    0.96674   0.97042  272.600
 4154.00    0.97208   0.95773   -1.000
 4155.00    0.97497   0.95664   -1.000
 4156.00    0.96780   0.97136  276.326
 4157.00    0.96722   0.99361   -1.000
 4158.00    1.06898   1.02273   -1.000
 4159.00    1.31376   1.04970   -1.000
 4160.00    1.23007   1.06464   -1.000
 4161.00    0.77643   1.07767   -1.000
 4162.00    0.87732   1.08764   -1.000
 4163.00    1.12126   1.09150   -1.000
 4164.00    1.07322   1.08231   -1.000
 4165.00    1.01990   1.05936   -1.000
 4166.00    1.00044   1.02978   -1.000
 4167.00    0.99185   1.01828   -1.000
 4168.00    1.00499   1.02294   -1.000
 4169.00    1.01710   1.03182   -1.000
 4170.00    1.00243   1.01591   -1.000
 4171.00    0.96584   0.97200  264.646
 4172.00    0.91629   0.93000   -1.000
 4173.00    0.89010   0.91643   -1.000
 4174.00    0.91182   0.93724   -1.000
 4175.00    0.96339   0.96625  296.948
 4176.00    0.96371   0.97929   -1.000
 4177.00    0.94839   0.98544   -1.000
 4178.00    0.95120   0.99944   -1.000
 4179.00    0.97444   1.01346   -1.000
 4180.00    0.97341   1.01496   -1.000
 4181.00    0.98780   1.00287   -1.000
 4182.00    0.98249   1.00047   -1.000
 4183.00    1.00119   1.02302   -1.000
 4184.00    1.05332   1.04330  267.877
 4185.00    1.06207   1.04017   -1.000
 4186.00    1.01413   1.01180  259.728
 4187.00    0.96760   0.98738   -1.000
 4188.00    0.98157   0.99131   -1.000
 4189.00    1.00803   1.01160  276.073
 4190.00    1.00487   1.03011   -1.000
 4191.00    1.00351   1.04332   -1.000
 4192.00    1.01950   1.05999   -1.000
 4193.00    1.04654   1.06946   -1.000
 4194.00    1.03756   1.05349   -1.000
 4195.00    0.99606   1.00871   -1.000
 4196.00    0.94455   0.96584   -1.000
 4197.00    0.91033   0.93517   -1.000
 4198.00    0.91671   0.92384  286.032
 4199.00    0.93838   0.92052   -1.000
 4200.00    0.96149   0.92690   -1.000
 4201.00    0.96540   0.93496   -1.000
 4202.00    0.96413   0.94958  281.525
 4203.00    0.96838   0.97663   -1.000
 4204.00    0.99768   1.01409   -1.000
 4205.00    1.00941   1.04943   -1.000
 4206.00    1.04301   1.07595   -1.000
 4207.00    1.06909   1.09468   -1.000
 4208.00    1.07540   1.09656   -1.000
 4209.00    1.08207   1.08831  255.248
 4210.00    1.07944   1.08318  254.877
 4211.00    1.06917   1.08961   -1.000
 4212.00    1.07091   1.09361   -1.000
 4213.00    1.06540   1.06918  253.707
 4214.00    1.02773   1.02304  257.540
 4215.00    0.97765   0.99581   -1.000
 4216.00    0.98139   1.00897   -1.000
 4217.00    1.05573   1.06513   -1.000
 4218.00    1.13084   1.11615  266.985
 4219.00    1.16672   1.15066  251.475
 4220.00    1.17670   1.15472   -1.000
 4221.00    1.16949   1.13315   -1.000
 4222.00    1.13077   1.08127   -1.000
 4223.00    1.06872   1.00074   -1.000
 4224.00    0.97516   0.89134   -1.000
 4225.00    0.85682   0.79884   -1.000
 4226.00    0.75950   0.75083  303.598
 4227.00    0.75312   0.78941   -1.000
 4228.00    0.86459   0.89714   -1.000
 4229.00    1.01220   1.01638   -1.000
 4230.00    1.10331   1.07469   -1.000
 4231.00    1.12629   1.08890   -1.000
 4232.00    1.11375   1.06840   -1.000
 4233.00    1.09125   1.04121   -1.000
 4234.00    1.06607   1.01694   -1.000
 4235.00    1.04069   1.00648   -1.000
 4236.00    1.02325   1.00345   -1.000
 4237.00    1.02377   1.01260  266.998
 4238.00    1.03141   1.03563  269.568
 4239.00    1.04665   1.06268   -1.000
 4240.00    1.07976   1.08687   -1.000
 4241.00    1.11681   1.11056  256.287
 4242.00    1.13859   1.12961  251.771
 4243.00    1.15357   1.15521  249.177
 4244.00    1.18343   1.17894  247.122
 4245.00    1.19537   1.17709   -1.000
 4246.00    1.14755   1.13915  239.714
 4247.00    1.09378   1.08472  245.197
 4248.00    1.05581   1.03238   -1.000
 4249.00    1.02142   1.00740  264.949
 4250.00    1.00344   1.00896  270.214
 4251.00    1.01829   1.03130   -1.000
 4252.00    1.04854   1.04611  268.779
 4253.00    1.04977   1.03454  260.813
 4254.00    1.03560   1.01438   -1.000
 4255.00    1.04199   1.02952  259.791
 4256.00    1.08900   1.07556  263.779
 4257.00    1.13131   1.09505   -1.000
 4258.00    1.11316   1.05965   -1.000
 4259.00    1.04692   1.00122   -1.000
 4260.00    0.99369   0.97431   -1.000
 4261.00    1.01289   1.01163  275.644
 4262.00    1.07954   1.08897   -1.000
 4263.00    1.15007   1.16427   -1.000
 4264.00    1.19605   1.19906  248.209
 4265.00    1.21074   1.20283  238.486
 4266.00    1.21076   1.18627   -1.000
 4267.00    1.17779   1.15176   -1.000
 4268.00    1.12176   1.09671   -1.000
 4269.00    1.05766   1.03063   -1.000
 4270.00    0.98757   0.95334   -1.000
 4271.00    0.92759   0.90177   -1.000
 4272.00    0.89150   0.88309  286.959
 4273.00    0.90539   0.90119  300.122
 4274.00    0.94696   0.93788  299.611
 4275.00    0.99224   0.99426  292.288
 4276.00    1.04980   1.06420   -1.000
 4277.00    1.11751   1.12984   -1.000
 4278.00    1.14675   1.14716  252.232
 4279.00    1.12019   1.12372  244.229
 4280.00    1.09464   1.09084  247.815
 4281.00    1.07195   1.08255   -1.000
 4282.00    1.06895   1.09372   -1.000
 4283.00    1.09313   1.09792  264.012
 4284.00    1.08712   1.08544  260.519
 4285.00    1.05482   1.06708   -1.000
 4286.00    1.03907   1.05124   -1.000
 4287.00    1.01966   1.02842  272.515
 4288.00    0.99116   0.98876  278.431
 4289.00    0.94370   0.93922  284.291
 4290.00    0.91874   0.92406  296.530
 4291.00    0.95438   0.96097  307.252
 4292.00    1.01905   1.01684  302.287
 4293.00    1.05990   1.04499   -1.000
 4294.00    1.06233   1.04150   -1.000
 4295.00    1.05387   1.02237   -1.000
 4296.00    1.03046   0.99390   -1.000
 4297.00    0.97086   0.94479   -1.000
 4298.00    0.90320   0.88102   -1.000
 4299.00    0.84341   0.82309   -1.000
 4300.00    0.79815   0.80290  329.084
 4301.00    0.79524   0.81295   -1.000
 4302.00    0.82748   0.83296  346.499
 4303.00    0.85769   0.84773   -1.000
 4304.00    0.87496   0.85873   -1.000
 4305.00    0.86410   0.85238   -1.000
 4306.00    0.83821   0.81702   -1.000
 4307.00    0.79513   0.77459   -1.000
 4308.00    0.76524   0.75360   -1.000
 4309.00    0.77491   0.77497  359.389
 4310.00    0.81796   0.82661  363.101
 4311.00    0.86857   0.89178   -1.000
 4312.00    0.94629   0.95082  330.778
 4313.00    1.01052   1.01926   -1.000
 4314.00    1.06327   1.10441   -1.000
 4315.00    1.16195   1.19605   -1.000
 4316.00    1.24990   1.28709   -1.000
 4317.00    1.31408   1.33313   -1.000
 4318.00    1.32989   1.33283  225.893
 4319.00    1.32000   1.30649  220.605
 4320.00    1.27991   1.27572  221.903
 4321.00    1.24167   1.22401  225.979
 4322.00    1.19459   1.14870   -1.000
 4323.00    1.10016   1.04288   -1.000
 4324.00    0.99031   0.95107   -1.000
 4325.00    0.92272   0.92521  274.962
 4326.00    0.95603   0.98621   -1.000
 4327.00    1.06737   1.10424   -1.000
 4328.00    1.20341   1.21825   -1.000
 4329.00    1.25776   1.26647   -1.000
 4330.00    1.26573   1.27239  233.550
 4331.00    1.25932   1.26901   -1.000
 4332.00    1.26898   1.28370   -1.000
 4333.00    1.29221   1.30204   -1.000
 4334.00    1.32209   1.30634  225.828
 4335.00    1.32485   1.27450   -1.000
 4336.00    1.28184   1.19498   -1.000
 4337.00    1.16288   1.07826   -1.000
 4338.00    1.06183   0.95992   -1.000
 4339.00    0.97918   0.89857   -1.000
 4340.00    0.94758   0.89896   -1.000
 4341.00    0.99061   0.96172   -1.000
 4342.00    1.08020   1.05754   -1.000
 4343.00    1.15551   1.13958   -1.000
 4344.00    1.21188   1.18548   -1.000
 4345.00    1.23653   1.22321  249.833
 4346.00    1.25697   1.25356  242.582
 4347.00    1.28477   1.28505  236.726
 4348.00    1.30466   1.30979  233.259
 4349.00    1.31115   1.29654  230.472
 4350.00    1.26346   1.22747   -1.000
 4351.00    1.16056   1.14830  231.958
 4352.00    1.10441   1.11298   -1.000
 4353.00    1.13427   1.14184   -1.000
 4354.00    1.20160   1.20053  260.156
 4355.00    1.23943   1.25212   -1.000
 4356.00    1.27983   1.27533  238.265
 4357.00    1.29538   1.27938  231.762
 4358.00    1.27834   1.26752  228.410
 4359.00    1.26680   1.26158  230.090
 4360.00    1.26787   1.28055   -1.000
 4361.00    1.28873   1.31430   -1.000
 4362.00    1.33496   1.34315   -1.000
 4363.00    1.35512   1.35978  223.900
 4364.00    1.35793   1.37541   -1.000
 4365.00    1.38098   1.37464  220.794
 4366.00    1.35883   1.33912   -1.000
 4367.00    1.29579   1.29091  220.663
 4368.00    1.25703   1.26505  228.218
 4369.00    1.25999   1.25791  235.069
 4370.00    1.27777   1.25834   -1.000
 4371.00    1.29006   1.24834   -1.000
 4372.00    1.26267   1.21958   -1.000
 4373.00    1.22529   1.17701   -1.000
 4374.00    1.16660   1.13554   -1.000
 4375.00    1.14555   1.13108  247.633
 4376.00    1.18848   1.17585  254.843
 4377.00    1.25837   1.23725   -1.000
 4378.00    1.30488   1.26815   -1.000
 4379.00    1.30559   1.26064   -1.000
 4380.00    1.28040   1.21204   -1.000
 4381.00    1.21964   1.11603   -1.000
 4382.00    1.10626   0.99406   -1.000
 4383.00    0.97681   0.90338   -1.000
 4384.00    0.91761   0.89685   -1.000
 4385.00    0.98689   0.98286  304.702
 4386.00    1.12567   1.09151   -1.000
 4387.00    1.20099   1.15201   -1.000
 4388.00    1.20474   1.16046   -1.000
 4389.00    1.19001   1.15405   -1.000
 4390.00    1.17687   1.15687   -1.000
 4391.00    1.18658   1.17509  246.003
 4392.00    1.22628   1.19894   -1.000
 4393.00    1.24099   1.20789   -1.000
 4394.00    1.22267   1.20743  236.347
 4395.00    1.22526   1.22564  239.277
 4396.00    1.26236   1.27295   -1.000
 4397.00    1.32574   1.30869  239.136
 4398.00    1.33907   1.29960   -1.000
 4399.00    1.28493   1.25959   -1.000
 4400.00    1.24012   1.23172  229.858
 4401.00    1.23312   1.21962  238.251
 4402.00    1.25297   1.20348   -1.000
 4403.00    1.23032   1.14735   -1.000
 4404.00    1.14565   1.08046   -1.000
 4405.00    1.10018   1.06005   -1.000
 4406.00    1.12715   1.09345   -1.000
 4407.00    1.17234   1.13999   -1.000
 4408.00    1.19777   1.18681  250.477
 4409.00    1.22924   1.24072   -1.000
 4410.00    1.31122   1.31529  243.401
 4411.00    1.37056   1.37015  233.389
 4412.00    1.37873   1.36290  223.887
 4413.00    1.35848   1.30520   -1.000
 4414.00    1.29688   1.23359   -1.000
 4415.00    1.22301   1.18258   -1.000
 4416.00    1.22258   1.19696   -1.000
 4417.00    1.26094   1.26484  243.487
 4418.00    1.33015   1.34192   -1.000
 4419.00    1.36893   1.38645   -1.000
 4420.00    1.37643   1.38492  221.688
 4421.00    1.34251   1.34529  217.495
 4422.00    1.28868   1.30584   -1.000
 4423.00    1.26860   1.29114   -1.000
 4424.00    1.28550   1.30217   -1.000
 4425.00    1.30406   1.31181  227.003
 4426.00    1.29287   1.31108   -1.000
 4427.00    1.28919   1.31866   -1.000
 4428.00    1.28661   1.32603   -1.000
 4429.00    1.28052   1.32411   -1.000
 4430.00    1.26017   1.31816   -1.000
 4431.00    1.27631   1.31593   -1.000
 4432.00    1.28744   1.31564   -1.000
 4433.00    1.26383   1.28599   -1.000
 4434.00    1.21501   1.23473   -1.000
 4435.00    1.20317   1.21822   -1.000
 4436.00    1.24106   1.26026   -1.000
 4437.00    1.31673   1.34902   -1.000
 4438.00    1.38779   1.41270   -1.000
 4439.00    1.42773   1.42709  218.370
 4440.00    1.40613   1.38536   -1.000
 4441.00    1.33709   1.32064  213.117
 4442.00    1.27391   1.27580  221.145
 4443.00    1.25304   1.28446   -1.000
 4444.00    1.30592   1.34659   -1.000
 4445.00    1.37390   1.40860   -1.000
 4446.00    1.41963   1.44310   -1.000
 4447.00    1.43530   1.44652   -1.000
 4448.00    1.43493   1.44144  216.139
 4449.00    1.41991   1.43919   -1.000
 4450.00    1.40182   1.43125   -1.000
 4451.00    1.38568   1.41520   -1.000
 4452.00    1.38756   1.38556  221.128
 4453.00    1.36444   1.33197   -1.000
 4454.00    1.30252   1.26143   -1.000
 4455.00    1.24921   1.22543   -1.000
 4456.00    1.23492   1.22665  241.859
 4457.00    1.26525   1.24635   -1.000
 4458.00    1.28241   1.25611   -1.000
 4459.00    1.26356   1.25038  236.442
 4460.00    1.24939   1.24547  237.090
 4461.00    1.23857   1.25431   -1.000
 4462.00    1.25852   1.28493   -1.000
 4463.00    1.30270   1.33196   -1.000
 4464.00    1.36481   1.37060  235.326
 4465.00    1.38490   1.38555  226.684
 4466.00    1.38887   1.37888  222.727
 4467.00    1.39464   1.36498   -1.000
 4468.00    1.38831   1.35203   -1.000
 4469.00    1.36162   1.34676   -1.000
 4470.00    1.35522   1.36354  230.398
 4471.00    1.37510   1.40900   -1.000
 4472.00    1.44019   1.45525   -1.000
 4473.00    1.48129   1.49267   -1.000
 4474.00    1.50078   1.50851  211.388
 4475.00    1.50645   1.51778   -1.000
 4476.00    1.51473   1.53430   -1.000
 4477.00    1.53747   1.54354  205.581
 4478.00    1.53423   1.51881  203.787
 4479.00    1.48272   1.45763   -1.000
 4480.00    1.39154   1.38407  206.600
 4481.00    1.34178   1.35127  215.004
 4482.00    1.35650   1.37479   -1.000
 4483.00    1.41245   1.44261   -1.000
 4484.00    1.49885   1.51005   -1.000
 4485.00    1.54319   1.55812   -1.000
 4486.00    1.54538   1.55918   -1.000
 4487.00    1.53750   1.51901  203.502
 4488.00    1.48794   1.45604   -1.000
 4489.00    1.41594   1.41924  210.653
 4490.00    1.39791   1.42326   -1.000
 4491.00    1.44756   1.45574  221.417
 4492.00    1.48461   1.47804  217.806
 4493.00    1.48018   1.45875   -1.000
 4494.00    1.43136   1.42111  210.511
 4495.00    1.36825   1.40090   -1.000
 4496.00    1.39029   1.42275   -1.000
 4497.00    1.45553   1.46816   -1.000
 4498.00    1.50066   1.50585  220.156
 4499.00    1.53121   1.52301  212.585
 4500.00    1.53018   1.51836  207.528
 4501.00    1.49888   1.51816   -1.000
 4502.00    1.51101   1.54310   -1.000
 4503.00    1.55461   1.58316   -1.000
 4504.00    1.58702   1.62570   -1.000
 4505.00    1.61396   1.64261   -1.000
 4506.00    1.60350   1.62870   -1.000
 4507.00    1.59973   1.60546  196.054
 4508.00    1.57604   1.59484   -1.000
 4509.00    1.59963   1.59884  201.232
 4510.00    1.60023   1.60630  200.929
 4511.00    1.59573   1.59994  199.323
 4512.00    1.57054   1.57409  198.599
 4513.00    1.53090   1.54352   -1.000
 4514.00    1.52104   1.52226  204.979
 4515.00    1.51703   1.51586  208.108
 4516.00    1.52323   1.52069  208.774
 4517.00    1.50619   1.52228   -1.000
 4518.00    1.49010   1.52052   -1.000
 4519.00    1.50658   1.53361   -1.000
 4520.00    1.57336   1.55713   -1.000
 4521.00    1.59185   1.57146   -1.000
 4522.00    1.54836   1.56078  203.721
 4523.00    1.50922   1.52930   -1.000
 4524.00    1.48454   1.49451  210.447
 4525.00    1.44913   1.45901  214.157
 4526.00    1.40392   1.41032  216.216
 4527.00    1.35048   1.35698  220.568
 4528.00    1.31192   1.31867  227.413
 4529.00    1.32412   1.31349  233.046
 4530.00    1.35667   1.33825   -1.000
 4531.00    1.38420   1.37310  232.255
 4532.00    1.41075   1.39281   -1.000
 4533.00    1.41278   1.38556   -1.000
 4534.00    1.36647   1.36642  225.005
 4535.00    1.35487   1.36823   -1.000
 4536.00    1.39380   1.41513   -1.000
 4537.00    1.48912   1.49011  231.834
 4538.00    1.56726   1.55000   -1.000
 4539.00    1.56495   1.56103  206.563
 4540.00    1.53499   1.53719  202.856
 4541.00    1.52707   1.51470  205.798
 4542.00    1.53031   1.51693  209.897
 4543.00    1.54424   1.52730   -1.000
 4544.00    1.52631   1.52630  207.686
 4545.00    1.49886   1.51037  220.397
 4546.00    1.49827   1.49643  214.984
 4547.00    1.35890   1.48870   -1.000
 4548.00    0.41951   1.47405   -1.000
 4549.00   -0.01876   1.45783    0.000
 4550.00    0.19371   1.45832   -1.000
 4551.00    1.06234   1.48130   -1.000
 4552.00    0.71689   1.49507   -1.000
 4553.00    0.95071   1.48257   -1.000
 4554.00    1.54573   1.46422   -1.000
 4555.00    1.46766   1.46438  221.143
 4556.00    1.51894   1.49957   -1.000
 4557.00    1.57258   1.55822   -1.000
 4558.00    1.61343   1.60738  209.136
 4559.00    1.62556   1.63045  201.600
 4560.00    1.61731   1.63826   -1.000
 4561.00    1.61310   1.63395   -1.000
 4562.00    1.59775   1.61711   -1.000
 4563.00    1.56472   1.57991  201.088
 4564.00    1.51224   1.53988   -1.000
 4565.00    1.49239   1.52154   -1.000
 4566.00    1.53750   1.54228  213.337
 4567.00    1.60013   1.58889  210.097
 4568.00    1.64574   1.62777   -1.000
 4569.00    1.65271   1.62987   -1.000
 4570.00    1.59452   1.60247  198.727
 4571.00    1.53039   1.56785   -1.000
 4572.00    1.53198   1.55511   -1.000
 4573.00    1.56986   1.58063  211.132
 4574.00    1.62338   1.61636  208.318
 4575.00    1.65215   1.63260   -1.000
 4576.00    1.64049   1.62883  200.243
 4577.00    1.63111   1.61540   -1.000
 4578.00    1.57697   1.58661  201.660
 4579.00    1.53572   1.54168  203.258
 4580.00    1.51513   1.50078   -1.000
 4581.00    1.49822   1.48618   -1.000
 4582.00    1.51855   1.49713   -1.000
 4583.00    1.51997   1.51502  215.445
 4584.00    1.50724   1.52169  212.546
 4585.00    1.50624   1.51486  211.452
 4586.00    1.51119   1.51954  212.319
 4587.00    1.55586   1.54951  212.913
 4588.00    1.60260   1.59072  209.267
 4589.00    1.62681   1.61876  203.829
 4590.00    1.62145   1.61746  200.273
 4591.00    1.57769   1.59145  200.742
 4592.00    1.54166   1.55789   -1.000
 4593.00    1.53675   1.53854  207.803
 4594.00    1.52505   1.53404  210.828
 4595.00    1.53442   1.53583  210.499
 4596.00    1.53909   1.53960  208.634
 4597.00    1.54883   1.54906  207.194
 4598.00    1.55101   1.56035  206.717
 4599.00    1.55601   1.56415  206.280
 4600.00    1.56667   1.55952  206.210
 4601.00    1.54263   1.55353  208.155
 4602.00    1.53909   1.55386  209.803
 4603.00    1.55931   1.55795  209.834
 4604.00    1.58610   1.55984   -1.000
 4605.00    1.59550   1.56422   -1.000
 4606.00    1.58892   1.58222  205.928
 4607.00    1.62670   1.61851  205.214
 4608.00    1.68255   1.66314   -1.000
 4609.00    1.70540   1.69994  198.411
 4610.00    1.70066   1.70331  194.474
 4611.00    1.68201   1.67927  192.811
 4612.00    1.66930   1.65366   -1.000
 4613.00    1.65219   1.64164  196.817
 4614.00    1.66125   1.64665   -1.000
 4615.00    1.66801   1.66114  199.680
 4616.00    1.66691   1.67235  198.443
 4617.00    1.66097   1.67575  196.799
 4618.00    1.66672   1.67379  196.412
 4619.00    1.67584   1.67062  197.862
 4620.00    1.67675   1.67358  199.062
 4621.00    1.69948   1.68615   -1.000
 4622.00    1.70276   1.69640  196.305
 4623.00    1.69988   1.69425  193.619
 4624.00    1.70336   1.68455   -1.000
 4625.00    1.69664   1.67782   -1.000
 4626.00    1.68189   1.66979  194.911
 4627.00    1.67620   1.66613  196.569
 4628.00    1.68263   1.66764   -1.000
 4629.00    1.67298   1.67112  196.974
 4630.00    1.66800   1.67701  198.188
 4631.00    1.68867   1.68663  198.333
 4632.00    1.69521   1.68757  197.054
 4633.00    1.66265   1.66869  195.210
 4634.00    1.64401   1.64501  196.570
 4635.00    1.64500   1.63255  199.442
 4636.00    1.63436   1.62301  201.221
 4637.00    1.61644   1.60590  201.200
 4638.00    1.58108   1.58687  203.102
 4639.00    1.57126   1.57714  205.563
 4640.00    1.60416   1.58489   -1.000
 4641.00    1.64025   1.60854   -1.000
 4642.00    1.66773   1.63323   -1.000
 4643.00    1.68546   1.63807   -1.000
 4644.00    1.63952   1.61150   -1.000
 4645.00    1.59684   1.56944   -1.000
 4646.00    1.56373   1.52268   -1.000
 4647.00    1.52936   1.49304   -1.000
 4648.00    1.53898   1.50315   -1.000
 4649.00    1.56945   1.54476   -1.000
 4650.00    1.60219   1.59513  206.615
 4651.00    1.64149   1.63094  202.028
 4652.00    1.66587   1.64636   -1.000
 4653.00    1.65298   1.64178  199.502
 4654.00    1.60335   1.61832  199.498
 4655.00    1.57555   1.59441   -1.000
 4656.00    1.59622   1.59538  206.853
 4657.00    1.62185   1.62951  208.464
 4658.00    1.69588   1.68891  205.708
 4659.00    1.74999   1.74539  198.701
 4660.00    1.77961   1.76748  191.486
 4661.00    1.76416   1.74855   -1.000
 4662.00    1.72378   1.70713   -1.000
 4663.00    1.66760   1.66187  191.174
 4664.00    1.63448   1.62290   -1.000
 4665.00    1.59360   1.58033   -1.000
 4666.00    1.55200   1.52408   -1.000
 4667.00    1.49267   1.47117   -1.000
 4668.00    1.43159   1.45710   -1.000
 4669.00    1.49443   1.49560  220.749
 4670.00    1.58329   1.56299   -1.000
 4671.00    1.64939   1.61894   -1.000
 4672.00    1.67481   1.64521   -1.000
 4673.00    1.68449   1.64581   -1.000
 4674.00    1.66325   1.64746   -1.000
 4675.00    1.64521   1.66098  198.129
 4676.00    1.69616   1.67969   -1.000
 4677.00    1.73168   1.67711   -1.000
 4678.00    1.69320   1.64846   -1.000
 4679.00    1.63664   1.61101   -1.000
 4680.00    1.59933   1.58235   -1.000
 4681.00    1.58317   1.57143   -1.000
 4682.00    1.60358   1.57879   -1.000
 4683.00    1.64912   1.60323   -1.000
 4684.00    1.68043   1.62907   -1.000
 4685.00    1.68456   1.64070   -1.000
 4686.00    1.69330   1.64003   -1.000
 4687.00    1.68718   1.63307   -1.000
 4688.00    1.66906   1.62773   -1.000
 4689.00    1.67733   1.62538   -1.000
 4690.00    1.68259   1.62598   -1.000
 4691.00    1.66168   1.62397   -1.000
 4692.00    1.66510   1.62613   -1.000
 4693.00    1.68594   1.63939   -1.000
 4694.00    1.70678   1.65946   -1.000
 4695.00    1.75677   1.67642   -1.000
 4696.00    1.76419   1.68280   -1.000
 4697.00    1.72945   1.66516   -1.000
 4698.00    1.66689   1.62670   -1.000
 4699.00    1.62493   1.59000   -1.000
 4700.00    1.61320   1.56869   -1.000
 4701.00    1.63203   1.55601   -1.000
 4702.00    1.62415   1.54638   -1.000
 4703.00    1.59762   1.54688   -1.000
 4704.00    1.61525   1.56870   -1.000
 4705.00    1.65488   1.59497   -1.000
 4706.00    1.64911   1.59956   -1.000
 4707.00    1.64033   1.58130   -1.000
 4708.00    1.59719   1.56360   -1.000
 4709.00    1.60074   1.56933   -1.000
 4710.00    1.61766   1.59603   -1.000
 4711.00    1.66083   1.62537   -1.000
 4712.00    1.72917   1.64333   -1.000
 4713.00    1.72582   1.63821   -1.000
 4714.00    1.67407   1.62225   -1.000
 4715.00    1.65505   1.62549   -1.000
 4716.00    1.68905   1.65616   -1.000
 4717.00    1.73748   1.69994   -1.000
 4718.00    1.77778   1.73494   -1.000
 4719.00    1.80588   1.75547   -1.000
 4720.00    1.78876   1.76450   -1.000
 4721.00    1.77038   1.76084  190.395
 4722.00    1.75435   1.75012  190.023
 4723.00    1.75720   1.74745  191.745
 4724.00    1.78219   1.75693   -1.000
 4725.00    1.79883   1.75482   -1.000
 4726.00    1.75348   1.72414   -1.000
 4727.00    1.67119   1.66400  190.493
 4728.00    1.58297   1.60191  195.692
 4729.00    1.56798   1.57411  202.957
 4730.00    1.60865   1.58037   -1.000
 4731.00    1.63684   1.60771   -1.000
 4732.00    1.66296   1.63884   -1.000
 4733.00    1.69661   1.66645   -1.000
 4734.00    1.72573   1.68002   -1.000
 4735.00    1.72049   1.67885   -1.000
 4736.00    1.70060   1.67562   -1.000
 4737.00    1.69991   1.67694   -1.000
 4738.00    1.70894   1.68982   -1.000
 4739.00    1.72258   1.70897   -1.000
 4740.00    1.72172   1.71720  195.315
 4741.00    1.70394   1.71313  195.680
 4742.00    1.70085   1.71558  196.777
 4743.00    1.73022   1.72419  196.770
 4744.00    1.76020   1.73136   -1.000
 4745.00    1.75301   1.74027   -1.000
 4746.00    1.76645   1.75213   -1.000
 4747.00    1.79783   1.76755   -1.000
 4748.00    1.78694   1.78196  192.027
 4749.00    1.78558   1.78972  190.226
 4750.00    1.78694   1.79355  189.992
 4751.00    1.77149   1.78736  190.302
 4752.00    1.74919   1.76772  190.555
 4753.00    1.72667   1.74056  192.105
 4754.00    1.72371   1.71557  194.273
 4755.00    1.71740   1.70622   -1.000
 4756.00    1.71106   1.71036  196.976
 4757.00    1.71640   1.72101  196.653
 4758.00    1.71880   1.73728  197.564
 4759.00    1.74856   1.75430  198.938
 4760.00    1.74267   1.76015   -1.000
 4761.00    1.70562   1.74191   -1.000
 4762.00    1.67408   1.70316   -1.000
 4763.00    1.62445   1.65915   -1.000
 4764.00    1.59011   1.63336   -1.000
 4765.00    1.58384   1.61893   -1.000
 4766.00    1.60118   1.61028  208.076
 4767.00    1.62585   1.62183  207.498
 4768.00    1.69032   1.66831   -1.000
 4769.00    1.72347   1.72331  202.711
 4770.00    1.73668   1.75415   -1.000
 4771.00    1.73211   1.74984   -1.000
 4772.00    1.69969   1.73629   -1.000
 4773.00    1.71707   1.74468   -1.000
 4774.00    1.74423   1.77465   -1.000
 4775.00    1.77422   1.80683   -1.000
 4776.00    1.78755   1.82199   -1.000
 4777.00    1.78065   1.82507   -1.000
 4778.00    1.77740   1.82278   -1.000
 4779.00    1.75010   1.81294   -1.000
 4780.00    1.73405   1.79508   -1.000
 4781.00    1.73243   1.77801   -1.000
 4782.00    1.70818   1.75718   -1.000
 4783.00    1.67416   1.73139   -1.000
 4784.00    1.69851   1.71776   -1.000
 4785.00    1.70088   1.71610   -1.000
 4786.00    1.68917   1.71477   -1.000
 4787.00    1.68437   1.71091   -1.000
 4788.00    1.67859   1.71156   -1.000
 4789.00    1.68030   1.71609   -1.000
 4790.00    1.70009   1.72471   -1.000
 4791.00    1.71826   1.74289   -1.000
 4792.00    1.73731   1.77780   -1.000
 4793.00    1.78424   1.82294   -1.000
 4794.00    1.82924   1.86845   -1.000
 4795.00    1.86542   1.89988   -1.000
 4796.00    1.85765   1.90003   -1.000
 4797.00    1.79428   1.86860   -1.000
 4798.00    1.75602   1.82497   -1.000
 4799.00    1.73270   1.78870   -1.000
 4800.00    1.71595   1.77702   -1.000
 4801.00    1.75983   1.79840   -1.000
 4802.00    1.82109   1.83935  197.308
 4803.00    1.83295   1.86822   -1.000
 4804.00    1.80900   1.86178   -1.000
 4805.00    1.75970   1.83157   -1.000
 4806.00    1.72707   1.80097   -1.000
 4807.00    1.72971   1.78278   -1.000
 4808.00    1.72620   1.77717   -1.000
 4809.00    1.74645   1.78810   -1.000
 4810.00    1.76956   1.80966   -1.000
 4811.00    1.77815   1.82858   -1.000
 4812.00    1.76850   1.83456   -1.000
 4813.00    1.76402   1.83455   -1.000
 4814.00    1.79184   1.83909   -1.000
 4815.00    1.79202   1.85132   -1.000
 4816.00    1.81677   1.87029   -1.000
 4817.00    1.82074   1.89009   -1.000
 4818.00    1.84140   1.90543   -1.000
 4819.00    1.85942   1.91572   -1.000
 4820.00    1.83469   1.91664   -1.000
 4821.00    1.83841   1.89875   -1.000
 4822.00    1.80335   1.85849   -1.000
 4823.00    1.76479   1.80757   -1.000
 4824.00    1.74630   1.77179   -1.000
 4825.00    1.77040   1.78085  198.496
 4826.00    1.80797   1.81977  197.650
 4827.00    1.80732   1.84230   -1.000
 4828.00    1.79356   1.83749   -1.000
 4829.00    1.77190   1.82356   -1.000
 4830.00    1.77064   1.81604   -1.000
 4831.00    1.75124   1.80131   -1.000
 4832.00    1.72802   1.78080   -1.000
 4833.00    1.74731   1.78072   -1.000
 4834.00    1.78532   1.80218  197.606
 4835.00    1.82678   1.83314  194.295
 4836.00    1.82466   1.84966   -1.000
 4837.00    1.80921   1.84686   -1.000
 4838.00    1.79147   1.83035   -1.000
 4839.00    1.75810   1.80191   -1.000
 4840.00    1.74337   1.77739   -1.000
 4841.00    1.74170   1.76808   -1.000
 4842.00    1.74669   1.77084   -1.000
 4843.00    1.76298   1.77599  198.351
 4844.00    1.77924   1.78900  197.289
 4845.00    1.81324   1.81949  195.756
 4846.00    1.85089   1.84996  193.692
 4847.00    1.83251   1.85191  190.730
 4848.00    1.78537   1.82509   -1.000
 4849.00    1.78395   1.80523   -1.000
 4850.00    1.79733   1.81186  196.887
 4851.00    1.78842   1.82909   -1.000
 4852.00    1.79231   1.83374   -1.000
 4853.00    1.80155   1.81292  193.558
 4854.00    1.75847   1.76479  194.778
 4855.00    1.68268   1.70572   -1.000
 4856.00    1.66524   1.67216  202.837
 4857.00    1.70484   1.67030   -1.000
 4858.00    1.67616   1.66168   -1.000
 4859.00    1.58731   1.58975  205.585
 4860.00    1.46187   1.45001   -1.000
 4861.00    1.35720   1.33894   -1.000
 4862.00    1.36717   1.32351   -1.000
 4863.00    1.48550   1.41611   -1.000
 4864.00    1.60712   1.53185   -1.000
 4865.00    1.66259   1.62650   -1.000
 4866.00    1.71598   1.68853   -1.000
 4867.00    1.72883   1.72890  208.063
 4868.00    1.73954   1.74762  203.942
 4869.00    1.72888   1.73973  202.252
 4870.00    1.68605   1.69525  201.581
 4871.00    1.58937   1.62813   -1.000
 4872.00    1.59951   1.58206   -1.000
 4873.00    1.65250   1.61336   -1.000
 4874.00    1.71247   1.68705   -1.000
 4875.00    1.72444   1.74337  205.788
 4876.00    1.73113   1.76820   -1.000
 4877.00    1.74299   1.78245   -1.000
 4878.00    1.77419   1.80839   -1.000
 4879.00    1.78696   1.83952   -1.000
 4880.00    1.79319   1.85877   -1.000
 4881.00    1.77057   1.84868   -1.000
 4882.00    1.74498   1.81933   -1.000
 4883.00    1.74936   1.80459   -1.000
 4884.00    1.75957   1.79416   -1.000
 4885.00    1.69698   1.76389   -1.000
 4886.00    1.66079   1.72827   -1.000
 4887.00    1.67281   1.71487   -1.000
 4888.00    1.69945   1.71800  205.123
 4889.00    1.69243   1.70554  203.972
 4890.00    1.65620   1.66450  203.896
 4891.00    1.62271   1.62886  207.142
 4892.00    1.66477   1.65600   -1.000
 4893.00    1.76491   1.75153   -1.000
 4894.00    1.87528   1.88070  200.738
 4895.00    1.94703   1.96533  191.489
 4896.00    1.94710   1.99768   -1.000
 4897.00    1.93992   1.99674   -1.000
 4898.00    1.93767   1.97830   -1.000
 4899.00    1.88916   1.94719   -1.000
 4900.00    1.84773   1.91703   -1.000
 4901.00    1.86340   1.89981   -1.000
 4902.00    1.85386   1.88718   -1.000
 4903.00    1.83193   1.87048   -1.000
 4904.00    1.82685   1.86360   -1.000
 4905.00    1.87388   1.89230  194.720
 4906.00    1.91662   1.94168   -1.000
 4907.00    1.91054   1.95377   -1.000
 4908.00    1.86604   1.91735   -1.000
 4909.00    1.80046   1.85360   -1.000
 4910.00    1.76937   1.79970   -1.000
 4911.00    1.77804   1.78306  199.247
 4912.00    1.80177   1.81019  201.440
 4913.00    1.84440   1.85976  198.546
 4914.00    1.88314   1.90392  194.941
 4915.00    1.91914   1.93601  192.307
 4916.00    1.91874   1.94170   -1.000
 4917.00    1.86331   1.89091   -1.000
 4918.00    1.75840   1.77425  189.498
 4919.00    1.64088   1.64208  196.515
 4920.00    1.58267   1.55518   -1.000
 4921.00    1.62557   1.56109   -1.000
 4922.00    1.70350   1.63656   -1.000
 4923.00    1.76133   1.72208   -1.000
 4924.00    1.78938   1.76600   -1.000
 4925.00    1.78949   1.79029  201.070
 4926.00    1.83619   1.83356  200.894
 4927.00    1.89350   1.89048  198.146
 4928.00    1.91637   1.94245  192.910
 4929.00    1.93236   1.98063   -1.000
 4930.00    1.96258   2.00210   -1.000
 4931.00    1.95204   1.99439   -1.000
 4932.00    1.90274   1.95128   -1.000
 4933.00    1.84424   1.88780   -1.000
 4934.00    1.82518   1.84428  192.930
 4935.00    1.83192   1.84131  199.845
 4936.00    1.84390   1.85142  199.978
 4937.00    1.80492   1.82282  196.332
 4938.00    1.73697   1.75610  196.500
 4939.00    1.72786   1.71927   -1.000
 4940.00    1.78807   1.75659   -1.000
 4941.00    1.88147   1.84384   -1.000
 4942.00    1.92928   1.92844  198.479
 4943.00    1.93801   1.97241   -1.000
 4944.00    1.95352   1.98319   -1.000
 4945.00    1.93760   1.97305   -1.000
 4946.00    1.91806   1.96002   -1.000
 4947.00    1.93838   1.96267  188.766
 4948.00    1.96292   1.98642  189.086
 4949.00    1.97157   2.01291   -1.000
 4950.00    1.99347   2.02446   -1.000
 4951.00    2.00677   2.02530  184.582
 4952.00    1.97416   2.01535   -1.000
 4953.00    1.96056   1.99798   -1.000
 4954.00    1.93949   1.97223   -1.000
 4955.00    1.87305   1.91941   -1.000
 4956.00    1.78237   1.81806   -1.000
 4957.00    1.68489   1.69041  196.095
 4958.00    1.66990   1.64369   -1.000
 4959.00    1.74729   1.71803   -1.000
 4960.00    1.88225   1.84436   -1.000
 4961.00    1.94616   1.93686  197.292
 4962.00    1.92317   1.96275   -1.000
 4963.00    1.91203   1.95379   -1.000
 4964.00    1.87778   1.92460   -1.000
 4965.00    1.82487   1.87797   -1.000
 4966.00    1.80539   1.83567   -1.000
 4967.00    1.78935   1.81763   -1.000
 4968.00    1.79899   1.81963  201.020
 4969.00    1.81705   1.83361  200.973
 4970.00    1.81213   1.85757   -1.000
 4971.00    1.84529   1.88795   -1.000
 4972.00    1.88897   1.92454   -1.000
 4973.00    1.92521   1.95504   -1.000
 4974.00    1.92872   1.97079   -1.000
 4975.00    1.90981   1.96945   -1.000
 4976.00    1.88506   1.95502   -1.000
 4977.00    1.87955   1.92496   -1.000
 4978.00    1.84396   1.88825   -1.000
 4979.00    1.78855   1.85493   -1.000
 4980.00    1.77278   1.82544   -1.000
 4981.00    1.73799   1.77719   -1.000
 4982.00    1.67137   1.70152   -1.000
 4983.00    1.64156   1.63560  211.285
 4984.00    1.66516   1.62707   -1.000
 4985.00    1.71627   1.67703   -1.000
 4986.00    1.79039   1.75991   -1.000
 4987.00    1.85216   1.83616   -1.000
 4988.00    1.87585   1.88728  200.886
 4989.00    1.85925   1.89075   -1.000
 4990.00    1.83875   1.86653   -1.000
 4991.00    1.83604   1.84930  199.335
 4992.00    1.83630   1.85348  201.344
 4993.00    1.85217   1.86808  201.356
 4994.00    1.85785   1.87717  199.502
 4995.00    1.86199   1.88325  198.695
 4996.00    1.87571   1.89840  198.620
 4997.00    1.88139   1.90687   -1.000
 4998.00    1.85558   1.88414   -1.000
 4999.00    1.81522   1.83495  197.865
 5000.00    1.76112   1.77820  200.576
 5001.00    1.75689   1.74439   -1.000
 5002.00    1.76853   1.74305   -1.000
 5003.00    1.77024   1.75631   -1.000
 5004.00    1.77734   1.75107   -1.000
 5005.00    1.73685   1.71365   -1.000
 5006.00    1.69041   1.66963   -1.000
 5007.00    1.72359   1.67087   -1.000
 5008.00    1.80955   1.73435   -1.000
 5009.00    1.84612   1.80435   -1.000
 5010.00    1.82632   1.83612  201.567
 5011.00    1.78435   1.80931   -1.000
 5012.00    1.74430   1.74363  202.309
 5013.00    1.64292   1.67274   -1.000
 5014.00    1.64370   1.63748   -1.000
 5015.00    1.67827   1.65058   -1.000
 5016.00    1.72800   1.68254   -1.000
 5017.00    1.76615   1.70620   -1.000
 5018.00    1.74967   1.71485   -1.000
 5019.00    1.76198   1.73089   -1.000
 5020.00    1.78827   1.75585   -1.000
 5021.00    1.77759   1.76285   -1.000
 5022.00    1.76471   1.75562   -1.000
 5023.00    1.77320   1.75865   -1.000
 5024.00    1.80618   1.79047   -1.000
 5025.00    1.82676   1.83216  205.979
 5026.00    1.81401   1.84088   -1.000
 5027.00    1.79661   1.81686  202.419
 5028.00    1.79755   1.80197  203.451
 5029.00    1.83735   1.81745   -1.000
 5030.00    1.88719   1.86103   -1.000
 5031.00    1.91126   1.91049  198.608
 5032.00    1.93914   1.95432  195.801
 5033.00    1.96693   1.98030  192.604
 5034.00    1.94353   1.96407  190.407
 5035.00    1.86277   1.90191   -1.000
 5036.00    1.78634   1.83639   -1.000
 5037.00    1.77856   1.80322   -1.000
 5038.00    1.78164   1.78817  208.254
 5039.00    1.71418   1.74380   -1.000
 5040.00    1.62854   1.65840   -1.000
 5041.00    1.59398   1.59623  220.042
 5042.00    1.65267   1.62249   -1.000
 5043.00    1.77891   1.73074   -1.000
 5044.00    1.89069   1.86806   -1.000
 5045.00    1.94153   1.96405  204.077
 5046.00    1.96575   2.00375   -1.000
 5047.00    1.95244   1.98634   -1.000
 5048.00    1.93488   1.92487   -1.000
 5049.00    1.57116   1.84552   -1.000
 5050.00    0.34493   1.79328   -1.000
 5051.00    0.07675   1.78278   -1.000
 5052.00    0.24245   1.80231   -1.000
 5053.00    1.81099   1.84780   -1.000
 5054.00    1.98773   1.90789   -1.000
 5055.00    1.97033   1.94678   -1.000
 5056.00    1.97580   1.96636   -1.000
 5057.00    1.97158   1.97876  190.493
 5058.00    1.98136   1.98883  189.901
 5059.00    1.97893   2.00612   -1.000
 5060.00    1.99207   2.02599   -1.000
 5061.00    2.00753   2.04249   -1.000
 5062.00    2.00465   2.04200   -1.000
 5063.00    1.94919   1.99679   -1.000
 5064.00    1.85713   1.91602   -1.000
 5065.00    1.81518   1.84819   -1.000
 5066.00    1.82747   1.82464  204.706
 5067.00    1.83927   1.83560  206.989
 5068.00    1.86294   1.85296   -1.000
 5069.00    1.88064   1.86826   -1.000
 5070.00    1.90469   1.88802   -1.000
 5071.00    1.90914   1.89598   -1.000
 5072.00    1.88906   1.88060   -1.000
 5073.00    1.89698   1.86412   -1.000
 5074.00    1.90725   1.87315   -1.000
 5075.00    1.92100   1.89251   -1.000
 5076.00    1.92911   1.90365   -1.000
 5077.00    1.91356   1.89677   -1.000
 5078.00    1.86480   1.85819   -1.000
 5079.00    1.78297   1.78276  199.094
 5080.00    1.72238   1.71424   -1.000
 5081.00    1.73348   1.70657   -1.000
 5082.00    1.77545   1.73907   -1.000
 5083.00    1.80125   1.78014   -1.000
 5084.00    1.85267   1.81565   -1.000
 5085.00    1.90086   1.85557   -1.000
 5086.00    1.92601   1.89483   -1.000
 5087.00    1.94040   1.92072   -1.000
 5088.00    1.94127   1.93249   -1.000
 5089.00    1.95044   1.94124   -1.000
 5090.00    1.96281   1.95061   -1.000
 5091.00    1.96129   1.96553  194.907
 5092.00    1.97997   1.99081  193.836
 5093.00    2.02546   2.01982   -1.000
 5094.00    2.02896   2.02802  190.590
 5095.00    1.98974   1.99615  188.881
 5096.00    1.93651   1.93392  190.642
 5097.00    1.88134   1.86481   -1.000
 5098.00    1.83014   1.80583   -1.000
 5099.00    1.80058   1.77764   -1.000
 5100.00    1.83169   1.80364   -1.000
 5101.00    1.89492   1.86596   -1.000
 5102.00    1.93408   1.92534   -1.000
 5103.00    1.94622   1.93932  197.515
 5104.00    1.92271   1.92230  195.811
 5105.00    1.89215   1.89788  196.986
 5106.00    1.87709   1.87131  199.604
 5107.00    1.86614   1.84300   -1.000
 5108.00    1.86785   1.81913   -1.000
 5109.00    1.83994   1.80745   -1.000
 5110.00    1.86586   1.81911   -1.000
 5111.00    1.88157   1.85153   -1.000
 5112.00    1.92179   1.89738   -1.000
 5113.00    1.94824   1.93106   -1.000
 5114.00    1.95005   1.95424  198.623
 5115.00    1.97208   1.97770  196.203
 5116.00    1.99697   2.00374  194.436
 5117.00    2.01819   2.02572  193.398
 5118.00    2.03544   2.03486  191.349
 5119.00    2.03213   2.02488   -1.000
 5120.00    2.00375   1.99452   -1.000
 5121.00    1.95910   1.95159   -1.000
 5122.00    1.89718   1.89936  195.733
 5123.00    1.82606   1.84445  198.970
 5124.00    1.79033   1.79797  204.109
 5125.00    1.81119   1.78233   -1.000
 5126.00    1.83006   1.79531   -1.000
 5127.00    1.82802   1.81136   -1.000
 5128.00    1.84208   1.81526   -1.000
 5129.00    1.85039   1.81885   -1.000
 5130.00    1.85557   1.83410   -1.000
 5131.00    1.88386   1.86432   -1.000
 5132.00    1.91431   1.89665   -1.000
 5133.00    1.94489   1.91840   -1.000
 5134.00    1.95896   1.93578   -1.000
 5135.00    1.96583   1.95027   -1.000
 5136.00    1.97273   1.95030   -1.000
 5137.00    1.92990   1.91200   -1.000
 5138.00    1.87845   1.85465   -1.000
 5139.00    1.84454   1.82339   -1.000
 5140.00    1.86425   1.82602   -1.000
 5141.00    1.86782   1.83805   -1.000
 5142.00    1.85772   1.83714   -1.000
 5143.00    1.83854   1.83292   -1.000
 5144.00    1.85486   1.84665   -1.000
 5145.00    1.87571   1.86107   -1.000
 5146.00    1.85144   1.84429   -1.000
 5147.00    1.83965   1.81896   -1.000
 5148.00    1.85998   1.81853   -1.000
 5149.00    1.88882   1.84341   -1.000
 5150.00    1.87664   1.85575   -1.000
 5151.00    1.85270   1.84109   -1.000
 5152.00    1.82833   1.81958   -1.000
 5153.00    1.82370   1.80631   -1.000
 5154.00    1.83064   1.81182   -1.000
 5155.00    1.87911   1.84462   -1.000
 5156.00    1.95410   1.90366   -1.000
 5157.00    2.00606   1.96171   -1.000
 5158.00    2.03979   1.99892   -1.000
 5159.00    2.04073   2.01354   -1.000
 5160.00    2.04696   2.01265   -1.000
 5161.00    2.04854   1.99809   -1.000
 5162.00    2.00930   1.96521   -1.000
 5163.00    1.96291   1.91075   -1.000
 5164.00    1.89760   1.84407   -1.000
 5165.00    1.77840   1.74864   -1.000
 5166.00    1.60505   1.59257   -1.000
 5167.00    1.43233   1.43093  222.409
 5168.00    1.39568   1.37204   -1.000
 5169.00    1.50566   1.43726   -1.000
 5170.00    1.59575   1.52079   -1.000
 5171.00    1.53792   1.49046   -1.000
 5172.00    1.38220   1.38519  239.145
 5173.00    1.35040   1.34380  254.385
 5174.00    1.50939   1.44332   -1.000
 5175.00    1.71775   1.64206   -1.000
 5176.00    1.82950   1.78986   -1.000
 5177.00    1.87165   1.85669   -1.000
 5178.00    1.89825   1.87628   -1.000
 5179.00    1.88361   1.87137   -1.000
 5180.00    1.83993   1.83147  202.504
 5181.00    1.71872   1.72305  204.486
 5182.00    1.53670   1.54209  211.586
 5183.00    1.36081   1.37398  226.829
 5184.00    1.34720   1.32622   -1.000
 5185.00    1.50668   1.45338   -1.000
 5186.00    1.74255   1.65375   -1.000
 5187.00    1.89518   1.81665   -1.000
 5188.00    1.92247   1.88935   -1.000
 5189.00    1.95424   1.91375   -1.000
 5190.00    1.96259   1.90788   -1.000
 5191.00    1.89387   1.85672   -1.000
 5192.00    1.82703   1.78080   -1.000
 5193.00    1.81279   1.74854   -1.000
 5194.00    1.82475   1.77487   -1.000
 5195.00    1.85502   1.81053   -1.000
 5196.00    1.90159   1.84432   -1.000
 5197.00    1.95185   1.88667   -1.000
 5198.00    1.99363   1.93752   -1.000
 5199.00    2.03000   1.98178   -1.000
 5200.00    2.04621   2.00296   -1.000
 5201.00    2.03172   1.99933   -1.000
 5202.00    1.98711   1.96823   -1.000
 5203.00    1.94483   1.91236   -1.000
 5204.00    1.87852   1.82503   -1.000
 5205.00    1.80236   1.73376   -1.000
 5206.00    1.76854   1.67014   -1.000
 5207.00    1.75212   1.64881   -1.000
 5208.00    1.73807   1.65069   -1.000
 5209.00    1.74336   1.67146   -1.000
 5210.00    1.81572   1.73195   -1.000
 5211.00    1.92020   1.83311   -1.000
 5212.00    1.99472   1.94019   -1.000
 5213.00    2.06969   2.01192   -1.000
 5214.00    2.07563   2.01683   -1.000
 5215.00    2.01667   1.97182   -1.000
 5216.00    1.97628   1.92275   -1.000
 5217.00    1.98465   1.92179   -1.000
 5218.00    2.03837   1.97208   -1.000
 5219.00    2.09375   2.03825   -1.000
 5220.00    2.10350   2.08587   -1.000
 5221.00    2.11155   2.10647   -1.000
 5222.00    2.11807   2.09401   -1.000
 5223.00    2.06063   2.04343   -1.000
 5224.00    1.95392   1.95756  191.470
 5225.00    1.86296   1.84364   -1.000
 5226.00    1.79935   1.73743   -1.000
 5227.00    1.79412   1.70698   -1.000
 5228.00    1.88927   1.77437   -1.000
 5229.00    2.00704   1.90378   23.436
 5230.00    2.08644   2.01002   20.470
 5231.00    2.08184   2.03136   19.623
 5232.00    2.04548   1.98989   19.263
 5233.00    2.02575   1.93237   19.226
 5234.00    2.02552   1.91586   19.606
 5235.00    2.02708   1.96102   19.959
 5236.00    2.08994   2.03401   19.926
 5237.00    2.15349   2.10266   19.478
 5238.00    2.17521   2.13847   19.011
 5239.00    2.16129   2.14158   18.791
 5240.00    2.13248   2.13261   18.769
 5241.00    2.15375   2.12160   18.828
 5242.00    2.14364   2.11485   18.797
 5243.00    2.13389   2.12157   18.687
 5244.00    2.16652   2.13981   18.712
 5245.00    2.16108   2.13624   18.676
 5246.00    2.08463   2.08764   18.646
 5247.00    2.00785   2.01959   19.008
 5248.00    2.00182   1.97488   19.601
 5249.00    2.01404   1.96364   20.064
 5250.00    1.98961   1.96263   20.127
 5251.00    1.99146   1.96908   20.163
 5252.00    2.03846   1.99358   20.290
 5253.00    2.05351   2.01433   20.201
 5254.00    2.03958   2.01498   19.925
 5255.00    2.04806   2.01386   19.725
 5256.00    2.09725   2.05078   19.722
 5257.00    2.17634   2.12673   19.586
 5258.00    2.22096   2.18606   19.137
 5259.00    2.22377   2.19749   18.620
 5260.00    2.17464   2.15372   18.445
 5261.00    2.07963   2.06672   18.607
 5262.00    1.97867   1.95157   19.108
 5263.00    1.89028   1.83947   19.911
 5264.00    1.83453   1.74829   20.857
 5265.00    1.80373   1.69909   21.591
 5266.00    1.81519   1.70149   22.047
 5267.00    1.85993   1.73412   -1.000
 5268.00    1.84364   1.73097   21.749
 5269.00    1.76942   1.66939   21.360
 5270.00    1.73470   1.62010   21.793
 5271.00    1.83903   1.67371   -1.000
 5272.00    1.97394   1.82304   -1.000
 5273.00    2.05376   1.93310   21.028
 5274.00    2.07000   1.95571   20.111
 5275.00    2.05006   1.96248   19.881
 5276.00    2.08812   1.99864   19.885
 5277.00    2.16538   2.07883   19.842
 5278.00    2.23499   2.15645   19.473
 5279.00    2.22803   2.18031   18.816
 5280.00    2.17410   2.14277   18.452
 5281.00    2.13646   2.07454   18.547
 5282.00    2.09212   2.00809   18.982
 5283.00    2.05757   1.96750   19.478
 5284.00    2.07470   1.98709   19.840
 5285.00    2.16166   2.07047   19.949
 5286.00    2.25414   2.18055   19.565
 5287.00    2.30537   2.24384   18.972
 5288.00    2.26962   2.25536   18.374
 5289.00    2.25939   2.25356   18.216
 5290.00    2.28374   2.26093   18.305
 5291.00    2.28741   2.27115   18.307
 5292.00    2.30792   2.26342   18.204
 5293.00    2.30082   2.24540   18.162
 5294.00    2.25520   2.22449   18.262
 5295.00    2.20584   2.18312   18.433
 5296.00    2.13225   2.09733   18.675
 5297.00    2.03441   1.99539   19.171
 5298.00    1.99309   1.93757   19.901
 5299.00    2.05197   1.96424   20.448
 5300.00    2.12841   2.02792   20.351
 5301.00    2.16108   2.07602   19.849
 5302.00    2.18288   2.10678   19.471
 5303.00    2.23566   2.15377   19.336
 5304.00    2.30417   2.22472   19.105
 5305.00    2.33416   2.27705   18.601
 5306.00    2.31025   2.27918   18.251
 5307.00    2.29240   2.25801   18.190
 5308.00    2.27570   2.24803   18.358
 5309.00    2.30597   2.26873   18.520
 5310.00    2.34985   2.29888   18.413
 5311.00    2.35291   2.30661   18.221
 5312.00    2.32004   2.29294   18.101
 5313.00    2.29933   2.27014   18.112
 5314.00    2.29468   2.24545   18.211
 5315.00    2.28621   2.22159   18.291
 5316.00    2.26670   2.19530   18.421
 5317.00    2.25241   2.18234   18.602
 5318.00    2.28045   2.19392   18.768
 5319.00    2.29091   2.21274   18.783
 5320.00    2.29530   2.21987   18.650
 5321.00    2.28035   2.21062   18.567
 5322.00    2.24213   2.18328   18.627
 5323.00    2.20516   2.13000   18.756
 5324.00    2.17229   2.07497   18.973
 5325.00    2.14583   2.03439   19.300
 5326.00    2.10923   1.98313   19.489
 5327.00    2.00790   1.87927   19.491
 5328.00    1.90124   1.77523   19.994
 5329.00    1.90936   1.76682   -1.000
 5330.00    2.04023   1.89273   -1.000
 5331.00    2.16433   2.04349   -1.000
 5332.00    2.20942   2.12941   19.952
 5333.00    2.24613   2.16037   19.277
 5334.00    2.28203   2.18810   19.053
 5335.00    2.29717   2.22913   18.872
 5336.00    2.31118   2.25174   18.654
 5337.00    2.28940   2.24011   18.565
 5338.00    2.25939   2.20161   18.674
 5339.00    2.20642   2.13302   18.796
 5340.00    2.12784   2.05588   18.997
 5341.00    2.13087   2.02451   19.462
 5342.00    2.16901   2.07293   19.815
 5343.00    2.23633   2.14537   19.682
 5344.00    2.26543   2.18417   19.168
 5345.00    2.25823   2.17880   18.812
 5346.00    2.25610   2.15562   18.791
 5347.00    2.22985   2.13281   18.908
 5348.00    2.22494   2.11363   19.030
 5349.00    2.20569   2.10258   19.125
 5350.00    2.22300   2.12576   19.293
 5351.00    2.28524   2.18110   19.348
 5352.00    2.31869   2.24115   19.069
 5353.00    2.35244   2.28070   18.633
 5354.00    2.38256   2.30319   18.387
 5355.00    2.42143   2.33468   18.319
 5356.00    2.41365   2.36336   18.181
 5357.00    2.42006   2.37400   17.953
 5358.00    2.42471   2.37043   17.812
 5359.00    2.41585   2.36008   17.818
 5360.00    2.37548   2.33803   17.846
 5361.00    2.33953   2.30210   17.909
 5362.00    2.30357   2.26512   18.110
 5363.00    2.28806   2.23432   18.409
 5364.00    2.27725   2.20603   18.683
 5365.00    2.24890   2.18282   18.823
 5366.00    2.23178   2.16815   18.933
 5367.00    2.24845   2.16976   19.047
 5368.00    2.24372   2.15983   19.000
 5369.00    2.18011   2.10201   18.994
 5370.00    2.10536   2.01390   19.174
 5371.00    2.08169   1.94923   -1.000
 5372.00    2.13504   1.97067   -1.000
 5373.00    2.24568   2.07718   -1.000
 5374.00    2.34667   2.20031   -1.000
 5375.00    2.37785   2.27844   18.736
 5376.00    2.37832   2.29502   18.249
 5377.00    2.37152   2.28634   18.094
 5378.00    2.37204   2.28416   18.137
 5379.00    2.37740   2.28916   18.149
 5380.00    2.35081   2.28487   18.182
 5381.00    2.32265   2.26037   18.283
 5382.00    2.29360   2.23071   18.459
 5383.00    2.27987   2.21299   18.642
 5384.00    2.31327   2.21986   18.740
 5385.00    2.35630   2.24790   18.734
 5386.00    2.36858   2.27859   18.650
 5387.00    2.36653   2.28586   18.457
 5388.00    2.34192   2.26134   18.408
 5389.00    2.28608   2.21853   18.484
 5390.00    2.25088   2.17308   18.657
 5391.00    2.22795   2.14355   18.936
 5392.00    2.22546   2.13135   19.155
 5393.00    2.24215   2.13007   19.250
 5394.00    2.22972   2.13056   19.264
 5395.00    2.21221   2.11227   19.319
 5396.00    2.15852   2.06608   19.457
 5397.00    2.13292   2.02308   19.706
 5398.00    2.16100   2.02903   -1.000
 5399.00    2.23305   2.09319   -1.000
 5400.00    2.27934   2.16317   19.584
 5401.00    2.29897   2.19858   19.015
 5402.00    2.28545   2.19804   18.869
 5403.00    2.22885   2.15311   18.896
 5404.00    2.14492   2.06117   19.039
 5405.00    2.07679   1.95886   19.587
 5406.00    2.07211   1.93005   -1.000
 5407.00    2.12125   1.98447   -1.000
 5408.00    2.17403   2.04568   -1.000
 5409.00    2.16930   2.06500   19.955
 5410.00    2.16661   2.05217   19.762
 5411.00    2.21989   2.08301   -1.000
 5412.00    2.29121   2.15939   -1.000
 5413.00    2.32556   2.21816   19.342
 5414.00    2.33355   2.23921   18.885
 5415.00    2.33597   2.24350   18.669
 5416.00    2.35675   2.26923   18.666
 5417.00    2.38328   2.30652   18.677
 5418.00    2.37578   2.31728   18.548
 5419.00    2.34841   2.29861   18.427
 5420.00    2.32012   2.27313   18.488
 5421.00    2.30703   2.25891   18.665
 5422.00    2.31438   2.25472   18.784
 5423.00    2.30697   2.23658   18.722
 5424.00    2.28182   2.21205   18.646
 5425.00    2.29046   2.22521   18.880
 5426.00    2.34482   2.27937   19.064
 5427.00    2.36518   2.31907   18.890
 5428.00    2.30899   2.27672   18.576
 5429.00    2.23073   2.17115   18.603
 5430.00    2.20472   2.10339   19.084
 5431.00    2.23109   2.11142   19.694
 5432.00    2.25743   2.15058   19.781
 5433.00    2.23560   2.14789   19.452
 5434.00    2.18434   2.10266   19.411
 5435.00    2.18185   2.08066   19.668
 5436.00    2.22268   2.11142   19.903
 5437.00    2.28270   2.19072   19.855
 5438.00    2.35198   2.28098   19.484
 5439.00    2.41265   2.35013   18.955
 5440.00    2.46085   2.38559   18.546
 5441.00    2.46455   2.39911   18.277
 5442.00    2.45104   2.40456   18.118
 5443.00    2.42267   2.39308   18.078
 5444.00    2.36729   2.34236   18.075
 5445.00    2.29347   2.24412   18.250
 5446.00    2.20055   2.12815   18.713
 5447.00    2.14690   2.07153   19.467
 5448.00    2.20180   2.10179   20.128
 5449.00    2.27818   2.19754   20.052
 5450.00    2.32945   2.27764   19.440
 5451.00    2.33989   2.29989   18.885
 5452.00    2.32315   2.28691   18.675
 5453.00    2.29060   2.24326   18.665
 5454.00    2.22483   2.16660   18.812
 5455.00    2.17403   2.08741   19.228
 5456.00    2.17928   2.06625   19.776
 5457.00    2.25001   2.13663   20.220
 5458.00    2.32669   2.25236   19.992
 5459.00    2.36134   2.31425   19.326
 5460.00    2.34863   2.30775   18.782
 5461.00    2.30344   2.25734   18.640
 5462.00    2.26416   2.19961   18.833
 5463.00    2.24864   2.16738   19.180
 5464.00    2.26805   2.17873   19.451
 5465.00    2.31796   2.21823   19.571
 5466.00    2.34502   2.25516   19.358
 5467.00    2.35014   2.27778   19.127
 5468.00    2.35747   2.28883   19.025
 5469.00    2.35055   2.28717   18.826
 5470.00    2.33618   2.27116   18.733
 5471.00    2.30539   2.25085   18.887
 5472.00    2.30017   2.23492   19.085
 5473.00    2.30244   2.22144   19.166
 5474.00    2.28622   2.19435   19.260
 5475.00    2.24122   2.14233   19.448
 5476.00    2.16703   2.08307   19.719
 5477.00    2.15779   2.05880   20.128
 5478.00    2.22380   2.11083   20.456
 5479.00    2.29445   2.18434   20.318
 5480.00    2.29490   2.20952   19.731
 5481.00    2.25355   2.18207   19.329
 5482.00    2.23717   2.15606   19.428
 5483.00    2.28827   2.19098   19.667
 5484.00    2.35683   2.26216   19.658
 5485.00    2.38530   2.31175   19.340
 5486.00    2.35430   2.31029   18.946
 5487.00    2.31239   2.26634   18.759
 5488.00    2.27941   2.22956   18.908
 5489.00    2.28528   2.22435   19.176
 5490.00    2.31150   2.25428   19.306
 5491.00    2.33632   2.28018   19.318
 5492.00    2.35126   2.28819   19.195
 5493.00    2.34935   2.28349   19.054
 5494.00    2.37089   2.27903   18.976
 5495.00    2.37113   2.28084   19.008
 5496.00    2.35340   2.27197   19.020
 5497.00    2.34082   2.25394   19.018
 5498.00    2.34585   2.25548   19.142
 5499.00    2.38142   2.27831   19.280
 5500.00    2.37256   2.28613   19.201
 5501.00    2.33874   2.25828   18.991
 5502.00    2.32905   2.21465   19.103
 5503.00    2.33055   2.20543   -1.000
 5504.00    2.32514   2.21883   19.465
 5505.00    2.30843   2.21222   19.321
 5506.00    2.28250   2.18758   19.266
 5507.00    2.27910   2.17753   19.497
 5508.00    2.32296   2.20928   19.702
 5509.00    2.36115   2.25715   19.561
 5510.00    2.34464   2.26611   19.255
 5511.00    2.29652   2.22782   19.146
 5512.00    2.26055   2.17307   19.253
 5513.00    2.23024   2.13585   19.607
 5514.00    2.22001   2.13851   19.941
 5515.00    2.27532   2.16725   20.135
 5516.00    2.33581   2.20748   -1.000
 5517.00    2.37638   2.25356   19.596
 5518.00    2.41131   2.30305   19.293
 5519.00    2.44164   2.34582   18.939
 5520.00    2.44345   2.36309   18.619
 5521.00    2.46995   2.35513   18.544
 5522.00    2.45727   2.34820   18.567
 5523.00    2.43579   2.34888   18.604
 5524.00    2.41374   2.34729   18.666
 5525.00    2.39258   2.32363   18.702
 5526.00    2.35319   2.26735   18.805
 5527.00    2.27543   2.19441   19.045
 5528.00    2.23598   2.13688   19.467
 5529.00    2.28194   2.15072   -1.000
 5530.00    2.34378   2.22247   -1.000
 5531.00    2.38568   2.29597   19.751
 5532.00    2.37635   2.32235   19.231
 5533.00    2.36345   2.31074   18.950
 5534.00    2.34568   2.29129   18.959
 5535.00    2.34145   2.27769   19.125
 5536.00    2.35673   2.27541   19.230
 5537.00    2.37918   2.28740   19.182
 5538.00    2.40197   2.30521   19.033
 5539.00    2.43182   2.32423   18.972
 5540.00    2.46854   2.35168   18.895
 5541.00    2.47594   2.37132   18.722
 5542.00    2.44732   2.36457   18.568
 5543.00    2.43282   2.33803   18.558
 5544.00    2.41210   2.31870   18.730
 5545.00    2.41000   2.31665   18.923
 5546.00    2.43027   2.32559   18.990
 5547.00    2.44658   2.34041   18.947
 5548.00    2.48263   2.37093   18.901
 5549.00    2.50695   2.40390   18.792
 5550.00    2.51326   2.41959   18.612
 5551.00    2.51475   2.41718   18.452
 5552.00    2.48645   2.39889   18.396
 5553.00    2.45541   2.36776   18.478
 5554.00    2.43391   2.34226   18.634
 5555.00    2.42096   2.33600   18.843
 5556.00    2.43606   2.34435   18.951
 5557.00    2.45059   2.35130   18.935
 5558.00    2.45889   2.35055   18.878
 5559.00    2.46404   2.35441   18.842
 5560.00    2.45424   2.35869   18.817
 5561.00    2.44897   2.34713   18.797
 5562.00    2.42560   2.32027   18.829
 5563.00    2.40831   2.30118   18.920
 5564.00    2.38904   2.29480   19.102
 5565.00    2.39893   2.29134   19.245
 5566.00    2.39433   2.28152   19.309
 5567.00    2.40384   2.27067   -1.000
 5568.00    2.40695   2.26796   -1.000
 5569.00    2.41865   2.27234   -1.000
 5570.00    2.41137   2.28021   -1.000
 5571.00    2.40721   2.28476   -1.000
 5572.00    2.40049   2.27942   19.337
 5573.00    2.39295   2.26821   -1.000
 5574.00    2.41630   2.27296   -1.000
 5575.00    2.40897   2.30818   19.322
 5576.00    2.18312   2.33277   19.129
 5577.00    1.68027   2.33524   -1.000
 5578.00    0.84668   2.34526   -1.000
 5579.00    0.70224   2.36207   -1.000
 5580.00    1.29578   2.36820   -1.000
 5581.00    2.18487   2.36494   19.235
 5582.00    2.82642   2.35151   -1.000
 5583.00    2.72043   2.34043   -1.000
 5584.00    2.49522   2.32907   -1.000
 5585.00    2.39762   2.28782   19.053
 5586.00    2.32131   2.21148   19.145
 5587.00    2.26319   2.12635   -1.000
 5588.00    2.21959   2.08149   -1.000
 5589.00    2.22533   2.09370   -1.000
 5590.00    2.28847   2.13864   -1.000
 5591.00    2.33941   2.19401   -1.000
 5592.00    2.35753   2.22699   -1.000
 5593.00    2.34275   2.23712   19.831
 5594.00    2.34622   2.24653   19.742
 5595.00    2.39952   2.27856   -1.000
 5596.00    2.43404   2.32025   19.718
 5597.00    2.41787   2.32854   19.452
 5598.00    2.36790   2.29215   19.271
 5599.00    2.32679   2.23930   19.407
 5600.00    2.31023   2.20597   19.732
 5601.00    2.28828   2.18481   19.964
 5602.00    2.28022   2.17191   19.981
 5603.00    2.31273   2.19592   -1.000
 5604.00    2.38439   2.27017   20.175
 5605.00    2.46107   2.35688   19.904
 5606.00    2.49060   2.41811   19.379
 5607.00    2.50766   2.44428   18.920
 5608.00    2.52120   2.44505   18.667
 5609.00    2.51787   2.43877   18.604
 5610.00    2.52111   2.43871   18.625
 5611.00    2.52590   2.45222   18.663
 5612.00    2.52890   2.45783   18.653
 5613.00    2.47992   2.42026   18.599
 5614.00    2.39366   2.32272   18.665
 5615.00    2.32856   2.20932   19.011
 5616.00    2.31299   2.15897   -1.000
 5617.00    2.36698   2.19733   -1.000
 5618.00    2.42275   2.27514   -1.000
 5619.00    2.43193   2.31278   19.612
 5620.00    2.44920   2.32744   -1.000
 5621.00    2.47447   2.35168   -1.000
 5622.00    2.48044   2.36278   19.157
 5623.00    2.44053   2.32767   19.061
 5624.00    2.38049   2.26798   19.116
 5625.00    2.34903   2.22555   -1.000
 5626.00    2.36636   2.24715   -1.000
 5627.00    2.41743   2.30264   19.809
 5628.00    2.46417   2.35272   19.500
 5629.00    2.49276   2.39052   19.207
 5630.00    2.51625   2.41735   18.978
 5631.00    2.53251   2.42636   18.827
 5632.00    2.53226   2.41812   18.762
 5633.00    2.51923   2.40020   18.692
 5634.00    2.50202   2.37923   18.696
 5635.00    2.47870   2.35227   -1.000
 5636.00    2.46009   2.32731   -1.000
 5637.00    2.44342   2.31142   -1.000
 5638.00    2.42525   2.31058   19.225
 5639.00    2.43398   2.31975   19.358
 5640.00    2.43282   2.32269   19.379
 5641.00    2.39934   2.30896   19.359
 5642.00    2.39669   2.29772   19.412
 5643.00    2.41951   2.31064   19.433
 5644.00    2.43288   2.32930   19.367
 5645.00    2.44309   2.34360   19.277
 5646.00    2.45865   2.35802   19.237
 5647.00    2.47739   2.36699   19.120
 5648.00    2.47949   2.36414   19.051
 5649.00    2.48167   2.35511   -1.000
 5650.00    2.48672   2.35251   -1.000
 5651.00    2.50109   2.36902   -1.000
 5652.00    2.51893   2.39242   -1.000
 5653.00    2.50686   2.39006   18.885
 5654.00    2.47560   2.36546   18.816
 5655.00    2.45144   2.34455   18.872
 5656.00    2.44736   2.32308   -1.000
 5657.00    2.38345   2.28054   19.194
 5658.00    2.31823   2.22111   19.534
 5659.00    2.30864   2.18917   -1.000
 5660.00    2.36327   2.22539   -1.000
 5661.00    2.40012   2.27237   -1.000
 5662.00    2.39485   2.28023   -1.000
 5663.00    2.41503   2.28811   -1.000
 5664.00    2.45772   2.32420   -1.000
 5665.00    2.47137   2.36108   19.559
 5666.00    2.46580   2.37172   19.284
 5667.00    2.45406   2.35395   19.174
 5668.00    2.43710   2.33613   19.252
 5669.00    2.43825   2.33796   19.369
 5670.00    2.45230   2.35039   19.408
 5671.00    2.46693   2.37030   19.368
 5672.00    2.49795   2.40340   19.253
 5673.00    2.53747   2.43584   19.091
 5674.00    2.55065   2.44974   18.902
 5675.00    2.54791   2.44807   18.718
 5676.00    2.55264   2.44267   18.693
 5677.00    2.54980   2.44676   18.750
 5678.00    2.54807   2.44834   18.712
 5679.00    2.54433   2.43286   18.675
 5680.00    2.52713   2.41025   18.751
 5681.00    2.50449   2.38245   -1.000
 5682.00    2.48062   2.34450   -1.000
 5683.00    2.45998   2.31793   -1.000
 5684.00    2.46449   2.32845   -1.000
 5685.00    2.47885   2.35219   -1.000
 5686.00    2.47267   2.35259   -1.000
 5687.00    2.44857   2.33301   19.261
 5688.00    2.45146   2.31922   -1.000
 5689.00    2.47557   2.33193   -1.000
 5690.00    2.50214   2.36986   -1.000
 5691.00    2.54379   2.41305   -1.000
 5692.00    2.56039   2.44437   -1.000
 5693.00    2.55508   2.45725   18.897
 5694.00    2.56246   2.45438   18.771
 5695.00    2.56282   2.44749   18.724
 5696.00    2.55900   2.43970   18.740
 5697.00    2.54065   2.42445   18.757
 5698.00    2.49586   2.39799   18.803
 5699.00    2.46527   2.36867   18.968
 5700.00    2.44731   2.34390   19.187
 5701.00    2.42641   2.32006   19.366
 5702.00    2.41190   2.31468   19.566
 5703.00    2.43794   2.33909   19.678
 5704.00    2.48163   2.36304   -1.000
 5705.00    2.45505   2.36307   19.367
 5706.00    2.40895   2.33040   19.292
 5707.00    2.36766   2.28219   19.396
 5708.00    2.33617   2.24548   19.651
 5709.00    2.32041   2.21852   20.007
 5710.00    2.33058   2.20999   -1.000
 5711.00    2.35310   2.22742   -1.000
 5712.00    2.38350   2.26483   -1.000
 5713.00    2.44492   2.32721   -1.000
 5714.00    2.49774   2.38908   19.885
 5715.00    2.54132   2.42236   -1.000
 5716.00    2.55861   2.43876   -1.000
 5717.00    2.57789   2.44940   -1.000
 5718.00    2.57899   2.45754   -1.000
 5719.00    2.57878   2.46999   18.872
 5720.00    2.59342   2.48993   18.784
 5721.00    2.60985   2.51060   18.666
 5722.00    2.62954   2.52723   18.573
 5723.00    2.63722   2.53724   18.522
 5724.00    2.62592   2.53688   18.492
 5725.00    2.60615   2.51694   18.468
 5726.00    2.58787   2.48031   18.501
 5727.00    2.54925   2.45007   18.639
 5728.00    2.54108   2.45347   18.833
 5729.00    2.58733   2.47725   18.992
 5730.00    2.59338   2.48211   18.934
 5731.00    2.57441   2.46536   18.815
 5732.00    2.57032   2.45381   -1.000
 5733.00    2.58769   2.47411   18.931
 5734.00    2.62669   2.51261   18.891
 5735.00    2.64379   2.52862   18.722
 5736.00    2.62755   2.52049   18.589
 5737.00    2.60293   2.50338   18.583
 5738.00    2.59138   2.49387   18.608
 5739.00    2.60232   2.49856   18.658
 5740.00    2.61832   2.50191   18.681
 5741.00    2.62122   2.49962   -1.000
 5742.00    2.61663   2.49088   -1.000
 5743.00    2.62397   2.49107   -1.000
 5744.00    2.63395   2.51070   -1.000
 5745.00    2.64014   2.53311   18.732
 5746.00    2.64585   2.53425   18.617
 5747.00    2.61064   2.50323   18.506
 5748.00    2.57800   2.47561   18.572
 5749.00    2.59112   2.48709   18.748
 5750.00    2.61221   2.51145   18.843
 5751.00    2.60697   2.51208   18.762
 5752.00    2.55892   2.46445   18.689
 5753.00    2.51071   2.40687   18.800
 5754.00    2.51944   2.38936   -1.000
 5755.00    2.56227   2.42568   -1.000
 5756.00    2.59961   2.49704   19.253
 5757.00    2.63871   2.54637   19.047
 5758.00    2.64618   2.55808   18.707
 5759.00    2.62712   2.53425   18.459
 5760.00    2.59431   2.48586   18.467
 5761.00    2.54822   2.43139   18.653
 5762.00    2.52290   2.39621   -1.000
 5763.00    2.54027   2.40471   -1.000
 5764.00    2.57010   2.46260   19.281
 5765.00    2.59599   2.53148   19.127
 5766.00    2.64191   2.56615   18.802
 5767.00    2.66746   2.57606   18.548
 5768.00    2.65553   2.57316   18.461
 5769.00    2.66490   2.56470   18.439
 5770.00    2.65285   2.55398   18.411
 5771.00    2.63417   2.54290   18.434
 5772.00    2.62240   2.52737   18.493
 5773.00    2.59540   2.51015   18.588
 5774.00    2.59344   2.50219   18.703
 5775.00    2.59264   2.50303   18.764
 5776.00    2.58548   2.51907   18.789
 5777.00    2.59543   2.53443   18.762
 5778.00    2.59168   2.52383   18.677
 5779.00    2.53923   2.48012   18.642
 5780.00    2.45691   2.41099   18.688
 5781.00    2.37636   2.34674   18.918
 5782.00    2.33144   2.31539   19.323
 5783.00    2.32956   2.32433   19.617
 5784.00    2.36880   2.33370   19.637
 5785.00    2.41418   2.33334   19.561
 5786.00    2.46749   2.35856   19.489
 5787.00    2.52833   2.41258   -1.000
 5788.00    2.56947   2.46211   19.232
 5789.00    2.59841   2.48408   18.980
 5790.00    2.59880   2.47595   -1.000
 5791.00    2.58795   2.46286   -1.000
 5792.00    2.59803   2.47118   -1.000
 5793.00    2.62955   2.50974   -1.000
 5794.00    2.67013   2.55277   -1.000
 5795.00    2.66814   2.57421   18.604
 5796.00    2.63474   2.56282   18.489
 5797.00    2.60728   2.52749   18.455
 5798.00    2.59220   2.51025   18.542
 5799.00    2.61899   2.53389   18.663
 5800.00    2.68285   2.58658   18.620
 5801.00    2.72686   2.62364   18.408
 5802.00    2.73095   2.62515   18.154
 5803.00    2.70140   2.59927   18.066
 5804.00    2.65961   2.55867   18.182
 5805.00    2.65339   2.53190   -1.000
 5806.00    2.66058   2.52937   -1.000
 5807.00    2.66047   2.54244   -1.000
 5808.00    2.64958   2.55600   18.560
 5809.00    2.65984   2.56714   18.492
 5810.00    2.67441   2.57937   18.433
 5811.00    2.67987   2.58858   18.421
 5812.00    2.68387   2.58663   18.408
 5813.00    2.67159   2.57432   18.350
 5814.00    2.65441   2.54930   18.291
 5815.00    2.63107   2.51621   18.307
 5816.00    2.62651   2.49572   -1.000
 5817.00    2.64140   2.51617   -1.000
 5818.00    2.68661   2.56280   -1.000
 5819.00    2.72395   2.60569   -1.000
 5820.00    2.72650   2.61893   18.252
 5821.00    2.72956   2.61107   18.161
 5822.00    2.72116   2.59685   -1.000
 5823.00    2.71545   2.58805   -1.000
 5824.00    2.71827   2.59105   -1.000
 5825.00    2.71346   2.59613   18.153
 5826.00    2.71067   2.60263   18.122
 5827.00    2.72191   2.60723   18.090
 5828.00    2.74357   2.61166   -1.000
 5829.00    2.75014   2.61804   -1.000
 5830.00    2.75245   2.62095   -1.000
 5831.00    2.75151   2.61868   -1.000
 5832.00    2.75045   2.61285   -1.000
 5833.00    2.73949   2.60147   -1.000
 5834.00    2.72656   2.58669   -1.000
 5835.00    2.71997   2.57781   -1.000
 5836.00    2.73027   2.58318   -1.000
 5837.00    2.72946   2.58889   -1.000
 5838.00    2.71757   2.58598   -1.000
 5839.00    2.71844   2.59126   -1.000
 5840.00    2.73276   2.60942   -1.000
 5841.00    2.75990   2.63221   -1.000
 5842.00    2.77219   2.64375   -1.000
 5843.00    2.75650   2.63801   17.974
 5844.00    2.73312   2.62168   17.957
 5845.00    2.71125   2.59855   18.006
 5846.00    2.68537   2.57192   18.076
 5847.00    2.66824   2.55086   18.185
 5848.00    2.66931   2.54473   -1.000
 5849.00    2.66414   2.55203   18.374
 5850.00    2.65377   2.55437   18.380
 5851.00    2.64318   2.53605   18.394
 5852.00    2.62334   2.50486   -1.000
 5853.00    2.61409   2.48121   -1.000
 5854.00    2.60765   2.47711   -1.000
 5855.00    2.60189   2.47710   -1.000
 5856.00    2.57615   2.44800   -1.000
 5857.00    2.54165   2.39606   -1.000
 5858.00    2.55505   2.37001   -1.000
 5859.00    2.58950   2.39984   -1.000
 5860.00    2.62975   2.45989   -1.000
 5861.00    2.64960   2.49740   -1.000
 5862.00    2.64353   2.50892   -1.000
 5863.00    2.65452   2.50904   -1.000
 5864.00    2.64509   2.51438   -1.000
 5865.00    2.63881   2.51394   -1.000
 5866.00    2.63145   2.49468   -1.000
 5867.00    2.63771   2.48100   -1.000
 5868.00    2.65799   2.50193   -1.000
 5869.00    2.68596   2.53994   -1.000
 5870.00    2.70581   2.56777   -1.000
 5871.00    2.69972   2.57485   -1.000
 5872.00    2.69980   2.56380   -1.000
 5873.00    2.69079   2.55186   -1.000
 5874.00    2.70304   2.54865   -1.000
 5875.00    2.70237   2.55192   -1.000
 5876.00    2.68347   2.54649   -1.000
 5877.00    2.66497   2.52767   -1.000
 5878.00    2.64978   2.50332   -1.000
 5879.00    2.62815   2.47868   -1.000
 5880.00    2.60646   2.46344   -1.000
 5881.00    2.62302   2.46325   -1.000
 5882.00    2.62808   2.47287   -1.000
 5883.00    2.60075   2.46713   -1.000
 5884.00    2.59391   2.45103   -1.000
 5885.00    2.60162   2.44457   -1.000
 5886.00    2.56930   2.42278   -1.000
 5887.00    2.44734   2.32992   18.946
 5888.00    2.20665   2.13472   19.136
 5889.00    1.82746   1.88844   19.711
 5890.00    1.46885   1.73291   -1.000
 5891.00    1.31257   1.76867   -1.000
 5892.00    1.46060   1.93843   -1.000
 5893.00    1.81839   2.05524   -1.000
 5894.00    2.05337   2.05157   21.646
 5895.00    1.95387   1.95456   21.105
 5896.00    1.67690   1.88617   -1.000
 5897.00    1.56540   1.96928   -1.000
 5898.00    1.74083   2.12785   -1.000
 5899.00    2.09762   2.25935   21.338
 5900.00    2.40792   2.34564   20.588
 5901.00    2.52871   2.40830   -1.000
 5902.00    2.55733   2.44652   19.494
 5903.00    2.56911   2.46476   19.126
 5904.00    2.58455   2.47074   18.966
 5905.00    2.59906   2.46854   -1.000
 5906.00    2.60959   2.46838   -1.000
 5907.00    2.62308   2.48010   -1.000
 5908.00    2.64199   2.49566   -1.000
 5909.00    2.63572   2.50758   -1.000
 5910.00    2.62520   2.52005   18.877
 5911.00    2.62671   2.52601   18.914
 5912.00    2.60555   2.51377   18.956
 5913.00    2.57973   2.47701   18.975
 5914.00    2.55116   2.43035   -1.000
 5915.00    2.54621   2.41003   -1.000
 5916.00    2.57651   2.42332   -1.000
 5917.00    2.59352   2.45081   -1.000
 5918.00    2.61762   2.48593   -1.000
 5919.00    2.62438   2.51186   19.266
 5920.00    2.61000   2.52193   19.190
 5921.00    2.60082   2.51805   19.135
 5922.00    2.59711   2.50757   19.071
 5923.00    2.61003   2.50377   19.057
 5924.00    2.61656   2.51678   19.076
 5925.00    2.62029   2.53701   19.023
 5926.00    2.61245   2.55049   18.955
 5927.00    2.61362   2.54457   18.915
 5928.00    2.61697   2.51433   18.897
 5929.00    2.60376   2.48263   -1.000
 5930.00    2.60994   2.47074   -1.000
 5931.00    2.63918   2.49374   -1.000
 5932.00    2.65083   2.52190   -1.000
 5933.00    2.63901   2.52278   -1.000
 5934.00    2.61504   2.50385   18.938
 5935.00    2.60008   2.49514   19.024
 5936.00    2.63024   2.52090   19.168
 5937.00    2.66415   2.55184   -1.000
 5938.00    2.67500   2.56219   -1.000
 5939.00    2.66802   2.55604   18.978
 5940.00    2.66340   2.53335   -1.000
 5941.00    2.65059   2.50390   -1.000
 5942.00    2.63513   2.49058   -1.000
 5943.00    2.61570   2.50601   19.221
 5944.00    2.61549   2.53339   19.235
 5945.00    2.63632   2.55552   19.143
 5946.00    2.64507   2.55883   19.027
 5947.00    2.62001   2.53937   18.943
 5948.00    2.59694   2.50785   18.964
 5949.00    2.60027   2.49502   19.110
 5950.00    2.61082   2.51061   19.309
 5951.00    2.61348   2.52071   19.396
 5952.00    2.60914   2.51145   19.327
 5953.00    2.60093   2.49655   19.243
 5954.00    2.61891   2.50195   -1.000
 5955.00    2.63787   2.51682   -1.000
 5956.00    2.62464   2.50728   -1.000
 5957.00    2.60957   2.48917   -1.000
 5958.00    2.61304   2.49452   -1.000
 5959.00    2.63839   2.52259   -1.000
 5960.00    2.66278   2.55846   19.283
 5961.00    2.66951   2.58405   19.095
 5962.00    2.68138   2.59144   18.896
 5963.00    2.69649   2.58695   18.796
 5964.00    2.69593   2.57242   -1.000
 5965.00    2.68169   2.55399   -1.000
 5966.00    2.67305   2.54556   -1.000
 5967.00    2.67928   2.55829   -1.000
 5968.00    2.68749   2.57729   -1.000
 5969.00    2.70631   2.59132   -1.000
 5970.00    2.70653   2.60487   18.890
 5971.00    2.69288   2.61431   18.813
 5972.00    2.68664   2.61515   18.802
 5973.00    2.68601   2.60765   18.772
 5974.00    2.67557   2.58756   18.744
 5975.00    2.64569   2.55249   18.813
 5976.00    2.63155   2.51574   -1.000
 5977.00    2.62013   2.49882   -1.000
 5978.00    2.62860   2.50483   -1.000
 5979.00    2.63798   2.53238   19.342
 5980.00    2.65204   2.56366   19.301
 5981.00    2.65630   2.57693   19.150
 5982.00    2.65536   2.55194   19.049
 5983.00    2.63485   2.50399   -1.000
 5984.00    2.60639   2.46523   -1.000
 5985.00    2.59342   2.46999   -1.000
 5986.00    2.62123   2.50854   -1.000
 5987.00    2.66854   2.53848   -1.000
 5988.00    2.69299   2.55692   -1.000
 5989.00    2.69447   2.57132   -1.000
 5990.00    2.68943   2.57546   -1.000
 5991.00    2.68684   2.57320   -1.000
 5992.00    2.69378   2.58120   -1.000
 5993.00    2.71500   2.60802   -1.000
 5994.00    2.72917   2.63249   18.966
 5995.00    2.72400   2.62630   18.818
 5996.00    2.70879   2.59205   -1.000
 5997.00    2.68302   2.55651   -1.000
 5998.00    2.66449   2.53996   -1.000
 5999.00    2.67218   2.55260   -1.000
 6000.00    2.68253   2.57020   -1.000
 6001.00    2.68725   2.57431   -1.000
 6002.00    2.68093   2.56287   -1.000
 6003.00    2.67393   2.54960   -1.000
 6004.00    2.66664   2.55843   -1.000
 6005.00    2.66494   2.56516   19.270
 6006.00    2.64134   2.53925   19.228
 6007.00    2.60568   2.49779   -1.000
 6008.00    2.60455   2.47632   -1.000
 6009.00    2.63070   2.50717   -1.000
 6010.00    2.66359   2.56105   19.569
 6011.00    2.66740   2.57801   19.399
 6012.00    2.65477   2.55743   19.182
 6013.00    2.64582   2.53044   -1.000
 6014.00    2.63906   2.52525   -1.000
 6015.00    2.62952   2.53504   19.369
 6016.00    2.63358   2.53244   19.328
 6017.00    2.64661   2.52715   -1.000
 6018.00    2.64603   2.53159   -1.000
 6019.00    2.64672   2.52305   -1.000
 6020.00    2.64651   2.50253   -1.000
 6021.00    2.64024   2.49908   -1.000
 6022.00    2.64167   2.51250   -1.000
 6023.00    2.66345   2.53251   -1.000
 6024.00    2.69879   2.55244   -1.000
 6025.00    2.71831   2.57558   -1.000
 6026.00    2.71975   2.59690   -1.000
 6027.00    2.72118   2.61028   -1.000
 6028.00    2.72310   2.62636   19.114
 6029.00    2.73635   2.64480   19.016
 6030.00    2.76044   2.65317   -1.000
 6031.00    2.77328   2.65699   -1.000
 6032.00    2.77933   2.66434   -1.000
 6033.00    2.78724   2.67869   -1.000
 6034.00    2.79569   2.70262   18.901
 6035.00    2.78452   2.71706   18.827
 6036.00    2.77205   2.71041   18.766
 6037.00    2.77331   2.69582   18.748
 6038.00    2.75966   2.67715   18.723
 6039.00    2.74168   2.66032   18.725
 6040.00    2.73882   2.64863   18.809
 6041.00    2.74442   2.65130   18.872
 6042.00    2.74772   2.66551   18.921
 6043.00    2.76038   2.68454   18.914
 6044.00    2.77150   2.69915   18.878
 6045.00    2.77721   2.70273   18.805
 6046.00    2.78905   2.70757   18.667
 6047.00    2.79308   2.71132   18.626
 6048.00    2.78944   2.71438   18.641
 6049.00    2.79433   2.71632   18.619
 6050.00    2.79551   2.71762   18.621
 6051.00    2.79050   2.71236   18.675
 6052.00    2.79426   2.69573   18.726
 6053.00    2.78665   2.67175   -1.000
 6054.00    2.77112   2.64963   -1.000
 6055.00    2.76062   2.62907   -1.000
 6056.00    2.73619   2.61750   -1.000
 6057.00    2.73467   2.62634   -1.000
 6058.00    2.75927   2.64819   -1.000
 6059.00    2.77318   2.67031   -1.000
 6060.00    2.78143   2.68104   18.983
 6061.00    2.77218   2.67557   18.881
 6062.00    2.74879   2.65394   18.866
 6063.00    2.72302   2.61827   -1.000
 6064.00    2.68772   2.57991   -1.000
 6065.00    2.66972   2.56251   -1.000
 6066.00    2.64972   2.59152   19.143
 6067.00    2.69131   2.64986   25.059
 6068.00    2.65299   2.69707    8.608
 6069.00    2.75152   2.71808    9.852
 6070.00    2.85224   2.72764   -1.000
 6071.00    2.81478   2.73546   18.906
 6072.00    2.77177   2.73886   18.581
 6073.00    2.76277   2.73732   18.226
 6074.00    1.56955   2.73229   -1.000
 6075.00    1.50038   2.72054   -1.000
 6076.00    2.55362   2.69796   18.710
 6077.00    2.80294   2.66847   -1.000
 6078.00    2.73710   2.64094   18.845
 6079.00    2.73071   2.62820   -1.000
 6080.00    2.73006   2.62294   -1.000
 6081.00    2.71925   2.61291   -1.000
 6082.00    2.71099   2.60250   -1.000
 6083.00    2.72721   2.60594   -1.000
 6084.00    2.71922   2.61313   -1.000
 6085.00    2.70059   2.61946   19.333
 6086.00    2.71657   2.63244   19.320
 6087.00    2.73396   2.64588   19.302
 6088.00    2.73796   2.64713   19.257
 6089.00    2.72541   2.63040   19.185
 6090.00    2.69497   2.60667   19.182
 6091.00    2.68455   2.59661   19.279
 6092.00    2.70901   2.60433   -1.000
 6093.00    2.72935   2.62597   -1.000
 6094.00    2.74682   2.65322   19.305
 6095.00    2.77761   2.67302   -1.000
 6096.00    2.78565   2.67729   -1.000
 6097.00    2.76445   2.67725   18.999
 6098.00    2.75848   2.68860   18.977
 6099.00    2.77217   2.69185   19.015
 6100.00    2.75970   2.65838   -1.000
 6101.00    2.69735   2.58464   -1.000
 6102.00    2.62430   2.50196   -1.000
 6103.00    2.60525   2.48525   -1.000
 6104.00    2.64321   2.53840   -1.000
 6105.00    2.70838   2.60912   -1.000
 6106.00    2.74935   2.64776   -1.000
 6107.00    2.74151   2.66277   19.329
 6108.00    2.74076   2.67495   19.189
 6109.00    2.73837   2.68947   19.224
 6110.00    2.72835   2.68976   19.286
 6111.00    2.74873   2.68252   19.296
 6112.00    2.76383   2.68868   19.263
 6113.00    2.76278   2.70595   19.192
 6114.00    2.76923   2.71958   19.157
 6115.00    2.76778   2.71256   19.095
 6116.00    2.74583   2.69690   19.023
 6117.00    2.72997   2.68910   19.058
 6118.00    2.72428   2.67797   19.172
 6119.00    2.70512   2.64412   19.236
 6120.00    2.66615   2.58437   19.300
 6121.00    2.62335   2.52041   -1.000
 6122.00    2.61639   2.49473   -1.000
 6123.00    2.65155   2.52879   -1.000
 6124.00    2.70080   2.59068   -1.000
 6125.00    2.71796   2.62787   19.865
 6126.00    2.70212   2.63524   19.569
 6127.00    2.70036   2.63015   19.480
 6128.00    2.70679   2.62920   19.563
 6129.00    2.71319   2.65154   19.593
 6130.00    2.73687   2.68729   19.548
 6131.00    2.76906   2.71817   19.431
 6132.00    2.77321   2.72824   19.250
 6133.00    2.75076   2.70773   19.158
 6134.00    2.70175   2.63930   19.174
 6135.00    2.61176   2.53163   19.306
 6136.00    2.52956   2.42876   -1.000
 6137.00    2.50321   2.40624   -1.000
 6138.00    2.55242   2.47345   20.753
 6139.00    2.64929   2.57182   20.978
 6140.00    2.70613   2.62236   -1.000
 6141.00    2.69817   2.62428   20.052
 6142.00    2.70043   2.63469   19.704
 6143.00    2.72418   2.67101   19.663
 6144.00    2.75025   2.70710   19.708
 6145.00    2.75319   2.71830   19.592
 6146.00    2.76204   2.70736   19.358
 6147.00    2.74818   2.68346   19.253
 6148.00    2.70450   2.65506   19.310
 6149.00    2.67855   2.63305   19.425
 6150.00    2.67504   2.62353   19.561
 6151.00    2.68158   2.63530   19.686
 6152.00    2.70197   2.65247   19.728
 6153.00    2.71464   2.65531   19.677
 6154.00    2.68419   2.63448   19.560
 6155.00    2.66230   2.61255   19.491
 6156.00    2.65818   2.60718   19.593
 6157.00    2.64135   2.60511   19.728
 6158.00    2.61767   2.58796   19.769
 6159.00    2.58158   2.53221   19.822
 6160.00    2.50200   2.43052   19.989
 6161.00    2.40506   2.31569   20.314
 6162.00    2.34853   2.25353   20.854
 6163.00    2.36970   2.27972   21.484
 6164.00    2.43721   2.35478   21.845
 6165.00    2.48392   2.43391   21.697
 6166.00    2.51117   2.48229   21.173
 6167.00    2.52322   2.48894   20.739
 6168.00    2.49983   2.44807   20.581
 6169.00    2.46838   2.40288   20.592
 6170.00    2.46043   2.40803   20.786
 6171.00    2.49992   2.46563   21.032
 6172.00    2.54774   2.52344   21.010
 6173.00    2.56497   2.55197   20.676
 6174.00    2.57379   2.56363   20.333
 6175.00    2.57120   2.56623   20.246
 6176.00    2.56756   2.56552   20.280
 6177.00    2.58304   2.57402   20.252
 6178.00    2.59792   2.59099   20.206
 6179.00    2.60523   2.60345   20.158
 6180.00    2.61017   2.61210   20.074
 6181.00    2.62037   2.62864   19.989
 6182.00    2.64313   2.64360   19.924
 6183.00    2.65094   2.64239   19.842
 6184.00    2.62636   2.62643   19.774
 6185.00    2.59568   2.59855   19.783
 6186.00    2.57676   2.56720   19.846
 6187.00    2.55775   2.53964   19.972
 6188.00    2.52731   2.52206   20.174
 6189.00    2.49808   2.49692   20.390
 6190.00    2.47908   2.45293   20.590
 6191.00    2.45928   2.42454   20.755
 6192.00    2.46242   2.44976   20.978
 6193.00    2.51659   2.51139   21.175
 6194.00    2.57735   2.56855   21.070
 6195.00    2.59966   2.60188   20.634
 6196.00    2.59775   2.61681   20.215
 6197.00    2.58808   2.60979   20.026
 6198.00    2.57205   2.58254   19.971
 6199.00    2.55424   2.55132   20.044
 6200.00    2.55276   2.55266   20.248
 6201.00    2.58053   2.58371   20.445
 6202.00    2.60433   2.61797   20.492
 6203.00    2.59614   2.64088   20.345
 6204.00    2.57840   2.65047   20.098
 6205.00    2.57441   2.65714   19.965
 6206.00    2.59279   2.66212   19.957
 6207.00    2.61241   2.66640   19.938
 6208.00    2.62938   2.66504   19.922
 6209.00    2.63113   2.65319   19.972
 6210.00    2.59104   2.63172   20.006
 6211.00    2.56212   2.59873   20.053
 6212.00    2.55249   2.54735   20.207
 6213.00    2.50870   2.49094   20.381
 6214.00    2.46469   2.45172   20.562
 6215.00    2.45592   2.44746   20.836
 6216.00    2.48249   2.46802   21.096
 6217.00    2.52606   2.49014   21.204
 6218.00    2.53703   2.49053   21.047
 6219.00    2.51397   2.47196   20.857
 6220.00    2.50199   2.46826   20.929
 6221.00    2.52692   2.48700   20.959
 6222.00    2.55433   2.51066   20.816
 6223.00    2.55922   2.52258   20.831
 6224.00    2.58256   2.52738   21.821
 6225.00    2.54263   2.53432   22.114
 6226.00    2.37987   2.54104   21.037
 6227.00    2.42020   2.53373   20.620
 6228.00    2.53387   2.49961   20.667
 6229.00    2.48878   2.43789   20.737
 6230.00    2.43419   2.38272   20.962
 6231.00    2.41861   2.37019   21.296
 6232.00    2.45991   2.40682   21.604
 6233.00    2.52196   2.47250   21.653
 6234.00    2.57574   2.53991   21.406
 6235.00    2.60188   2.57931   21.028
 6236.00    2.59388   2.57729   20.659
 6237.00    2.57149   2.54880   20.471
 6238.00    2.53372   2.51137   20.529
 6239.00    2.50899   2.48254   20.722
 6240.00    2.50663   2.46652   20.935
 6241.00    2.49979   2.45836   21.154
 6242.00    2.48360   2.44464   21.299
 6243.00    2.45547   2.42605   21.321
 6244.00    2.45297   2.41719   21.405
 6245.00    2.46806   2.42345   21.565
 6246.00    2.48365   2.44737   21.612
 6247.00    2.52048   2.49258   21.515
 6248.00    2.54815   2.53916   21.326
 6249.00    2.56362   2.56125   21.075
 6250.00    2.56118   2.54796   20.832
 6251.00    2.51483   2.50324   20.733
 6252.00    2.46673   2.45216   20.849
 6253.00    2.44605   2.42237   21.168
 6254.00    2.42914   2.41615   21.495
 6255.00    2.42761   2.41355   21.681
 6256.00    2.42952   2.39656   21.772
 6257.00    2.40719   2.37524   21.787
 6258.00    2.39079   2.37889   21.894
 6259.00    2.43373   2.41170   22.106
 6260.00    2.51351   2.46622   22.131
 6261.00    2.56237   2.52027   21.879
 6262.00    2.58670   2.56376   21.538
 6263.00    2.59351   2.58104   21.234
 6264.00    2.58872   2.57258   20.924
 6265.00    2.57591   2.55897   20.724
 6266.00    2.56149   2.56278   20.789
 6267.00    2.55813   2.57700   20.954
 6268.00    2.56993   2.57778   20.955
 6269.00    2.57344   2.56883   20.813
 6270.00    2.56156   2.56831   20.789
 6271.00    2.57712   2.58160   20.895
 6272.00    2.59014   2.59759   20.925
 6273.00    2.58293   2.60169   20.863
 6274.00    2.58628   2.58508   20.803
 6275.00    2.59042   2.55536   20.815
 6276.00    2.58375   2.52448   20.931
 6277.00    2.56319   2.49779   21.098
 6278.00    2.50902   2.47706   21.364
 6279.00    2.43902   2.45979   21.831
 6280.00    2.39259   2.45447   22.307
 6281.00    2.36889   2.47260   22.550
 6282.00    2.36847   2.51283   22.547
 6283.00    2.39169   2.55682   22.296
 6284.00    2.41715   2.59056   21.910
 6285.00    2.41601   2.61062   21.555
 6286.00    2.41205   2.62752   -1.000
 6287.00    2.44952   2.64634   21.060
 6288.00    2.50595   2.65678   20.881
 6289.00    2.54272   2.64602   20.713
 6290.00    2.56270   2.61864   20.630
 6291.00    2.57157   2.59240   20.680
 6292.00    2.56603   2.58066   20.835
 6293.00    2.56323   2.58054   21.004
 6294.00    2.56378   2.58247   21.094
 6295.00    2.55374   2.56797   21.117
 6296.00    2.53413   2.53617   21.148
 6297.00    2.51741   2.51388   21.257
 6298.00    2.51594   2.51742   21.417
 6299.00    2.51280   2.52886   21.495
 6300.00    2.48374   2.52183   21.485
 6301.00    2.41050   2.50213   21.417
 6302.00    2.36392   2.50261   21.321
 6303.00    2.44392   2.52747   21.378
 6304.00    2.58413   2.56235   21.612
 6305.00    2.66249   2.59170   21.624
 6306.00    2.65944   2.62081   21.327
 6307.00    2.64720   2.64874   21.025
 6308.00    2.64585   2.66424   20.816
 6309.00    2.63493   2.65621   20.636
 6310.00    2.61904   2.63758   20.531
 6311.00    2.60067   2.62007   20.576
 6312.00    2.58840   2.60910   20.700
 6313.00    2.58888   2.59726   20.810
 6314.00    2.58635   2.57339   20.889
 6315.00    2.56387   2.55123   20.939
 6316.00    2.54391   2.53522   21.049
 6317.00    2.53267   2.51896   21.191
 6318.00    2.52684   2.51263   21.209
 6319.00    2.54127   2.54108   21.187
 6320.00    2.57424   2.58518   21.194
 6321.00    2.60328   2.61442   21.168
 6322.00    2.61484   2.63167   20.986
 6323.00    2.62650   2.65176   20.748
 6324.00    2.64651   2.67556   20.616
 6325.00    2.65636   2.68842   20.550
 6326.00    2.64946   2.68961   20.458
 6327.00    2.64637   2.68938   20.369
 6328.00    2.65920   2.69229   20.337
 6329.00    2.68107   2.69250   20.279
 6330.00    2.69353   2.69166   20.237
 6331.00    2.68781   2.70325   20.262
 6332.00    2.68561   2.71442   20.274
 6333.00    2.68372   2.69899   20.241
 6334.00    2.65301   2.65236   20.184
 6335.00    2.61868   2.59659   20.201
 6336.00    2.60837   2.57312   20.258
 6337.00    2.60433   2.58849   20.532
 6338.00    2.61428   2.62072   20.810
 6339.00    2.64979   2.65605   20.709
 6340.00    2.68855   2.68588   20.505
 6341.00    2.70188   2.69088   20.286
 6342.00    2.68395   2.66924   20.128
 6343.00    2.66282   2.63786   20.037
 6344.00    2.65203   2.62487   19.998
 6345.00    2.65768   2.64368   20.108
 6346.00    2.67766   2.67388   20.219
 6347.00    2.70248   2.70422   20.193
 6348.00    2.72870   2.72994   20.105
 6349.00    2.72097   2.74646   19.976
 6350.00    2.70194   2.75370   19.868
 6351.00    2.71442   2.75238   19.838
 6352.00    2.71254   2.73856   19.822
 6353.00    2.68274   2.70843   19.807
 6354.00    2.65142   2.67479   19.865
 6355.00    2.62067   2.65691   19.957
 6356.00    2.60747   2.64941   20.121
 6357.00    2.59980   2.62902   20.331
 6358.00    2.58014   2.59620   20.416
 6359.00    2.56836   2.56947   20.442
 6360.00    2.57416   2.55295   20.596
 6361.00    2.57552   2.54018   20.765
 6362.00    2.57079   2.53757   20.755
 6363.00    2.58266   2.55467   20.671
 6364.00    2.60003   2.58810   20.631
 6365.00    2.62068   2.62507   20.587
 6366.00    2.64408   2.66046   20.479
 6367.00    2.67324   2.69476   20.343
 6368.00    2.70554   2.71741   20.224
 6369.00    2.71177   2.72217   20.106
 6370.00    2.71441   2.72324   19.974
 6371.00    2.72385   2.73387   19.882
 6372.00    2.72573   2.75530   19.869
 6373.00    2.74204   2.76942   19.845
 6374.00    2.75504   2.77033   19.767
 6375.00    2.74379   2.76731   19.755
 6376.00    2.71037   2.76074   19.796
 6377.00    2.68758   2.74353   19.823
 6378.00    2.67951   2.72350   19.883
 6379.00    2.66702   2.70977   19.973
 6380.00    2.66096   2.70443   20.093
 6381.00    2.66334   2.70810   20.202
 6382.00    2.67013   2.71575   20.243
 6383.00    2.67661   2.72002   20.266
 6384.00    2.68376   2.72242   20.285
 6385.00    2.67692   2.73167   20.252
 6386.00    2.66689   2.74650   20.270
 6387.00    2.67777   2.75432   20.349
 6388.00    2.67469   2.75593   20.360
 6389.00    2.65940   2.75655   20.379
 6390.00    2.64358   2.74603   20.448
 6391.00    2.60691   2.71049   20.565
 6392.00    2.57991   2.65967   20.737
 6393.00    2.55277   2.62680   20.936
 6394.00    2.51825   2.64488   21.221
 6395.00    2.52912   2.69561   21.478
 6396.00    2.56246   2.74044   21.528
 6397.00    2.56715   2.74433   21.321
 6398.00    2.53767   2.69909   21.129
 6399.00    2.49100   2.63608   21.192
 6400.00    2.45854   2.61476   21.425
 6401.00    2.46190   2.66095   21.843
 6402.00    2.49729   2.72746   -1.000
 6403.00    2.53893   2.77557   -1.000
 6404.00    2.55378   2.79223   -1.000
 6405.00    2.54003   2.77630   -1.000
 6406.00    2.50484   2.73843   -1.000
 6407.00    2.45820   2.70847   -1.000
 6408.00    2.44013   2.70639   -1.000
 6409.00    2.44355   2.71863   -1.000
 6410.00    2.43375   2.71757   -1.000
 6411.00    2.40354   2.70205   -1.000
 6412.00    2.38134   2.69584   -1.000
 6413.00    2.37087   2.70890   -1.000
 6414.00    2.35554   2.72556   -1.000
 6415.00    2.35020   2.74218   -1.000
 6416.00    2.34842   2.75346   -1.000
 6417.00    2.32984   2.74849   -1.000
 6418.00    2.30737   2.72109   -1.000
 6419.00    2.26603   2.68013   -1.000
 6420.00    2.22397   2.64962   -1.000
 6421.00    2.21823   2.65857   -1.000
 6422.00    2.21717   2.70687   -1.000
 6423.00    2.21531   2.75476   -1.000
 6424.00    2.23042   2.78174   -1.000
 6425.00    2.23032   2.79737   -1.000
 6426.00    2.21384   2.81106   -1.000
 6427.00    2.18661   2.81402   -1.000
 6428.00    2.15560   2.78534   -1.000
