###################################################################
## OUTPUT of StarlightChains_v04.for    [Cid@UFSC - 01/Apr/2007] ##
###################################################################

## Some input info
NGC6284_a_2.cxt                          [arq_obs]
Base.BC03.N                              [arq_base]
NGC6284_a_2.msk                          [arq_masks]
StCv04.C11.config                        [arq_config]
   45                                    [N_base]
    0                                    [N_YAV_components = # of components with extra extinction!]
    0                                    [i_FitPowerLaw (1/0 = Yes/No)]
-9.99                                    [alpha_PowerLaw]
CCM                                      [red_law_option]
 1.458241                                [q_norm = A(l_norm)/A(V)]

## (Re)Sampling Parameters
 3359.00                                 [l_ini (A)]
 6428.00                                 [l_fin (A)]
    1.00                                 [dl    (A)]     (OBS: dl_cushion =    50.00 A)

## Normalization info
 4020.00                                 [l_norm (A) - for base]
 4010.00                                 [llow_norm (A) - window for f_obs]
 4060.00                                 [lupp_norm (A) - window for f_obs]
1.360561E-14                             [fobs_norm (in input units)]

## S/N
 4730.00                                 [llow_SN (A) - window for S/N]
 4780.00                                 [lupp_SN (A) - window for S/N]
  73.354                                 [S/N in S/N window]
  58.120                                 [S/N in norm. window]
  64.892                                 [S/N_err in S/N window]
  51.416                                 [S/N_err in norm. window]
  1.0000                                 [fscale_chi2]

## etc...
  2147483620                             [idum_orig]
  3068                                   [NOl_eff]
  1719                                   [Nl_eff]
  1349    NSIGMA                         [Ntot_cliped & clip_method]
   872900                                [Nglobal_steps]
   7                                     [N_chains]
  14                                     [NEX0s_base = N_base in EX0s-fits]
 0   0   1      379   2.0   9.368E+02    [Clip-Bug, RC-Crash & Burn-In warning-flags, n_censored_weights, wei_nsig_threshold & wei_limit]
    10      9.719      9.719      0.000  [idt_all, wdt_TotTime, wdt_UsrTime & wdt_SysTime (sec)]

## Synthesis Results - Best model ##

 1.91042E+00                             [chi2/Nl_eff]
     1.52579                             [adev (%)]

   104.56087                             [sum-of-x (%)]
 4.66963E-14                             [Flux_tot (units of input spectrum!)]
 6.19474E-10                             [Mini_tot (???)]
 3.27012E-10                             [Mcor_tot (???)]

  -8.83                                  [v0_min  (km/s)]
 102.70                                  [vd_min  (km/s)]
 0.8850                                  [AV_min  (mag)]
 0.0000                                  [YAV_min (mag)]

# j     x_j(%)      Mini_j(%)     Mcor_j(%)     age_j(yr)     Z_j      (L/M)_j    YAV?  Mstars   component_j        a/Fe...       SSP_chi2r SSP_adev(%)   SSP_AV   SSP_x(%)
  1      0.0000     0.0000E+00    0.0000E+00    1.000000E+06  0.00400  1.114E-02    0   1.0000   age020_m42            0.0000     3.7169E+02    15.7791   4.0000    74.4238
  2      1.7217     3.0475E-03    5.7724E-03    3.160000E+06  0.00400  4.073E-02    0   0.9999   age045_m42            0.0000     3.8504E+01     3.8528   3.3902    89.1635
  3      0.0000     0.0000E+00    0.0000E+00    5.010000E+06  0.00400  2.534E-02    0   0.9488   age055_m42            0.0000     8.7955E+01     5.4111   3.8411    80.9398
  4      5.5522     3.1493E-02    5.2869E-02    1.000000E+07  0.00400  1.271E-02    0   0.8862   age070_m42            0.0000     6.3459E+01     6.0096   3.0636    84.1951
  5      0.5836     8.2980E-03    1.2849E-02    2.512000E+07  0.00400  5.070E-03    0   0.8174   age090_m42            0.0000     6.0482E+01     5.7479   2.9247    86.2347
  6      0.0000     0.0000E+00    0.0000E+00    4.000000E+07  0.00400  3.505E-03    0   0.7851   age104_m42            0.0000     4.7183E+01     4.6969   2.5853    90.5734
  7     21.2068     6.7410E-01    9.2031E-01    1.015200E+08  0.00400  2.268E-03    0   0.7207   age116_m42            0.0000     3.4570E+02     4.6887   2.4546   106.0717
  8      0.0000     0.0000E+00    0.0000E+00    2.861200E+08  0.00400  1.079E-03    0   0.6613   age125_m42            0.0000     3.4744E+02     5.3178   1.9202   110.4935
  9      0.0000     0.0000E+00    0.0000E+00    6.405400E+08  0.00400  5.077E-04    0   0.6197   age132_m42            0.0000     3.6110E+02     5.6603   1.5366   115.8835
 10      0.0000     0.0000E+00    0.0000E+00    9.047900E+08  0.00400  3.535E-04    0   0.6024   age135_m42            0.0000     2.0117E+02     4.7033   1.3113   114.7395
 11      0.0000     2.4862E-06    2.6921E-06    1.434000E+09  0.00400  1.910E-04    0   0.5716   age139_m42            0.0000     4.8472E+01     3.5828   0.7884   114.4597
 12     46.8955     3.4435E+01    3.5636E+01    2.500000E+09  0.00400  9.818E-05    0   0.5463   age150_m42            0.0000     1.4499E+01     2.6283   0.5454   108.6242
 13     26.5214     4.0526E+01    4.0135E+01    5.000000E+09  0.00400  4.718E-05    0   0.5228   age161_m42            0.0000     5.7199E+01     2.5048   0.4028   104.1569
 14      0.0000     0.0000E+00    0.0000E+00    1.100000E+10  0.00400  2.205E-05    0   0.4980   age185_m42            0.0000     1.4880E+02     3.4035   0.1397   102.7396
 15      0.0000     0.0000E+00    0.0000E+00    1.300000E+10  0.00400  1.883E-05    0   0.4927   age193_m42            0.0000     1.6810E+02     3.5114   0.1247   102.5374
 16      0.0000     0.0000E+00    0.0000E+00    1.000000E+06  0.02000  1.989E-02    0   1.0000   age020_m62            0.0000     3.5495E+02    14.5916   4.0000    75.1852
 17      0.0000     0.0000E+00    0.0000E+00    3.160000E+06  0.02000  3.772E-02    0   0.9858   age045_m62            0.0000     2.3950E+02    10.6145   4.0000    76.7911
 18      0.0789     1.7622E-04    3.1186E-04    5.010000E+06  0.02000  3.227E-02    0   0.9342   age055_m62            0.0000     5.8573E+01     4.9588   3.6825    84.5089
 19      0.0002     1.4715E-06    2.4394E-06    1.000000E+07  0.02000  1.011E-02    0   0.8751   age070_m62            0.0000     1.7209E+02     9.5087   3.1308    78.4806
 20      0.0000     0.0000E+00    0.0000E+00    2.512000E+07  0.02000  4.206E-03    0   0.8099   age090_m62            0.0000     1.4220E+02     7.9781   3.0458    80.5554
 21      0.0000     0.0000E+00    0.0000E+00    4.000000E+07  0.02000  3.373E-03    0   0.7799   age104_m62            0.0000     6.8704E+01     4.8056   2.7900    92.2250
 22      0.0000     2.6354E-07    3.6049E-07    1.015200E+08  0.02000  1.878E-03    0   0.7221   age116_m62            0.0000     3.0062E+02     4.3355   2.5136   104.7584
 23      0.0000     0.0000E+00    0.0000E+00    2.861200E+08  0.02000  8.869E-04    0   0.6700   age125_m62            0.0000     6.1672E+02     6.7440   1.8878   117.9681
 24      0.0000     0.0000E+00    0.0000E+00    6.405400E+08  0.02000  3.657E-04    0   0.6322   age132_m62            0.0000     2.8886E+02     6.6020   1.1529   126.1548
 25      0.0000     0.0000E+00    0.0000E+00    9.047900E+08  0.02000  2.312E-04    0   0.6152   age135_m62            0.0000     1.0491E+02     5.3742   0.8053   124.4015
 26      0.0000     0.0000E+00    0.0000E+00    1.434000E+09  0.02000  1.168E-04    0   0.5865   age139_m62            0.0000     1.8537E+01     3.5874   0.4534   115.3122
 27      0.0000     0.0000E+00    0.0000E+00    2.500000E+09  0.02000  5.505E-05    0   0.5610   age150_m62            0.0000     8.9344E+01     4.0224   0.0959   112.2415
 28      0.0000     0.0000E+00    0.0000E+00    5.000000E+09  0.02000  2.596E-05    0   0.5353   age161_m62            0.0000     2.4943E+02     5.4388  -0.2593   114.4484
 29      0.0000     0.0000E+00    0.0000E+00    1.100000E+10  0.02000  1.169E-05    0   0.5103   age185_m62            0.0000     4.4288E+02     6.8235  -0.6517   118.3528
 30      0.0000     0.0000E+00    0.0000E+00    1.300000E+10  0.02000  9.691E-06    0   0.5047   age193_m62            0.0000     4.8600E+02     7.0130  -0.7001   118.8823
 31      0.0000     0.0000E+00    0.0000E+00    1.000000E+06  0.05000  2.651E-02    0   0.9998   age020_m72            0.0000     3.4447E+02    14.4270   4.0000    76.2352
 32      0.0000     0.0000E+00    0.0000E+00    3.160000E+06  0.05000  4.817E-02    0   0.9577   age045_m72            0.0000     1.2664E+02     6.6224   4.0000    79.7520
 33      0.0000     0.0000E+00    0.0000E+00    5.010000E+06  0.05000  3.101E-02    0   0.9147   age055_m72            0.0000     1.0068E+02     6.0067   3.7296    81.4603
 34      0.0000     0.0000E+00    0.0000E+00    1.000000E+07  0.05000  8.954E-03    0   0.8524   age070_m72            0.0000     1.3682E+02     6.2799   3.9616    80.5878
 35      0.0000     0.0000E+00    0.0000E+00    2.512000E+07  0.05000  4.207E-03    0   0.7902   age090_m72            0.0000     7.1146E+01     4.9779   3.4916    87.7165
 36      0.0000     0.0000E+00    0.0000E+00    4.000000E+07  0.05000  3.198E-03    0   0.7618   age104_m72            0.0000     1.6441E+02     3.9353   2.9114    99.2426
 37      0.0000     1.8358E-07    2.4663E-07    1.015200E+08  0.05000  1.716E-03    0   0.7092   age116_m72            0.0000     3.6151E+02     4.7123   2.5839   105.7350
 38      0.0000     0.0000E+00    0.0000E+00    2.861200E+08  0.05000  7.047E-04    0   0.6618   age125_m72            0.0000     5.6147E+02     6.7766   1.6594   120.2871
 39      0.0000     0.0000E+00    0.0000E+00    6.405400E+08  0.05000  2.633E-04    0   0.6253   age132_m72            0.0000     1.6665E+02     5.9839   0.7715   126.5582
 40      0.0000     0.0000E+00    0.0000E+00    9.047900E+08  0.05000  1.484E-04    0   0.6088   age135_m72            0.0000     2.9462E+01     4.8405   0.3327   119.6109
 41      0.0000     0.0000E+00    0.0000E+00    1.434000E+09  0.05000  7.827E-05    0   0.5847   age139_m72            0.0000     1.0834E+02     5.2651  -0.0337   115.5002
 42      0.0000     0.0000E+00    0.0000E+00    2.500000E+09  0.05000  3.759E-05    0   0.5583   age150_m72            0.0000     2.5976E+02     5.9445  -0.3493   114.9026
 43      0.0379     1.7674E-01    1.7811E-01    5.000000E+09  0.05000  1.548E-05    0   0.5320   age161_m72            0.0000     4.1912E+02     7.1964  -0.7852   116.4017
 44      0.9783     1.0797E+01    1.0370E+01    1.100000E+10  0.05000  6.532E-06    0   0.5070   age185_m72            0.0000     5.8548E+02    11.4684  -1.0000   117.0480
 45      0.9843     1.3349E+01    1.2689E+01    1.300000E+10  0.05000  5.316E-06    0   0.5018   age193_m72            0.0000     7.0588E+02    14.7728  -1.0000   116.1810


## Synthesis Results - Average & Chains ##

# j      x_j: min, <> & last-chain-values for 1 ...  7 chains
  1      0.0000      0.0120      0.0000      0.0000      0.0000      0.0000      0.0000      0.0000      0.0139
  2      1.7217      0.7486      1.4630      1.0752      0.8789      0.8148      1.1799      0.8533      0.7252
  3      0.0000      0.1308      0.0200      0.2399      0.1246      0.2032      0.0000      0.0000      0.1365
  4      5.5522      4.2098      4.2307      4.6910      4.3257      4.3312      4.4246      4.2190      4.6040
  5      0.5836      0.5542      0.8938      0.5789      0.6467      0.8120      0.5910      0.7577      0.5941
  6      0.0000      0.1153      0.0000      0.0000      0.0000      0.0000      0.0000      0.3092      0.0525
  7     21.2068     19.8218     20.4669     19.9435     20.3320     20.1069     19.8891     20.3159     19.9321
  8      0.0000      0.1009      0.0000      0.0305      0.0000      0.2410      0.0000      0.0000      0.0000
  9      0.0000      0.1891      0.0000      0.0000      0.0000      0.0000      0.1791      0.1300      0.1004
 10      0.0000      0.2320      0.2506      0.7442      0.2812      0.0000      0.2569      0.0000      0.2920
 11      0.0000      0.1315      0.1618      0.0000      0.0310      0.0000      0.4790      0.0176      0.2719
 12     46.8955     48.1435     47.9401     47.2906     47.8198     47.9303     47.5058     48.3134     47.8602
 13     26.5214     25.2958     24.9429     25.0170     25.3740     25.1674     25.1143     25.1690     25.0173
 14      0.0000      0.1643      0.3087      0.1956      0.2212      0.0708      0.0000      0.0000      0.3389
 15      0.0000      0.1553      0.0000      0.6070      0.0000      0.0000      0.0000      0.0000      0.1569
 16      0.0000      0.0119      0.0000      0.0000      0.0000      0.0000      0.0000      0.0090      0.0000
 17      0.0000      0.0102      0.0000      0.0000      0.0000      0.0000      0.0000      0.0000      0.0000
 18      0.0789      0.2026      0.0000      0.0000      0.4520      0.1766      0.3931      0.2306      0.3396
 19      0.0002      0.2139      0.1076      0.0815      0.3354      0.4171      0.3943      0.3943      0.3591
 20      0.0000      0.0140      0.0000      0.0000      0.0768      0.0000      0.0000      0.0000      0.0000
 21      0.0000      0.0954      0.0000      0.1871      0.0000      0.0000      0.0645      0.0000      0.0000
 22      0.0000      0.3930      0.3841      0.1087      0.5719      0.5096      0.4825      0.4858      0.5658
 23      0.0000      0.0666      0.0000      0.0000      0.0000      0.0000      0.0000      0.0000      0.0000
 24      0.0000      0.0213      0.0000      0.0000      0.0000      0.0000      0.0000      0.0000      0.0000
 25      0.0000      0.0458      0.0000      0.0000      0.0417      0.0000      0.0000      0.0000      0.0000
 26      0.0000      0.0510      0.0311      0.0000      0.0000      0.0000      0.2034      0.1348      0.0000
 27      0.0000      0.1641      0.0717      0.0000      0.0936      0.0252      0.0000      0.4289      0.0797
 28      0.0000      0.0597      0.1137      0.1496      0.0000      0.0335      0.0000      0.0000      0.0036
 29      0.0000      0.2078      0.0000      0.0262      0.2662      0.1632      0.1198      0.0000      0.3963
 30      0.0000      0.2609      0.3324      0.2049      0.2888      0.4428      0.2959      0.2113      0.2599
 31      0.0000      0.0074      0.0000      0.0000      0.0000      0.0000      0.0000      0.0000      0.0019
 32      0.0000      0.0291      0.0911      0.0098      0.0000      0.0000      0.0000      0.0000      0.0000
 33      0.0000      0.0339      0.0000      0.0000      0.0000      0.0000      0.0328      0.0000      0.0000
 34      0.0000      0.0138      0.0000      0.0000      0.0000      0.0000      0.0000      0.0000      0.0000
 35      0.0000      0.0282      0.0000      0.0000      0.0000      0.0000      0.0000      0.0000      0.0000
 36      0.0000      0.3525      0.3800      0.3977      0.0963      0.3849      0.3543      0.3026      0.3458
 37      0.0000      0.4465      0.3246      0.7968      0.5062      0.6483      0.3841      0.4081      0.4635
 38      0.0000      0.0548      0.0000      0.0338      0.0000      0.0000      0.0208      0.0000      0.0417
 39      0.0000      0.0457      0.0000      0.0000      0.0307      0.0000      0.0000      0.0000      0.0000
 40      0.0000      0.0814      0.0275      0.0000      0.0621      0.0652      0.0000      0.0000      0.0000
 41      0.0000      0.0405      0.0000      0.0000      0.0000      0.0000      0.0982      0.0000      0.0346
 42      0.0000      0.1063      0.0000      0.2092      0.0289      0.0000      0.1606      0.0000      0.0000
 43      0.0379      0.6324      0.5616      0.6918      0.6413      0.5599      0.7372      0.6662      0.6674
 44      0.9783      0.7668      1.2466      0.8401      0.6963      0.7488      0.7474      0.9228      0.6726
 45      0.9843      0.7168      0.7140      0.8528      0.7545      1.1538      0.8432      0.7710      0.6317

# j      m_j: min, <> & last-chain-values for 1 ...  7 chains
  1  0.0000E+00  1.4493E-04  0.0000E+00  0.0000E+00  0.0000E+00  0.0000E+00  0.0000E+00  0.0000E+00  1.7108E-04
  2  5.7724E-03  2.4783E-03  4.7103E-03  3.4879E-03  2.9316E-03  2.5896E-03  3.9158E-03  2.8356E-03  2.4359E-03
  3  0.0000E+00  6.6024E-04  9.8019E-05  1.1867E-03  6.3410E-04  9.8512E-04  0.0000E+00  0.0000E+00  6.9955E-04
  4  5.2869E-02  3.9582E-02  3.8686E-02  4.3220E-02  4.0979E-02  3.9096E-02  4.1707E-02  3.9822E-02  4.3924E-02
  5  1.2849E-02  1.2049E-02  1.8899E-02  1.2333E-02  1.4167E-02  1.6948E-02  1.2882E-02  1.6538E-02  1.3107E-02
  6  0.0000E+00  3.4836E-03  0.0000E+00  0.0000E+00  0.0000E+00  0.0000E+00  0.0000E+00  9.3742E-03  1.6076E-03
  7  9.2031E-01  8.4939E-01  8.5295E-01  8.3743E-01  8.7783E-01  8.2717E-01  8.5442E-01  8.7392E-01  8.6666E-01
  8  0.0000E+00  8.3373E-03  0.0000E+00  2.4732E-03  0.0000E+00  1.9118E-02  0.0000E+00  0.0000E+00  0.0000E+00
  9  0.0000E+00  3.1121E-02  0.0000E+00  0.0000E+00  0.0000E+00  0.0000E+00  2.9560E-02  2.1486E-02  1.6768E-02
 10  0.0000E+00  5.3324E-02  5.6008E-02  1.6757E-01  6.5115E-02  0.0000E+00  5.9195E-02  0.0000E+00  6.8083E-02
 11  2.6921E-06  5.3057E-02  6.3484E-02  0.0000E+00  1.2598E-02  0.0000E+00  1.9378E-01  7.1216E-03  1.1133E-01
 12  3.5636E+01  3.6124E+01  3.4984E+01  3.4771E+01  3.6152E+01  3.4527E+01  3.5736E+01  3.6392E+01  3.6439E+01
 13  4.0135E+01  3.7799E+01  3.6248E+01  3.6631E+01  3.8202E+01  3.6104E+01  3.7622E+01  3.7755E+01  3.7932E+01
 14  0.0000E+00  5.0052E-01  9.1437E-01  5.8378E-01  6.7868E-01  2.0687E-01  0.0000E+00  0.0000E+00  1.0475E+00
 15  0.0000E+00  5.4808E-01  0.0000E+00  2.0986E+00  0.0000E+00  0.0000E+00  0.0000E+00  0.0000E+00  5.6186E-01
 16  0.0000E+00  8.0419E-05  0.0000E+00  0.0000E+00  0.0000E+00  0.0000E+00  0.0000E+00  6.1581E-05  0.0000E+00
 17  0.0000E+00  3.6026E-05  0.0000E+00  0.0000E+00  0.0000E+00  0.0000E+00  0.0000E+00  0.0000E+00  0.0000E+00
 18  3.1186E-04  7.9094E-04  0.0000E+00  0.0000E+00  1.7780E-03  6.6171E-04  1.5383E-03  9.0375E-04  1.3454E-03
 19  2.4394E-06  2.4967E-03  1.2214E-03  9.3215E-04  3.9446E-03  4.6736E-03  4.6144E-03  4.6204E-03  4.2533E-03
 20  0.0000E+00  3.6357E-04  0.0000E+00  0.0000E+00  2.0086E-03  0.0000E+00  0.0000E+00  0.0000E+00  0.0000E+00
 21  0.0000E+00  2.9747E-03  0.0000E+00  5.7163E-03  0.0000E+00  0.0000E+00  2.0172E-03  0.0000E+00  0.0000E+00
 22  3.6049E-07  2.0378E-02  1.9368E-02  5.5220E-03  2.9877E-02  2.5368E-02  2.5082E-02  2.5287E-02  2.9767E-02
 23  0.0000E+00  6.7815E-03  0.0000E+00  0.0000E+00  0.0000E+00  0.0000E+00  0.0000E+00  0.0000E+00  0.0000E+00
 24  0.0000E+00  4.9746E-03  0.0000E+00  0.0000E+00  0.0000E+00  0.0000E+00  0.0000E+00  0.0000E+00  0.0000E+00
 25  0.0000E+00  1.6436E-02  0.0000E+00  0.0000E+00  1.5060E-02  0.0000E+00  0.0000E+00  0.0000E+00  0.0000E+00
 26  0.0000E+00  3.4545E-02  2.0473E-02  0.0000E+00  0.0000E+00  0.0000E+00  1.3805E-01  9.1642E-02  0.0000E+00
 27  0.0000E+00  2.2549E-01  9.5861E-02  0.0000E+00  1.2961E-01  3.3219E-02  0.0000E+00  5.9162E-01  1.1114E-01
 28  0.0000E+00  1.6608E-01  3.0740E-01  4.0762E-01  0.0000E+00  8.9513E-02  0.0000E+00  0.0000E+00  1.0144E-02
 29  0.0000E+00  1.2230E+00  0.0000E+00  1.5085E-01  1.5789E+00  9.2221E-01  7.0685E-01  0.0000E+00  2.3670E+00
 30  0.0000E+00  1.8325E+00  2.2701E+00  1.4101E+00  2.0432E+00  2.9852E+00  2.0832E+00  1.4894E+00  1.8524E+00
 31  0.0000E+00  3.7580E-05  0.0000E+00  0.0000E+00  0.0000E+00  0.0000E+00  0.0000E+00  0.0000E+00  9.5552E-06
 32  0.0000E+00  7.7957E-05  2.3756E-04  2.5664E-05  0.0000E+00  0.0000E+00  0.0000E+00  0.0000E+00  0.0000E+00
 33  0.0000E+00  1.3502E-04  0.0000E+00  0.0000E+00  0.0000E+00  0.0000E+00  1.3076E-04  0.0000E+00  0.0000E+00
 34  0.0000E+00  1.7732E-04  0.0000E+00  0.0000E+00  0.0000E+00  0.0000E+00  0.0000E+00  0.0000E+00  0.0000E+00
 35  0.0000E+00  7.1474E-04  0.0000E+00  0.0000E+00  0.0000E+00  0.0000E+00  0.0000E+00  0.0000E+00  0.0000E+00
 36  0.0000E+00  1.1323E-02  1.1873E-02  1.2517E-02  3.1156E-03  1.1870E-02  1.1411E-02  9.7582E-03  1.1272E-02
 37  2.4663E-07  2.4881E-02  1.7592E-02  4.3516E-02  2.8426E-02  3.4685E-02  2.1460E-02  2.2832E-02  2.6214E-02
 38  0.0000E+00  6.9362E-03  0.0000E+00  4.1987E-03  0.0000E+00  0.0000E+00  2.6348E-03  0.0000E+00  5.3628E-03
 39  0.0000E+00  1.4650E-02  0.0000E+00  0.0000E+00  9.8975E-03  0.0000E+00  0.0000E+00  0.0000E+00  0.0000E+00
 40  0.0000E+00  4.5015E-02  1.4808E-02  0.0000E+00  3.4635E-02  3.4643E-02  0.0000E+00  0.0000E+00  0.0000E+00
 41  0.0000E+00  4.0831E-02  0.0000E+00  0.0000E+00  0.0000E+00  0.0000E+00  9.9216E-02  0.0000E+00  3.5367E-02
 42  0.0000E+00  2.1293E-01  0.0000E+00  4.1048E-01  5.8335E-02  0.0000E+00  3.2255E-01  0.0000E+00  0.0000E+00
 43  1.7811E-01  2.9307E+00  2.5314E+00  3.1417E+00  2.9944E+00  2.4910E+00  3.4249E+00  3.0991E+00  3.1386E+00
 44  1.0370E+01  8.0256E+00  1.2690E+01  8.6170E+00  7.3435E+00  7.5241E+00  7.8431E+00  9.6958E+00  7.1434E+00
 45  1.2689E+01  9.1242E+00  8.8392E+00  1.0638E+01  9.6766E+00  1.4100E+01  1.0760E+01  9.8516E+00  8.1589E+00

# AV, chi2 & Mass for <> & i_chain = 1 ...  7 solutions
AV       0.8850      0.8480      0.8533      0.8553      0.8628      0.8530      0.8619      0.8575      0.8636
chi2 1.9104E+00  1.9979E+00  1.9645E+00  1.9635E+00  1.9569E+00  1.9683E+00  1.9567E+00  1.9678E+00  1.9587E+00
Mass 3.2701E-10  3.1512E-10  3.2634E-10  3.2477E-10  3.1906E-10  3.3048E-10  3.2026E-10  3.1796E-10  3.1715E-10
  -8.83                                  [v0_min (km/s) before EX0s...]
 102.70                                  [vd_min (km/s) before EX0s...]


## Synthetic spectrum (Best Model) ##l_obs f_obs f_syn wei
 3070    [Nl_obs]
 3359.00    0.04133   0.45628   -1.000
 3360.00    0.22867   0.43859   -1.000
 3361.00    0.21710   0.43794   -1.000
 3362.00    0.23638   0.45477   -1.000
 3363.00    0.25824   0.47899   -1.000
 3364.00    0.27963   0.49691   -1.000
 3365.00    0.27362   0.50011   -1.000
 3366.00    0.27202   0.48926   -1.000
 3367.00    0.28052   0.47201   -1.000
 3368.00    0.26133   0.45685   -1.000
 3369.00    0.26463   0.44764   -1.000
 3370.00    0.26280   0.44301   -1.000
 3371.00    0.26485   0.44098   -1.000
 3372.00    0.26314   0.44373   -1.000
 3373.00    0.26900   0.45549   -1.000
 3374.00    0.28169   0.47651   -1.000
 3375.00    0.29962   0.49948   -1.000
 3376.00    0.32034   0.51274   -1.000
 3377.00    0.32627   0.50940   -1.000
 3378.00    0.32654   0.49321   -1.000
 3379.00    0.33072   0.47564   -1.000
 3380.00    0.32674   0.46755   -1.000
 3381.00    0.31382   0.47255   -1.000
 3382.00    0.31966   0.48604   -1.000
 3383.00    0.32356   0.50065   -1.000
 3384.00    0.32099   0.51246   -1.000
 3385.00    0.32590   0.52079   -1.000
 3386.00    0.34411   0.52497   -1.000
 3387.00    0.35121   0.52494   -1.000
 3388.00    0.36160   0.52252   -1.000
 3389.00    0.36079   0.51920   -1.000
 3390.00    0.36532   0.51415   -1.000
 3391.00    0.38053   0.50634   -1.000
 3392.00    0.36309   0.49828   -1.000
 3393.00    0.36827   0.49598   -1.000
 3394.00    0.36879   0.50368   -1.000
 3395.00    0.37642   0.51985   -1.000
 3396.00    0.39344   0.53876   -1.000
 3397.00    0.40914   0.55439   -1.000
 3398.00    0.42233   0.56253   -1.000
 3399.00    0.43127   0.56158   -1.000
 3400.00    0.44093   0.55293   -1.000
 3401.00    0.44243   0.53986   -1.000
 3402.00    0.44420   0.52638   -1.000
 3403.00    0.42755   0.51618   -1.000
 3404.00    0.41640   0.51021   -1.000
 3405.00    0.41124   0.50587   -1.000
 3406.00    0.41740   0.50051   -1.000
 3407.00    0.41081   0.49528   -1.000
 3408.00    0.40697   0.49403   -1.000
 3409.00    0.40484   0.49841   -1.000
 3410.00    0.40761   0.50493   -1.000
 3411.00    0.41482   0.50796   -1.000
 3412.00    0.42611   0.50527   -1.000
 3413.00    0.42275   0.50007   -1.000
 3414.00    0.41537   0.49769   -1.000
 3415.00    0.40836   0.50150   -1.000
 3416.00    0.41116   0.51155   -1.000
 3417.00    0.42847   0.52556   -1.000
 3418.00    0.43927   0.54013   -1.000
 3419.00    0.44595   0.55113   -1.000
 3420.00    0.45815   0.55509   -1.000
 3421.00    0.46765   0.55181   -1.000
 3422.00    0.45032   0.54472   -1.000
 3423.00    0.45645   0.53809   -1.000
 3424.00    0.45982   0.53456   -1.000
 3425.00    0.47229   0.53510   -1.000
 3426.00    0.47095   0.54038   -1.000
 3427.00    0.46095   0.55091   -1.000
 3428.00    0.48725   0.56420   -1.000
 3429.00    0.49869   0.57356   -1.000
 3430.00    0.50093   0.57307   -1.000
 3431.00    0.49954   0.56333   -1.000
 3432.00    0.47425   0.55117   -1.000
 3433.00    0.46830   0.54378   -1.000
 3434.00    0.48354   0.54325   -1.000
 3435.00    0.49099   0.54590   -1.000
 3436.00    0.50491   0.54577   -1.000
 3437.00    0.49747   0.53851   -1.000
 3438.00    0.46562   0.52290   -1.000
 3439.00    0.46246   0.50101   -1.000
 3440.00    0.44938   0.47833   -1.000
 3441.00    0.43689   0.46212   -1.000
 3442.00    0.43735   0.45687  171.615
 3443.00    0.43941   0.46171  169.709
 3444.00    0.44712   0.47309   -1.000
 3445.00    0.46159   0.48883   -1.000
 3446.00    0.47847   0.50834   -1.000
 3447.00    0.48201   0.52975   -1.000
 3448.00    0.49700   0.54827   -1.000
 3449.00    0.51770   0.55781   -1.000
 3450.00    0.52048   0.55505   -1.000
 3451.00    0.51101   0.54264   -1.000
 3452.00    0.49186   0.52841   -1.000
 3453.00    0.49289   0.52035   -1.000
 3454.00    0.49772   0.52074   -1.000
 3455.00    0.50229   0.52496   -1.000
 3456.00    0.51286   0.52592   -1.000
 3457.00    0.50318   0.52007   -1.000
 3458.00    0.50127   0.50941  513.512
 3459.00    0.49773   0.49850  138.263
 3460.00    0.48791   0.49206  139.628
 3461.00    0.49831   0.49395  166.190
 3462.00    0.51143   0.50369   -1.000
 3463.00    0.51730   0.51527   -1.000
 3464.00    0.52307   0.52264   -1.000
 3465.00    0.52429   0.52540  936.779
 3466.00    0.52128   0.52765   -1.000
 3467.00    0.51850   0.53273   -1.000
 3468.00    0.52092   0.54003   -1.000
 3469.00    0.53039   0.54627   -1.000
 3470.00    0.54593   0.54819  936.779
 3471.00    0.54541   0.54362   -1.000
 3472.00    0.52254   0.53200   -1.000
 3473.00    0.51687   0.51502   -1.000
 3474.00    0.50218   0.49734   -1.000
 3475.00    0.48950   0.48595  140.014
 3476.00    0.48403   0.48617  143.741
 3477.00    0.48377   0.49732  168.896
 3478.00    0.50633   0.51326   -1.000
 3479.00    0.52898   0.52698   -1.000
 3480.00    0.53899   0.53423   -1.000
 3481.00    0.53656   0.53442   -1.000
 3482.00    0.54196   0.53014   -1.000
 3483.00    0.54179   0.52633   -1.000
 3484.00    0.54506   0.52809   -1.000
 3485.00    0.53495   0.53666  936.779
 3486.00    0.54949   0.54641   -1.000
 3487.00    0.56386   0.54849   -1.000
 3488.00    0.55349   0.53936   -1.000
 3489.00    0.53374   0.52440   -1.000
 3490.00    0.52267   0.51294   -1.000
 3491.00    0.51322   0.50985   -1.000
 3492.00    0.51496   0.51224   -1.000
 3493.00    0.51542   0.51355   -1.000
 3494.00    0.51849   0.51005   -1.000
 3495.00    0.51700   0.50428   -1.000
 3496.00    0.50587   0.50321   -1.000
 3497.00    0.51180   0.51162   -1.000
 3498.00    0.53094   0.52641   -1.000
 3499.00    0.53770   0.53940  936.779
 3500.00    0.55217   0.54641   -1.000
 3501.00    0.56609   0.54981   -1.000
 3502.00    0.55708   0.55257   -1.000
 3503.00    0.55780   0.55367   -1.000
 3504.00    0.55937   0.55073   -1.000
 3505.00    0.55432   0.54498   -1.000
 3506.00    0.53744   0.54043  936.779
 3507.00    0.53483   0.53867  936.779
 3508.00    0.54564   0.53743   -1.000
 3509.00    0.55106   0.53382   -1.000
 3510.00    0.53907   0.52757   -1.000
 3511.00    0.52352   0.52026   -1.000
 3512.00    0.53048   0.51326   -1.000
 3513.00    0.52746   0.50901   -1.000
 3514.00    0.52149   0.51186   -1.000
 3515.00    0.51925   0.52406  936.779
 3516.00    0.55042   0.54176   -1.000
 3517.00    0.57040   0.55653   -1.000
 3518.00    0.56871   0.56109   -1.000
 3519.00    0.56252   0.55401   -1.000
 3520.00    0.55053   0.53959   -1.000
 3521.00    0.53467   0.52353   -1.000
 3522.00    0.52958   0.50852   -1.000
 3523.00    0.51842   0.49497   -1.000
 3524.00    0.49852   0.48502  138.771
 3525.00    0.48356   0.48313  142.682
 3526.00    0.48741   0.49248  170.319
 3527.00    0.50931   0.51089  936.779
 3528.00    0.53606   0.53109   -1.000
 3529.00    0.55502   0.54561   -1.000
 3530.00    0.56751   0.55188   -1.000
 3531.00    0.56387   0.55302   -1.000
 3532.00    0.55587   0.55409  936.779
 3533.00    0.54747   0.55761   -1.000
 3534.00    0.55432   0.56251   -1.000
 3535.00    0.56048   0.56692   -1.000
 3536.00    0.56613   0.57088   -1.000
 3537.00    0.56174   0.57571   -1.000
 3538.00    0.57126   0.58111   -1.000
 3539.00    0.57820   0.58445   -1.000
 3540.00    0.57117   0.58411   -1.000
 3541.00    0.56711   0.58244   -1.000
 3542.00    0.56659   0.58303   -1.000
 3543.00    0.57222   0.58645   -1.000
 3544.00    0.57137   0.58997   -1.000
 3545.00    0.56716   0.59087   -1.000
 3546.00    0.56873   0.58932   -1.000
 3547.00    0.57480   0.58776   -1.000
 3548.00    0.57544   0.58800   -1.000
 3549.00    0.57750   0.58943   -1.000
 3550.00    0.57085   0.58973   -1.000
 3551.00    0.55471   0.58686   -1.000
 3552.00    0.54369   0.58100   -1.000
 3553.00    0.53446   0.57482   -1.000
 3554.00    0.55058   0.57126   -1.000
 3555.00    0.55601   0.57094   -1.000
 3556.00    0.54767   0.57176   -1.000
 3557.00    0.55284   0.57110   -1.000
 3558.00    0.55431   0.56893   -1.000
 3559.00    0.55296   0.56835   -1.000
 3560.00    0.55414   0.57223   -1.000
 3561.00    0.55395   0.57872   -1.000
 3562.00    0.55257   0.58030   -1.000
 3563.00    0.55483   0.56932   -1.000
 3564.00    0.54511   0.54684  502.207
 3565.00    0.51788   0.52369  140.318
 3566.00    0.49330   0.50945  144.670
 3567.00    0.50139   0.50345  143.097
 3568.00    0.50158   0.49871  143.373
 3569.00    0.49324   0.49181  147.916
 3570.00    0.49344   0.48655  149.167
 3571.00    0.49577   0.48766  144.018
 3572.00    0.50204   0.49429  167.149
 3573.00    0.51033   0.50188   -1.000
 3574.00    0.52100   0.50733   -1.000
 3575.00    0.52707   0.51067   -1.000
 3576.00    0.52828   0.51239   -1.000
 3577.00    0.52980   0.51061   -1.000
 3578.00    0.53823   0.50237   -1.000
 3579.00    0.52556   0.48793   -1.000
 3580.00    0.49830   0.47242   -1.000
 3581.00    0.47283   0.46188  164.162
 3582.00    0.46690   0.45779  165.076
 3583.00    0.47562   0.45602   -1.000
 3584.00    0.47561   0.45177   -1.000
 3585.00    0.46097   0.44556   -1.000
 3586.00    0.44679   0.44269  176.126
 3587.00    0.46114   0.44786   -1.000
 3588.00    0.47313   0.46203  158.260
 3589.00    0.48854   0.48275  149.261
 3590.00    0.50130   0.50519  166.675
 3591.00    0.52669   0.52383   -1.000
 3592.00    0.54154   0.53549   -1.000
 3593.00    0.55204   0.54183   -1.000
 3594.00    0.55305   0.54783   -1.000
 3595.00    0.56647   0.55704   -1.000
 3596.00    0.56988   0.56882  936.779
 3597.00    0.57010   0.58024   -1.000
 3598.00    0.59046   0.58837  936.779
 3599.00    0.60065   0.59032   -1.000
 3600.00    0.59498   0.58375   -1.000
 3601.00    0.58349   0.56904   -1.000
 3602.00    0.56720   0.55059   -1.000
 3603.00    0.55632   0.53502   -1.000
 3604.00    0.55353   0.52695   -1.000
 3605.00    0.55368   0.52551   -1.000
 3606.00    0.55035   0.52523   -1.000
 3607.00    0.53943   0.52144   -1.000
 3608.00    0.53426   0.51514   -1.000
 3609.00    0.52924   0.51200   -1.000
 3610.00    0.53022   0.51567   -1.000
 3611.00    0.52921   0.52395   -1.000
 3612.00    0.54067   0.53308   -1.000
 3613.00    0.54451   0.54211   -1.000
 3614.00    0.55403   0.55069   -1.000
 3615.00    0.55955   0.55476   -1.000
 3616.00    0.56934   0.54836   -1.000
 3617.00    0.55222   0.53235   -1.000
 3618.00    0.51151   0.51768  500.156
 3619.00    0.50056   0.51556  165.558
 3620.00    0.52403   0.52726  936.779
 3621.00    0.55450   0.54528   -1.000
 3622.00    0.57635   0.56194   -1.000
 3623.00    0.58825   0.57559   -1.000
 3624.00    0.58626   0.58961   -1.000
 3625.00    0.58537   0.60630   -1.000
 3626.00    0.59643   0.62237   -1.000
 3627.00    0.60376   0.62979   -1.000
 3628.00    0.60362   0.62094   -1.000
 3629.00    0.58467   0.59553   -1.000
 3630.00    0.56240   0.56364  936.779
 3631.00    0.53605   0.53969   -1.000
 3632.00    0.52581   0.53205   -1.000
 3633.00    0.53191   0.53828   -1.000
 3634.00    0.53857   0.54976   -1.000
 3635.00    0.54892   0.56007   -1.000
 3636.00    0.55524   0.56921   -1.000
 3637.00    0.57421   0.58046   -1.000
 3638.00    0.57812   0.59431   -1.000
 3639.00    0.58711   0.60622   -1.000
 3640.00    0.57744   0.60993   -1.000
 3641.00    0.58235   0.60274   -1.000
 3642.00    0.58231   0.58781   -1.000
 3643.00    0.57493   0.57159  936.779
 3644.00    0.56404   0.55912   -1.000
 3645.00    0.55412   0.55118   -1.000
 3646.00    0.54436   0.54620  936.779
 3647.00    0.54743   0.54383   -1.000
 3648.00    0.55078   0.54548   -1.000
 3649.00    0.55434   0.55259  936.779
 3650.00    0.55694   0.56519   -1.000
 3651.00    0.57166   0.58129   -1.000
 3652.00    0.58895   0.59744   -1.000
 3653.00    0.59942   0.61056   -1.000
 3654.00    0.61180   0.61991   -1.000
 3655.00    0.60713   0.62729   -1.000
 3656.00    0.61895   0.63454   -1.000
 3657.00    0.61786   0.64112   -1.000
 3658.00    0.61294   0.64505   -1.000
 3659.00    0.61219   0.64499   -1.000
 3660.00    0.61607   0.64095   -1.000
 3661.00    0.61921   0.63404   -1.000
 3662.00    0.61520   0.62627   -1.000
 3663.00    0.61078   0.62007   -1.000
 3664.00    0.61448   0.61692   -1.000
 3665.00    0.60822   0.61587   -1.000
 3666.00    0.61057   0.61391   -1.000
 3667.00    0.61206   0.60903  936.779
 3668.00    0.59925   0.60325   -1.000
 3669.00    0.59204   0.60180   -1.000
 3670.00    0.59455   0.60767   -1.000
 3671.00    0.59409   0.61808   -1.000
 3672.00    0.61131   0.62689   -1.000
 3673.00    0.62286   0.62950   -1.000
 3674.00    0.61759   0.62500   -1.000
 3675.00    0.61852   0.61486  936.779
 3676.00    0.61299   0.60159   -1.000
 3677.00    0.60179   0.58819   -1.000
 3678.00    0.59289   0.57769   -1.000
 3679.00    0.58517   0.57236   -1.000
 3680.00    0.58365   0.57289   -1.000
 3681.00    0.59493   0.57782   -1.000
 3682.00    0.60559   0.58360   -1.000
 3683.00    0.60652   0.58543   -1.000
 3684.00    0.58952   0.57991   -1.000
 3685.00    0.58120   0.56850   -1.000
 3686.00    0.57093   0.55816   -1.000
 3687.00    0.56446   0.55692   -1.000
 3688.00    0.57454   0.56785   -1.000
 3689.00    0.59215   0.58703   -1.000
 3690.00    0.61568   0.60617   -1.000
 3691.00    0.62572   0.61816   -1.000
 3692.00    0.63146   0.62158   -1.000
 3693.00    0.62790   0.61978   -1.000
 3694.00    0.62424   0.61633   -1.000
 3695.00    0.61727   0.61369  936.779
 3696.00    0.61843   0.61491  936.779
 3697.00    0.62418   0.62325  936.779
 3698.00    0.63708   0.63820   -1.000
 3699.00    0.64867   0.65297   -1.000
 3700.00    0.66047   0.65737  902.996
 3701.00    0.65648   0.64418   -1.000
 3702.00    0.63101   0.61450   -1.000
 3703.00    0.59626   0.57810   -1.000
 3704.00    0.56455   0.54814   -1.000
 3705.00    0.54782   0.53363   -1.000
 3706.00    0.55269   0.53462   -1.000
 3707.00    0.56550   0.54382   -1.000
 3708.00    0.57241   0.55332   -1.000
 3709.00    0.58323   0.55999   -1.000
 3710.00    0.59837   0.56675   -1.000
 3711.00    0.60302   0.57942   -1.000
 3712.00    0.61124   0.60087   -1.000
 3713.00    0.63659   0.62762   -1.000
 3714.00    0.66302   0.65197   -1.000
 3715.00    0.67528   0.66625   -1.000
 3716.00    0.68563   0.66506   -1.000
 3717.00    0.67843   0.64550   -1.000
 3718.00    0.63816   0.60803   -1.000
 3719.00    0.58943   0.56029   -1.000
 3720.00    0.53945   0.51812   -1.000
 3721.00    0.51596   0.49798  169.870
 3722.00    0.51979   0.50730   -1.000
 3723.00    0.55322   0.54056   -1.000
 3724.00    0.60545   0.58212   -1.000
 3725.00    0.64665   0.61566   -1.000
 3726.00    0.65507   0.63491   -1.000
 3727.00    0.65540   0.64428   -1.000
 3728.00    0.65139   0.64843   -1.000
 3729.00    0.64954   0.64481   -1.000
 3730.00    0.64893   0.62614   -1.000
 3731.00    0.63151   0.58875   -1.000
 3732.00    0.58181   0.53857   -1.000
 3733.00    0.51582   0.48952   -1.000
 3734.00    0.47729   0.45692   -1.000
 3735.00    0.46621   0.45127  158.092
 3736.00    0.47719   0.47433  148.559
 3737.00    0.52184   0.51941  166.556
 3738.00    0.58062   0.57430   -1.000
 3739.00    0.62683   0.62459   -1.000
 3740.00    0.66047   0.65837   -1.000
 3741.00    0.67854   0.67051   -1.000
 3742.00    0.67387   0.66295   -1.000
 3743.00    0.65274   0.64167   -1.000
 3744.00    0.62686   0.61315   -1.000
 3745.00    0.59792   0.58110   -1.000
 3746.00    0.57800   0.54598   -1.000
 3747.00    0.54688   0.50882   -1.000
 3748.00    0.50749   0.47666   -1.000
 3749.00    0.47678   0.46245  182.156
 3750.00    0.48627   0.47606   -1.000
 3751.00    0.53487   0.51610   -1.000
 3752.00    0.58979   0.57121   -1.000
 3753.00    0.64666   0.62668   -1.000
 3754.00    0.69224   0.66926   -1.000
 3755.00    0.72081   0.68981   -1.000
 3756.00    0.71254   0.68687   -1.000
 3757.00    0.67868   0.66912   -1.000
 3758.00    0.64927   0.65116  936.779
 3759.00    0.64481   0.64384  936.779
 3760.00    0.66070   0.64801   -1.000
 3761.00    0.68538   0.65735   -1.000
 3762.00    0.69607   0.66524   -1.000
 3763.00    0.69567   0.66757   -1.000
 3764.00    0.69082   0.66173   -1.000
 3765.00    0.67937   0.64666   -1.000
 3766.00    0.65968   0.62385   -1.000
 3767.00    0.63334   0.59666   -1.000
 3768.00    0.61276   0.56940   -1.000
 3769.00    0.59114   0.54813   -1.000
 3770.00    0.57823   0.54057   -1.000
 3771.00    0.58806   0.55215   -1.000
 3772.00    0.62297   0.58041   -1.000
 3773.00    0.65877   0.61558   -1.000
 3774.00    0.67877   0.64851   -1.000
 3775.00    0.69983   0.67656   -1.000
 3776.00    0.72353   0.70196   -1.000
 3777.00    0.73608   0.72732   -1.000
 3778.00    0.75251   0.75289  926.509
 3779.00    0.77459   0.77643   -1.000
 3780.00    0.79103   0.79520   -1.000
 3781.00    0.80205   0.80761   -1.000
 3782.00    0.80017   0.81310   -1.000
 3783.00    0.79929   0.81041   -1.000
 3784.00    0.79962   0.79775  900.061
 3785.00    0.78832   0.77589   -1.000
 3786.00    0.76115   0.75014   -1.000
 3787.00    0.73835   0.72762   -1.000
 3788.00    0.72308   0.71252   -1.000
 3789.00    0.72000   0.70407   -1.000
 3790.00    0.71026   0.69757   -1.000
 3791.00    0.70123   0.68680   -1.000
 3792.00    0.69548   0.66701   -1.000
 3793.00    0.67310   0.63724   -1.000
 3794.00    0.63517   0.60002   -1.000
 3795.00    0.60395   0.55956   -1.000
 3796.00    0.57116   0.52167   -1.000
 3797.00    0.53007   0.49549   -1.000
 3798.00    0.51158   0.49232   -1.000
 3799.00    0.53440   0.51787   -1.000
 3800.00    0.58734   0.56611   -1.000
 3801.00    0.64954   0.62291   -1.000
 3802.00    0.69298   0.67410   -1.000
 3803.00    0.72379   0.71091   -1.000
 3804.00    0.74358   0.73135   -1.000
 3805.00    0.75113   0.73944   -1.000
 3806.00    0.74691   0.74393  936.779
 3807.00    0.74346   0.75395   -1.000
 3808.00    0.76170   0.77203   -1.000
 3809.00    0.78144   0.79159   -1.000
 3810.00    0.79292   0.80192   -1.000
 3811.00    0.79274   0.79599   -1.000
 3812.00    0.78063   0.77519   -1.000
 3813.00    0.75215   0.74844  936.779
 3814.00    0.72917   0.72717  936.779
 3815.00    0.72474   0.71847   -1.000
 3816.00    0.71937   0.72013  936.779
 3817.00    0.73060   0.72247   -1.000
 3818.00    0.74164   0.71699   -1.000
 3819.00    0.72128   0.70403   -1.000
 3820.00    0.69092   0.69165  936.779
 3821.00    0.69039   0.68577   -1.000
 3822.00    0.70653   0.68276   -1.000
 3823.00    0.71592   0.67420   -1.000
 3824.00    0.68588   0.65716   -1.000
 3825.00    0.65542   0.63674   -1.000
 3826.00    0.64562   0.61971   -1.000
 3827.00    0.63812   0.60805   -1.000
 3828.00    0.63170   0.59825   -1.000
 3829.00    0.62037   0.58464   -1.000
 3830.00    0.61009   0.56282   -1.000
 3831.00    0.57804   0.53173   -1.000
 3832.00    0.54065   0.49475   -1.000
 3833.00    0.50605   0.45944   -1.000
 3834.00    0.47368   0.43488   -1.000
 3835.00    0.47004   0.42671   -1.000
 3836.00    0.48335   0.43435   -1.000
 3837.00    0.49635   0.45329   -1.000
 3838.00    0.51826   0.48009   -1.000
 3839.00    0.54115   0.51455   -1.000
 3840.00    0.57811   0.55710   -1.000
 3841.00    0.63029   0.60488   -1.000
 3842.00    0.67771   0.65156   -1.000
 3843.00    0.70558   0.69082   -1.000
 3844.00    0.72881   0.72001   -1.000
 3845.00    0.73930   0.74094  936.779
 3846.00    0.74408   0.75641   -1.000
 3847.00    0.75791   0.76697   -1.000
 3848.00    0.76212   0.77229   -1.000
 3849.00    0.75300   0.77456   -1.000
 3850.00    0.74454   0.77784   -1.000
 3851.00    0.74542   0.78382   -1.000
 3852.00    0.75971   0.78962   -1.000
 3853.00    0.77658   0.79047   -1.000
 3854.00    0.76899   0.78454   -1.000
 3855.00    0.75473   0.77373   -1.000
 3856.00    0.74773   0.76065   -1.000
 3857.00    0.73152   0.74731   -1.000
 3858.00    0.71876   0.73705  138.116
 3859.00    0.70460   0.73507   -1.000
 3860.00    0.70370   0.74482   -1.000
 3861.00    0.73136   0.76348   -1.000
 3862.00    0.76755   0.78273   -1.000
 3863.00    0.78842   0.79492   -1.000
 3864.00    0.80411   0.79862  936.779
 3865.00    0.80202   0.79758  936.779
 3866.00    0.78559   0.79570   -1.000
 3867.00    0.78907   0.79358   -1.000
 3868.00    0.78136   0.78851   -1.000
 3869.00    0.76061   0.77718   -1.000
 3870.00    0.73969   0.75973   -1.000
 3871.00    0.71340   0.74194   -1.000
 3872.00    0.70837   0.73246   -1.000
 3873.00    0.73194   0.73603   -1.000
 3874.00    0.75727   0.74798   -1.000
 3875.00    0.76968   0.75643   -1.000
 3876.00    0.75893   0.75247   -1.000
 3877.00    0.73095   0.73797   -1.000
 3878.00    0.70086   0.72204   -1.000
 3879.00    0.69691   0.71104   -1.000
 3880.00    0.69616   0.70394   -1.000
 3881.00    0.68141   0.69600   -1.000
 3882.00    0.66709   0.68374   -1.000
 3883.00    0.67409   0.66517   -1.000
 3884.00    0.67459   0.63790   -1.000
 3885.00    0.64792   0.60086   -1.000
 3886.00    0.61401   0.55863   -1.000
 3887.00    0.58086   0.52235   -1.000
 3888.00    0.55019   0.50452   -1.000
 3889.00    0.54973   0.51226   -1.000
 3890.00    0.59155   0.54325   -1.000
 3891.00    0.64672   0.58632   -1.000
 3892.00    0.68729   0.62767   -1.000
 3893.00    0.70742   0.65954   -1.000
 3894.00    0.71954   0.68330   -1.000
 3895.00    0.73078   0.70409   -1.000
 3896.00    0.76383   0.72387   -1.000
 3897.00    0.77590   0.74079   -1.000
 3898.00    0.77981   0.75368   -1.000
 3899.00    0.78937   0.76455   -1.000
 3900.00    0.79051   0.77532   -1.000
 3901.00    0.80331   0.78438   -1.000
 3902.00    0.81957   0.78802   -1.000
 3903.00    0.80945   0.78513   -1.000
 3904.00    0.80247   0.77999   -1.000
 3905.00    0.78781   0.78005   -1.000
 3906.00    0.78776   0.79079   -1.000
 3907.00    0.80374   0.81201   -1.000
 3908.00    0.83193   0.83780   -1.000
 3909.00    0.85569   0.86043   -1.000
 3910.00    0.87481   0.87512   -1.000
 3911.00    0.88514   0.88121  835.597
 3912.00    0.88065   0.88006   -1.000
 3913.00    0.87763   0.87391  845.666
 3914.00    0.85777   0.86553   -1.000
 3915.00    0.84869   0.85713   -1.000
 3916.00    0.83993   0.84906   -1.000
 3917.00    0.84878   0.84010   -1.000
 3918.00    0.83741   0.82923   -1.000
 3919.00    0.81332   0.81772   -1.000
 3920.00    0.80207   0.80901   -1.000
 3921.00    0.79908   0.80594   -1.000
 3922.00    0.79429   0.80754   -1.000
 3923.00    0.79793   0.80832   -1.000
 3924.00    0.79926   0.80136   -1.000
 3925.00    0.78342   0.78223  936.779
 3926.00    0.74789   0.75040  936.779
 3927.00    0.70731   0.70805  508.816
 3928.00    0.65275   0.65807  157.353
 3929.00    0.60209   0.60278  184.447
 3930.00    0.54627   0.54439   -1.000
 3931.00    0.47748   0.48757  255.436
 3932.00    0.40888   0.44153   -1.000
 3933.00    0.36815   0.41786   -1.000
 3934.00    0.38047   0.42481   -1.000
 3935.00    0.43014   0.46144   -1.000
 3936.00    0.49236   0.51825  206.993
 3937.00    0.55802   0.58257  170.913
 3938.00    0.61420   0.64358   -1.000
 3939.00    0.66487   0.69406   -1.000
 3940.00    0.70606   0.73048   -1.000
 3941.00    0.73237   0.75275   -1.000
 3942.00    0.74291   0.76448  116.967
 3943.00    0.75313   0.77196  115.625
 3944.00    0.76053   0.78080  108.592
 3945.00    0.78956   0.79263   99.369
 3946.00    0.81944   0.80493   94.673
 3947.00    0.82363   0.81473   93.795
 3948.00    0.81801   0.82189   92.507
 3949.00    0.82156   0.82766   89.131
 3950.00    0.83929   0.83206   86.930
 3951.00    0.84779   0.83489   87.580
 3952.00    0.84701   0.83707   88.275
 3953.00    0.85610   0.83882   86.513
 3954.00    0.86453   0.83790   84.990
 3955.00    0.85402   0.83225   86.441
 3956.00    0.82249   0.82334   89.298
 3957.00    0.80975   0.81387   90.053
 3958.00    0.81838   0.80210   89.176
 3959.00    0.81823   0.78188   -1.000
 3960.00    0.78698   0.74949   -1.000
 3961.00    0.72796   0.70819  116.406
 3962.00    0.68110   0.66411  127.383
 3963.00    0.64430   0.61891   48.490
 3964.00    0.59784   0.56785   14.812
 3965.00    0.53092   0.50627   17.559
 3966.00    0.44596   0.43795   21.653
 3967.00    0.36161   0.37636   25.980
 3968.00    0.30515   0.33812   27.625
 3969.00    0.29901   0.33310   24.886
 3970.00    0.34187   0.36095   20.470
 3971.00    0.40862   0.41321   16.890
 3972.00    0.48079   0.47856   18.082
 3973.00    0.56224   0.54726  123.546
 3974.00    0.63529   0.61304  109.622
 3975.00    0.69118   0.67247   99.302
 3976.00    0.74105   0.72455   91.980
 3977.00    0.77889   0.76977   86.725
 3978.00    0.81187   0.80780   82.155
 3979.00    0.84351   0.83679   78.472
 3980.00    0.86407   0.85471   77.920
 3981.00    0.87167   0.86330   78.704
 3982.00    0.87351   0.86828   79.801
 3983.00    0.87599   0.87529   78.938
 3984.00    0.88749   0.88609   77.285
 3985.00    0.90249   0.89898   75.822
 3986.00    0.91309   0.91200   74.551
 3987.00    0.92419   0.92431   73.269
 3988.00    0.93071   0.93548   72.792
 3989.00    0.93442   0.94547   72.924
 3990.00    0.93883   0.95485   72.170
 3991.00    0.95162   0.96380   70.444
 3992.00    0.96417   0.97053   69.281
 3993.00    0.96921   0.97184   70.360
 3994.00    0.95692   0.96617   72.070
 3995.00    0.94483   0.95600   73.670
 3996.00    0.93563   0.94699   74.905
 3997.00    0.92294   0.94484   75.001
 3998.00    0.91879   0.95187   -1.000
 3999.00    0.94018   0.96567   69.649
 4000.00    0.95931   0.98039   67.584
 4001.00    0.98243   0.98937   66.557
 4002.00    0.99744   0.98748   66.096
 4003.00    0.99695   0.97415   68.132
 4004.00    0.97000   0.95519   72.652
 4005.00    0.93008   0.94140   75.434
 4006.00    0.92745   0.94185   73.875
 4007.00    0.95656   0.95695   69.802
 4008.00    0.98083   0.97810   67.478
 4009.00    0.98589   0.99592   66.667
 4010.00    0.99666   1.00663   66.058
 4011.00    1.00058   1.01173   66.002
 4012.00    0.99275   1.01457   66.471
 4013.00    0.99248   1.01720   66.640
 4014.00    1.01034   1.01975   66.019
 4015.00    1.00986   1.02166   65.394
 4016.00    0.99994   1.02343   66.054
 4017.00    0.99860   1.02650   66.631
 4018.00    0.99995   1.03135   66.122
 4019.00    1.00294   1.03640   65.334
 4020.00    1.00511   1.03883   65.697
 4021.00    0.99460   1.03702   -1.000
 4022.00    0.99427   1.03169   -1.000
 4023.00    0.99682   1.02575   67.406
 4024.00    0.99046   1.02306   -1.000
 4025.00    0.98862   1.02628   -1.000
 4026.00    1.00301   1.03367   63.405
 4027.00    1.02181   1.03816   62.552
 4028.00    1.02572   1.03202   63.600
 4029.00    1.01708   1.01352   66.663
 4030.00    0.97555   0.98920   70.932
 4031.00    0.94781   0.96908   73.409
 4032.00    0.94391   0.96055   73.833
 4033.00    0.94804   0.96617   72.514
 4034.00    0.96854   0.98421   69.821
 4035.00    0.98227   1.01088   66.330
 4036.00    1.01911   1.04000   63.267
 4037.00    1.04254   1.06363   61.501
 4038.00    1.05262   1.07524   61.653
 4039.00    1.03915   1.07423   63.047
 4040.00    1.02586   1.06528   -1.000
 4041.00    1.02531   1.05205   64.977
 4042.00    1.02050   1.03272   65.886
 4043.00    0.99790   1.00531   69.840
 4044.00    0.95312   0.97592   76.518
 4045.00    0.91271   0.95828   -1.000
 4046.00    0.91752   0.96342   -1.000
 4047.00    0.96338   0.98859   68.899
 4048.00    1.00805   1.02068   65.272
 4049.00    1.02952   1.04630   63.703
 4050.00    1.03092   1.05835   63.252
 4051.00    1.02968   1.05711   64.004
 4052.00    1.02170   1.04697   65.787
 4053.00    1.01597   1.03386   67.342
 4054.00    1.00071   1.02265   68.258
 4055.00    0.99730   1.01543   68.771
 4056.00    1.00000   1.01211   69.291
 4057.00    0.99786   1.01342   69.680
 4058.00    0.99738   1.01992   68.424
 4059.00    1.01880   1.02763   66.142
 4060.00    1.03292   1.02841   65.395
 4061.00    1.01863   1.01618   67.367
 4062.00    0.98733   0.99378   72.391
 4063.00    0.94995   0.97203   76.034
 4064.00    0.94644   0.96050   74.097
 4065.00    0.96677   0.96200   70.784
 4066.00    0.98386   0.97262   69.061
 4067.00    0.99230   0.98624   67.100
 4068.00    1.01239   0.99642   65.214
 4069.00    1.02562   0.99779   65.154
 4070.00    1.01457   0.98982   67.927
 4071.00    0.99301   0.97905   70.259
 4072.00    0.97944   0.97302   69.180
 4073.00    0.98954   0.97163   67.054
 4074.00    0.99976   0.96739   67.529
 4075.00    0.97890   0.95460   71.455
 4076.00    0.95003   0.93768   76.810
 4077.00    0.92126   0.92821   77.913
 4078.00    0.91892   0.93464   74.557
 4079.00    0.95113   0.95569   69.349
 4080.00    0.98680   0.98041   65.173
 4081.00    1.01226   0.99654   63.936
 4082.00    1.00834   0.99849   65.347
 4083.00    0.99386   0.99148   67.358
 4084.00    0.97505   0.98577   67.895
 4085.00    0.96695   0.98901   66.532
 4086.00    0.98632   1.00142   64.171
 4087.00    1.01808   1.01646   61.782
 4088.00    1.04148   1.02607   60.307
 4089.00    1.03734   1.02550   60.858
 4090.00    1.01728   1.01601   62.125
 4091.00    0.99707   1.00185   63.183
 4092.00    0.98740   0.98604   63.736
 4093.00    0.98355   0.96771   64.023
 4094.00    0.96797   0.94433   65.625
 4095.00    0.94385   0.91508   68.532
 4096.00    0.91972   0.88075   70.403
 4097.00    0.89803   0.84171   -1.000
 4098.00    0.86196   0.79637   -1.000
 4099.00    0.81279   0.74586   -1.000
 4100.00    0.73443   0.69891   84.430
 4101.00    0.67248   0.67084   88.526
 4102.00    0.67412   0.67446   85.136
 4103.00    0.72834   0.70965   77.934
 4104.00    0.80703   0.76301   72.307
 4105.00    0.85837   0.81731   68.845
 4106.00    0.89884   0.86054   67.180
 4107.00    0.92531   0.89043   67.113
 4108.00    0.92799   0.91026   67.934
 4109.00    0.93277   0.92466   69.217
 4110.00    0.93913   0.93811   69.804
 4111.00    0.94705   0.95328   68.717
 4112.00    0.96231   0.97065   67.224
 4113.00    0.98085   0.98911   66.107
 4114.00    0.99309   1.00597   65.177
 4115.00    1.00610   1.01762   64.767
 4116.00    1.01037   1.02118   65.352
 4117.00    1.00096   1.01754   66.966
 4118.00    0.98957   1.01078   68.937
 4119.00    0.98652   1.00576   69.319
 4120.00    0.99814   1.00495   68.437
 4121.00    0.99571   1.00817   67.908
 4122.00    0.99899   1.01404   67.818
 4123.00    1.00127   1.02113   66.954
 4124.00    1.01276   1.02746   65.966
 4125.00    1.02347   1.03002   66.021
 4126.00    1.01709   1.02709   67.069
 4127.00    1.00436   1.02026   68.339
 4128.00    0.98950   1.01275   68.828
 4129.00    0.98707   1.00537   69.287
 4130.00    0.97841   0.99667   70.472
 4131.00    0.97185   0.98688   72.749
 4132.00    0.95049   0.98075   -1.000
 4133.00    0.94833   0.98464   -1.000
 4134.00    0.96343   1.00061   -1.000
 4135.00    0.99134   1.02482   -1.000
 4136.00    1.02703   1.05026   65.993
 4137.00    1.04171   1.07123   64.965
 4138.00    1.04202   1.08373   -1.000
 4139.00    1.05582   1.08480   64.243
 4140.00    1.04874   1.07210   66.068
 4141.00    1.02617   1.04779   70.089
 4142.00    0.98245   1.02101   -1.000
 4143.00    0.95733   1.00415   -1.000
 4144.00    0.95308   1.00426   -1.000
 4145.00    0.97972   1.01860   -1.000
 4146.00    1.00990   1.03633   68.203
 4147.00    1.00988   1.04800   -1.000
 4148.00    1.00424   1.05208   -1.000
 4149.00    0.99385   1.05229   -1.000
 4150.00    0.98590   1.05191   -1.000
 4151.00    0.99713   1.05029   -1.000
 4152.00    1.00211   1.04540   -1.000
 4153.00    0.98728   1.03792   -1.000
 4154.00    0.98420   1.03180   -1.000
 4155.00    0.98943   1.03148   -1.000
 4156.00    0.99276   1.03846   -1.000
 4157.00    1.08440   1.05063   70.554
 4158.00    1.20709   1.06421   -1.000
 4159.00    1.02903   1.07627   -1.000
 4160.00    0.84994   1.08564   -1.000
 4161.00    0.98732   1.09293   -1.000
 4162.00    1.05434   1.09887   -1.000
 4163.00    1.03575   1.10253   -1.000
 4164.00    1.03060   1.10197   -1.000
 4165.00    1.03293   1.09650   -1.000
 4166.00    1.02147   1.08789   -1.000
 4167.00    1.01018   1.07899   -1.000
 4168.00    1.00506   1.07005   -1.000
 4169.00    1.00810   1.05773   -1.000
 4170.00    0.99894   1.03862   -1.000
 4171.00    0.97518   1.01505   -1.000
 4172.00    0.94088   0.99587   -1.000
 4173.00    0.93280   0.98945   -1.000
 4174.00    0.94403   0.99698   -1.000
 4175.00    0.95770   1.01115   -1.000
 4176.00    0.96042   1.02401   -1.000
 4177.00    0.96658   1.03326   -1.000
 4178.00    0.97241   1.04107   -1.000
 4179.00    0.98881   1.04830   -1.000
 4180.00    1.00003   1.05304   -1.000
 4181.00    0.99401   1.05434   -1.000
 4182.00    0.99180   1.05468   -1.000
 4183.00    0.99437   1.05666   -1.000
 4184.00    1.01233   1.05925   -1.000
 4185.00    1.01590   1.05873   -1.000
 4186.00    0.99650   1.05404   -1.000
 4187.00    0.97458   1.04891   -1.000
 4188.00    0.97581   1.04782   -1.000
 4189.00    0.99490   1.05233   -1.000
 4190.00    1.00029   1.06077   -1.000
 4191.00    1.00610   1.07032   -1.000
 4192.00    1.01786   1.07788   -1.000
 4193.00    1.02448   1.07924   -1.000
 4194.00    1.02355   1.07103   -1.000
 4195.00    1.00927   1.05396   -1.000
 4196.00    0.98336   1.03283   -1.000
 4197.00    0.96263   1.01369   -1.000
 4198.00    0.95574   1.00086   -1.000
 4199.00    0.94728   0.99541   -1.000
 4200.00    0.95507   0.99626   -1.000
 4201.00    0.96899   1.00155   -1.000
 4202.00    0.97744   1.01015   -1.000
 4203.00    0.97646   1.02222   -1.000
 4204.00    0.97647   1.03797   -1.000
 4205.00    0.98667   1.05577   -1.000
 4206.00    1.00115   1.07251   -1.000
 4207.00    1.01588   1.08522   -1.000
 4208.00    1.02889   1.09245   -1.000
 4209.00    1.02789   1.09553   -1.000
 4210.00    1.02113   1.09703   -1.000
 4211.00    1.02237   1.09762   -1.000
 4212.00    1.02289   1.09457   -1.000
 4213.00    1.02120   1.08485   -1.000
 4214.00    1.00461   1.07008   -1.000
 4215.00    0.97063   1.05761   -1.000
 4216.00    0.96710   1.05530   -1.000
 4217.00    0.99685   1.06525   -1.000
 4218.00    1.03421   1.08238   -1.000
 4219.00    1.04793   1.09756   -1.000
 4220.00    1.05529   1.10225   -1.000
 4221.00    1.05091   1.09171   -1.000
 4222.00    1.03387   1.06439   65.617
 4223.00    1.00002   1.02307   70.732
 4224.00    0.96672   0.97650   78.384
 4225.00    0.90347   0.93901   -1.000
 4226.00    0.86062   0.92509   -1.000
 4227.00    0.86863   0.94098   -1.000
 4228.00    0.92224   0.97907   -1.000
 4229.00    0.98783   1.02134   -1.000
 4230.00    1.02860   1.05052   64.088
 4231.00    1.03415   1.06096   64.137
 4232.00    1.02933   1.05678   65.718
 4233.00    1.01356   1.04629   -1.000
 4234.00    1.01104   1.03626   68.042
 4235.00    0.99493   1.03003   -1.000
 4236.00    0.98686   1.02882   -1.000
 4237.00    0.98363   1.03315   -1.000
 4238.00    0.99379   1.04270   -1.000
 4239.00    1.00154   1.05541   -1.000
 4240.00    1.01314   1.06829   -1.000
 4241.00    1.02509   1.07950   -1.000
 4242.00    1.03582   1.08833   -1.000
 4243.00    1.04186   1.09405   -1.000
 4244.00    1.04711   1.09440   -1.000
 4245.00    1.04926   1.08691   63.774
 4246.00    1.02564   1.07198   -1.000
 4247.00    0.99796   1.05449   -1.000
 4248.00    0.98715   1.04146   -1.000
 4249.00    0.98199   1.03723   -1.000
 4250.00    0.97348   1.04107   -1.000
 4251.00    0.98618   1.04809   -1.000
 4252.00    1.00653   1.05266   -1.000
 4253.00    1.00882   1.05303   -1.000
 4254.00    0.99676   1.05192   -1.000
 4255.00    1.00094   1.05349   -1.000
 4256.00    1.02131   1.05657   -1.000
 4257.00    1.03557   1.05482   65.529
 4258.00    1.01787   1.04525   68.444
 4259.00    0.99252   1.03346   -1.000
 4260.00    0.97222   1.03036   -1.000
 4261.00    0.98001   1.04245   -1.000
 4262.00    1.01142   1.06624   -1.000
 4263.00    1.03918   1.09157   -1.000
 4264.00    1.05922   1.10888   -1.000
 4265.00    1.06150   1.11431   -1.000
 4266.00    1.05812   1.10822   -1.000
 4267.00    1.04592   1.09263   -1.000
 4268.00    1.02973   1.06922   -1.000
 4269.00    1.00625   1.04032   -1.000
 4270.00    0.97265   1.01073   -1.000
 4271.00    0.93633   0.98734   -1.000
 4272.00    0.92491   0.97599   -1.000
 4273.00    0.93490   0.97926   -1.000
 4274.00    0.94209   0.99563   -1.000
 4275.00    0.96479   1.02091   -1.000
 4276.00    1.00216   1.04879   -1.000
 4277.00    1.03610   1.07088   63.754
 4278.00    1.04013   1.08066   -1.000
 4279.00    1.02231   1.07840   -1.000
 4280.00    0.99894   1.07060   -1.000
 4281.00    0.99503   1.06396   -1.000
 4282.00    1.00446   1.06005   -1.000
 4283.00    1.00680   1.05622   -1.000
 4284.00    1.00142   1.04901   -1.000
 4285.00    0.98749   1.03754   -1.000
 4286.00    0.96773   1.02198   -1.000
 4287.00    0.95423   1.00293   -1.000
 4288.00    0.93373   0.98355   -1.000
 4289.00    0.90649   0.96976   -1.000
 4290.00    0.90544   0.96763   -1.000
 4291.00    0.92948   0.97789   -1.000
 4292.00    0.95882   0.99311   70.755
 4293.00    0.98026   1.00332   70.016
 4294.00    0.98157   1.00271   70.868
 4295.00    0.97361   0.99079   72.169
 4296.00    0.95866   0.96953   74.310
 4297.00    0.93040   0.94142   78.792
 4298.00    0.89018   0.91053   85.577
 4299.00    0.84989   0.88343   -1.000
 4300.00    0.83584   0.86655   -1.000
 4301.00    0.83779   0.86194   88.094
 4302.00    0.84808   0.86714   86.813
 4303.00    0.86448   0.87673   85.556
 4304.00    0.87665   0.88453   84.869
 4305.00    0.87915   0.88525   85.903
 4306.00    0.86299   0.87757   89.404
 4307.00    0.84236   0.86671   93.716
 4308.00    0.82707   0.86157   -1.000
 4309.00    0.82991   0.86816   -1.000
 4310.00    0.84964   0.88636   -1.000
 4311.00    0.87518   0.91197   -1.000
 4312.00    0.90061   0.94206   -1.000
 4313.00    0.91761   0.97808   -1.000
 4314.00    0.94365   1.02098   -1.000
 4315.00    0.99435   1.06740   -1.000
 4316.00    1.04989   1.10910   -1.000
 4317.00    1.08453   1.13695   -1.000
 4318.00    1.08752   1.14693   -1.000
 4319.00    1.07658   1.14030   -1.000
 4320.00    1.06497   1.12059   -1.000
 4321.00    1.04021   1.09003   -1.000
 4322.00    1.01247   1.05105   -1.000
 4323.00    0.98030   1.01044   71.510
 4324.00    0.93675   0.97970   -1.000
 4325.00    0.91070   0.97045   -1.000
 4326.00    0.92460   0.98557   -1.000
 4327.00    0.97689   1.01682   -1.000
 4328.00    1.02945   1.04911   61.017
 4329.00    1.04611   1.07047   60.333
 4330.00    1.03902   1.07925   60.510
 4331.00    1.02977   1.07964   -1.000
 4332.00    1.02987   1.07533   -1.000
 4333.00    1.02964   1.06456   58.517
 4334.00    1.02436   1.04169   58.686
 4335.00    1.00648   1.00113   60.402
 4336.00    0.96072   0.94241   64.911
 4337.00    0.89290   0.87271   71.293
 4338.00    0.81445   0.80734   77.738
 4339.00    0.74744   0.76408   83.050
 4340.00    0.71180   0.75510   -1.000
 4341.00    0.72976   0.78108   -1.000
 4342.00    0.79943   0.83111   68.902
 4343.00    0.88090   0.88903   65.297
 4344.00    0.93322   0.94250   63.393
 4345.00    0.96623   0.98772   61.839
 4346.00    0.98891   1.02434   60.919
 4347.00    1.00422   1.05119   -1.000
 4348.00    1.02118   1.06488   59.477
 4349.00    1.03490   1.06298   60.444
 4350.00    1.01551   1.04942   64.264
 4351.00    0.96725   1.03484   -1.000
 4352.00    0.95800   1.03157   -1.000
 4353.00    0.98644   1.04414   -1.000
 4354.00    1.02224   1.06719   -1.000
 4355.00    1.04338   1.09102   -1.000
 4356.00    1.05508   1.10845   -1.000
 4357.00    1.05856   1.11853   -1.000
 4358.00    1.06528   1.12452   -1.000
 4359.00    1.05880   1.13107   -1.000
 4360.00    1.06156   1.14095   -1.000
 4361.00    1.07833   1.15376   -1.000
 4362.00    1.08893   1.16653   -1.000
 4363.00    1.09170   1.17586   -1.000
 4364.00    1.10006   1.17923   -1.000
 4365.00    1.10123   1.17504   -1.000
 4366.00    1.08325   1.16366   -1.000
 4367.00    1.06649   1.14882   -1.000
 4368.00    1.05815   1.13516   -1.000
 4369.00    1.05874   1.12450   -1.000
 4370.00    1.06916   1.11532   -1.000
 4371.00    1.07754   1.10445   60.863
 4372.00    1.05964   1.09029   61.962
 4373.00    1.03565   1.07522   -1.000
 4374.00    1.00767   1.06589   -1.000
 4375.00    1.00956   1.06821   -1.000
 4376.00    1.03619   1.08273   -1.000
 4377.00    1.06876   1.10234   60.058
 4378.00    1.07914   1.11620   59.447
 4379.00    1.08355   1.11525   60.046
 4380.00    1.08642   1.09510   61.584
 4381.00    1.06499   1.05755   65.512
 4382.00    1.00524   1.01346   73.090
 4383.00    0.94718   0.97975   -1.000
 4384.00    0.92196   0.97015   -1.000
 4385.00    0.94904   0.98638   -1.000
 4386.00    0.99995   1.01581   64.690
 4387.00    1.02898   1.04317   63.315
 4388.00    1.04653   1.06095   63.617
 4389.00    1.05306   1.07089   64.222
 4390.00    1.05382   1.07839   64.032
 4391.00    1.05882   1.08584   62.663
 4392.00    1.06823   1.09246   61.696
 4393.00    1.07106   1.09705   62.450
 4394.00    1.05757   1.10119   -1.000
 4395.00    1.04748   1.10801   -1.000
 4396.00    1.06937   1.11687   -1.000
 4397.00    1.09461   1.12285   58.693
 4398.00    1.09053   1.12148   59.986
 4399.00    1.06786   1.11420   -1.000
 4400.00    1.04179   1.10625   -1.000
 4401.00    1.04654   1.09978   -1.000
 4402.00    1.06661   1.09271   62.035
 4403.00    1.05871   1.08274   64.766
 4404.00    1.03662   1.07198   -1.000
 4405.00    1.02396   1.06639   -1.000
 4406.00    1.02948   1.06954   -1.000
 4407.00    1.03919   1.08132   -1.000
 4408.00    1.03927   1.10016   -1.000
 4409.00    1.05027   1.12362   -1.000
 4410.00    1.08422   1.14714   -1.000
 4411.00    1.11072   1.16265   -1.000
 4412.00    1.11913   1.16289   -1.000
 4413.00    1.10878   1.14774   58.858
 4414.00    1.08116   1.12517   -1.000
 4415.00    1.05107   1.10794   -1.000
 4416.00    1.04383   1.10621   -1.000
 4417.00    1.05735   1.12201   -1.000
 4418.00    1.07801   1.14706   -1.000
 4419.00    1.10130   1.16946   -1.000
 4420.00    1.11252   1.18092   -1.000
 4421.00    1.10179   1.18051   -1.000
 4422.00    1.08779   1.17421   -1.000
 4423.00    1.08512   1.16817   -1.000
 4424.00    1.07788   1.16462   -1.000
 4425.00    1.07743   1.16305   -1.000
 4426.00    1.07633   1.16252   -1.000
 4427.00    1.06708   1.16349   -1.000
 4428.00    1.06949   1.16609   -1.000
 4429.00    1.07677   1.16890   -1.000
 4430.00    1.07669   1.17009   -1.000
 4431.00    1.08011   1.16748   -1.000
 4432.00    1.09313   1.15941   -1.000
 4433.00    1.08372   1.14746   -1.000
 4434.00    1.05919   1.13756   -1.000
 4435.00    1.04758   1.13779   -1.000
 4436.00    1.05826   1.15192   -1.000
 4437.00    1.09709   1.17446   -1.000
 4438.00    1.12999   1.19383   -1.000
 4439.00    1.14066   1.19937   -1.000
 4440.00    1.12743   1.18913   -1.000
 4441.00    1.09651   1.17002   -1.000
 4442.00    1.06649   1.15465   -1.000
 4443.00    1.05162   1.15289   -1.000
 4444.00    1.06932   1.16586   -1.000
 4445.00    1.10183   1.18630   -1.000
 4446.00    1.12055   1.20438   -1.000
 4447.00    1.12477   1.21472   -1.000
 4448.00    1.12950   1.21748   -1.000
 4449.00    1.12524   1.21538   -1.000
 4450.00    1.11905   1.20990   -1.000
 4451.00    1.11576   1.19960   -1.000
 4452.00    1.11729   1.18286   -1.000
 4453.00    1.10546   1.16041   -1.000
 4454.00    1.07637   1.13775   -1.000
 4455.00    1.05676   1.12221   -1.000
 4456.00    1.06363   1.11725   -1.000
 4457.00    1.08416   1.12051   61.731
 4458.00    1.08990   1.12662   61.903
 4459.00    1.08322   1.13233   -1.000
 4460.00    1.07689   1.13797   -1.000
 4461.00    1.07252   1.14590   -1.000
 4462.00    1.08634   1.15706   -1.000
 4463.00    1.10855   1.17016   -1.000
 4464.00    1.11645   1.18128   -1.000
 4465.00    1.12104   1.18660   -1.000
 4466.00    1.11910   1.18507   -1.000
 4467.00    1.11016   1.17932   -1.000
 4468.00    1.09595   1.17461   -1.000
 4469.00    1.08909   1.17615   -1.000
 4470.00    1.09058   1.18656   -1.000
 4471.00    1.11319   1.20432   -1.000
 4472.00    1.14130   1.22467   -1.000
 4473.00    1.17233   1.24261   -1.000
 4474.00    1.18191   1.25495   -1.000
 4475.00    1.18376   1.26119   -1.000
 4476.00    1.18070   1.26167   -1.000
 4477.00    1.18860   1.25596   -1.000
 4478.00    1.18472   1.24235   -1.000
 4479.00    1.16844   1.22191   -1.000
 4480.00    1.14057   1.20066   -1.000
 4481.00    1.11325   1.18754   -1.000
 4482.00    1.11303   1.18976   -1.000
 4483.00    1.13030   1.20629   -1.000
 4484.00    1.16170   1.22940   -1.000
 4485.00    1.18337   1.24846   -1.000
 4486.00    1.18781   1.25610   -1.000
 4487.00    1.18251   1.25120   -1.000
 4488.00    1.16032   1.23953   -1.000
 4489.00    1.13934   1.22925   -1.000
 4490.00    1.13968   1.22589   -1.000
 4491.00    1.15511   1.22953   -1.000
 4492.00    1.16480   1.23489   -1.000
 4493.00    1.16587   1.23763   -1.000
 4494.00    1.15286   1.23703   -1.000
 4495.00    1.13188   1.23661   -1.000
 4496.00    1.13109   1.23974   -1.000
 4497.00    1.15076   1.24597   -1.000
 4498.00    1.17448   1.25243   -1.000
 4499.00    1.17829   1.25695   -1.000
 4500.00    1.16148   1.26098   -1.000
 4501.00    1.14654   1.26777   -1.000
 4502.00    1.16502   1.28006   -1.000
 4503.00    1.20054   1.29588   -1.000
 4504.00    1.22412   1.31010   -1.000
 4505.00    1.22511   1.31807   -1.000
 4506.00    1.21535   1.31869   -1.000
 4507.00    1.20897   1.31502   -1.000
 4508.00    1.20538   1.31106   -1.000
 4509.00    1.20594   1.30896   -1.000
 4510.00    1.21604   1.30727   -1.000
 4511.00    1.22064   1.30337   -1.000
 4512.00    1.20591   1.29603   -1.000
 4513.00    1.18941   1.28648   -1.000
 4514.00    1.18156   1.27757   -1.000
 4515.00    1.17902   1.27107   -1.000
 4516.00    1.17742   1.26699   -1.000
 4517.00    1.17501   1.26458   -1.000
 4518.00    1.17431   1.26311   -1.000
 4519.00    1.17658   1.26289   -1.000
 4520.00    1.18857   1.26349   -1.000
 4521.00    1.19109   1.26262   -1.000
 4522.00    1.17476   1.25810   -1.000
 4523.00    1.16043   1.24918   -1.000
 4524.00    1.15177   1.23651   -1.000
 4525.00    1.14992   1.22094   -1.000
 4526.00    1.13608   1.20295   -1.000
 4527.00    1.11778   1.18520   -1.000
 4528.00    1.09838   1.17164   -1.000
 4529.00    1.10346   1.16593   -1.000
 4530.00    1.11440   1.16726   -1.000
 4531.00    1.12632   1.17068   -1.000
 4532.00    1.12497   1.17153   -1.000
 4533.00    1.11327   1.16930   -1.000
 4534.00    1.09828   1.16993   -1.000
 4535.00    1.09655   1.18016   -1.000
 4536.00    1.12718   1.20237   -1.000
 4537.00    1.16987   1.23086   -1.000
 4538.00    1.20045   1.25610   -1.000
 4539.00    1.20221   1.27106   -1.000
 4540.00    1.18993   1.27530   -1.000
 4541.00    1.18896   1.27375   -1.000
 4542.00    1.18884   1.27069   -1.000
 4543.00    1.18260   1.26718   -1.000
 4544.00    1.17441   1.26209   -1.000
 4545.00    1.15538   1.25437   -1.000
 4546.00    0.82670   1.24429   -1.000
 4547.00    0.07520   1.23262   -1.000
 4548.00   -0.00143   1.22128    0.000
 4549.00    0.30872   1.21366   -1.000
 4550.00    0.74392   1.21233   -1.000
 4551.00    0.40808   1.21588   -1.000
 4552.00    1.01977   1.21982   -1.000
 4553.00    1.16547   1.22079   -1.000
 4554.00    1.12372   1.22075   -1.000
 4555.00    1.12656   1.22526   -1.000
 4556.00    1.15064   1.23761   -1.000
 4557.00    1.18398   1.25667   -1.000
 4558.00    1.20840   1.27720   -1.000
 4559.00    1.20913   1.29367   -1.000
 4560.00    1.21435   1.30291   -1.000
 4561.00    1.21656   1.30368   -1.000
 4562.00    1.20223   1.29679   -1.000
 4563.00    1.18259   1.28563   -1.000
 4564.00    1.16658   1.27558   -1.000
 4565.00    1.17051   1.27237   -1.000
 4566.00    1.18896   1.27745   -1.000
 4567.00    1.21320   1.28740   -1.000
 4568.00    1.22436   1.29528   -1.000
 4569.00    1.21513   1.29576   -1.000
 4570.00    1.19692   1.28903   -1.000
 4571.00    1.17563   1.28051   -1.000
 4572.00    1.17075   1.27708   -1.000
 4573.00    1.19255   1.28130   -1.000
 4574.00    1.21146   1.29038   -1.000
 4575.00    1.21487   1.29815   -1.000
 4576.00    1.21064   1.30018   -1.000
 4577.00    1.20822   1.29478   -1.000
 4578.00    1.19624   1.28270   -1.000
 4579.00    1.17278   1.26615   -1.000
 4580.00    1.16280   1.24924   -1.000
 4581.00    1.16396   1.23618   -1.000
 4582.00    1.16302   1.22966   -1.000
 4583.00    1.16193   1.22938   -1.000
 4584.00    1.17012   1.23346   -1.000
 4585.00    1.17486   1.24021   -1.000
 4586.00    1.18154   1.24913   -1.000
 4587.00    1.19526   1.25983   -1.000
 4588.00    1.20251   1.27026   -1.000
 4589.00    1.20996   1.27722   -1.000
 4590.00    1.20158   1.27839   -1.000
 4591.00    1.19087   1.27445   -1.000
 4592.00    1.18705   1.26901   -1.000
 4593.00    1.18394   1.26590   -1.000
 4594.00    1.18774   1.26702   -1.000
 4595.00    1.19310   1.27145   -1.000
 4596.00    1.20203   1.27699   -1.000
 4597.00    1.21149   1.28127   -1.000
 4598.00    1.21759   1.28272   -1.000
 4599.00    1.21372   1.28078   -1.000
 4600.00    1.19539   1.27670   -1.000
 4601.00    1.18695   1.27268   -1.000
 4602.00    1.18845   1.27084   -1.000
 4603.00    1.20172   1.27214   -1.000
 4604.00    1.20717   1.27629   -1.000
 4605.00    1.21201   1.28281   -1.000
 4606.00    1.21861   1.29142   -1.000
 4607.00    1.22843   1.30161   -1.000
 4608.00    1.24205   1.31209   -1.000
 4609.00    1.24710   1.31991   -1.000
 4610.00    1.24355   1.32307   -1.000
 4611.00    1.24212   1.32112   -1.000
 4612.00    1.23021   1.31653   -1.000
 4613.00    1.22550   1.31224   -1.000
 4614.00    1.22859   1.30941   -1.000
 4615.00    1.23026   1.30756   -1.000
 4616.00    1.22670   1.30537   -1.000
 4617.00    1.22959   1.30272   -1.000
 4618.00    1.22431   1.30105   -1.000
 4619.00    1.22297   1.30254   -1.000
 4620.00    1.23387   1.30809   -1.000
 4621.00    1.24016   1.31596   -1.000
 4622.00    1.25548   1.32299   -1.000
 4623.00    1.25629   1.32667   -1.000
 4624.00    1.24458   1.32646   -1.000
 4625.00    1.23470   1.32393   -1.000
 4626.00    1.23778   1.32043   -1.000
 4627.00    1.23835   1.31720   -1.000
 4628.00    1.23637   1.31510   -1.000
 4629.00    1.23095   1.31477   -1.000
 4630.00    1.22892   1.31633   -1.000
 4631.00    1.23219   1.31842   -1.000
 4632.00    1.23786   1.31897   -1.000
 4633.00    1.22986   1.31625   -1.000
 4634.00    1.22571   1.31083   -1.000
 4635.00    1.22621   1.30463   -1.000
 4636.00    1.22670   1.29962   -1.000
 4637.00    1.21421   1.29674   -1.000
 4638.00    1.20922   1.29689   -1.000
 4639.00    1.21759   1.30067   -1.000
 4640.00    1.23275   1.30781   -1.000
 4641.00    1.24843   1.31607   -1.000
 4642.00    1.25453   1.32164   -1.000
 4643.00    1.25434   1.32097   -1.000
 4644.00    1.23784   1.31260   -1.000
 4645.00    1.22298   1.29854   -1.000
 4646.00    1.20799   1.28377   -1.000
 4647.00    1.20094   1.27398   -1.000
 4648.00    1.21199   1.27330   -1.000
 4649.00    1.21736   1.28118   -1.000
 4650.00    1.23061   1.29269   -1.000
 4651.00    1.23750   1.30211   -1.000
 4652.00    1.22908   1.30575   -1.000
 4653.00    1.22843   1.30372   -1.000
 4654.00    1.22292   1.29888   -1.000
 4655.00    1.20837   1.29589   -1.000
 4656.00    1.20450   1.29920   -1.000
 4657.00    1.22122   1.31093   -1.000
 4658.00    1.24783   1.32830   -1.000
 4659.00    1.27158   1.34518   -1.000
 4660.00    1.27881   1.35484   -1.000
 4661.00    1.27050   1.35420   -1.000
 4662.00    1.25286   1.34435   -1.000
 4663.00    1.24284   1.32841   -1.000
 4664.00    1.24006   1.30874   -1.000
 4665.00    1.23402   1.28690   -1.000
 4666.00    1.21298   1.26519   -1.000
 4667.00    1.18356   1.24848   -1.000
 4668.00    1.17607   1.24211   -1.000
 4669.00    1.18140   1.24866   -1.000
 4670.00    1.20922   1.26495   -1.000
 4671.00    1.23391   1.28454   -1.000
 4672.00    1.24976   1.30159   -1.000
 4673.00    1.24574   1.31395   -1.000
 4674.00    1.24679   1.32250   -1.000
 4675.00    1.25170   1.32782   -1.000
 4676.00    1.26636   1.32888   -1.000
 4677.00    1.26425   1.32380   -1.000
 4678.00    1.25049   1.31302   -1.000
 4679.00    1.23124   1.30009   -1.000
 4680.00    1.21815   1.28951   -1.000
 4681.00    1.21665   1.28454   -1.000
 4682.00    1.22440   1.28560   -1.000
 4683.00    1.23583   1.29117   -1.000
 4684.00    1.25603   1.29849   51.308
 4685.00    1.26479   1.30501   51.482
 4686.00    1.26130   1.30937   51.566
 4687.00    1.24942   1.31151   -1.000
 4688.00    1.25099   1.31215   -1.000
 4689.00    1.25272   1.31175   -1.000
 4690.00    1.24764   1.31104   -1.000
 4691.00    1.24379   1.31100   -1.000
 4692.00    1.25338   1.31272   -1.000
 4693.00    1.26654   1.31646   50.540
 4694.00    1.28128   1.32087   49.523
 4695.00    1.28303   1.32350   49.146
 4696.00    1.28337   1.32188   49.737
 4697.00    1.27298   1.31504   51.253
 4698.00    1.25217   1.30368   -1.000
 4699.00    1.24310   1.29039   52.845
 4700.00    1.24024   1.27757   52.588
 4701.00    1.23566   1.26717   53.166
 4702.00    1.22686   1.26062   53.960
 4703.00    1.22373   1.25911   53.856
 4704.00    1.23126   1.26205   52.833
 4705.00    1.23624   1.26641   52.465
 4706.00    1.23478   1.26855   53.357
 4707.00    1.22353   1.26770   54.298
 4708.00    1.21340   1.26680   -1.000
 4709.00    1.21483   1.26951   -1.000
 4710.00    1.23044   1.27706   52.275
 4711.00    1.25655   1.28687   51.093
 4712.00    1.26563   1.29520   50.892
 4713.00    1.25553   1.29995   51.554
 4714.00    1.24820   1.30238   -1.000
 4715.00    1.25157   1.30622   -1.000
 4716.00    1.25667   1.31367   -1.000
 4717.00    1.26893   1.32399   -1.000
 4718.00    1.28055   1.33388   49.854
 4719.00    1.28511   1.34074   -1.000
 4720.00    1.27841   1.34402   -1.000
 4721.00    1.26649   1.34503   -1.000
 4722.00    1.26397   1.34538   -1.000
 4723.00    1.26747   1.34552   -1.000
 4724.00    1.26639   1.34431   -1.000
 4725.00    1.27419   1.33937   -1.000
 4726.00    1.26658   1.32928   -1.000
 4727.00    1.24318   1.31516   -1.000
 4728.00    1.23177   1.30085   -1.000
 4729.00    1.22684   1.29054   -1.000
 4730.00    1.23366   1.28643   -1.000
 4731.00    1.24215   1.28796   52.560
 4732.00    1.24650   1.29299   51.962
 4733.00    1.24840   1.29882   51.562
 4734.00    1.25422   1.30323   51.277
 4735.00    1.25950   1.30544   51.214
 4736.00    1.25426   1.30640   51.678
 4737.00    1.25288   1.30785   -1.000
 4738.00    1.27000   1.31091   51.001
 4739.00    1.27413   1.31521   51.132
 4740.00    1.25819   1.31961   -1.000
 4741.00    1.25202   1.32341   -1.000
 4742.00    1.26049   1.32696   -1.000
 4743.00    1.26759   1.33066   -1.000
 4744.00    1.27356   1.33435   -1.000
 4745.00    1.27881   1.33789   -1.000
 4746.00    1.28053   1.34180   -1.000
 4747.00    1.27847   1.34667   -1.000
 4748.00    1.28102   1.35254   -1.000
 4749.00    1.27886   1.35809   -1.000
 4750.00    1.28469   1.36137   -1.000
 4751.00    1.28861   1.36049   -1.000
 4752.00    1.27646   1.35482   -1.000
 4753.00    1.26981   1.34597   -1.000
 4754.00    1.26764   1.33719   -1.000
 4755.00    1.25947   1.33178   -1.000
 4756.00    1.25613   1.33109   -1.000
 4757.00    1.26026   1.33435   -1.000
 4758.00    1.26135   1.33903   -1.000
 4759.00    1.26353   1.34182   -1.000
 4760.00    1.26084   1.33952   -1.000
 4761.00    1.24671   1.33042   -1.000
 4762.00    1.23193   1.31619   -1.000
 4763.00    1.22374   1.30105   -1.000
 4764.00    1.22047   1.29018   -1.000
 4765.00    1.22435   1.28657   -1.000
 4766.00    1.23797   1.29091   -1.000
 4767.00    1.24871   1.30174   -1.000
 4768.00    1.25984   1.31600   -1.000
 4769.00    1.26693   1.32936   -1.000
 4770.00    1.26970   1.33852   -1.000
 4771.00    1.26750   1.34304   -1.000
 4772.00    1.25990   1.34579   -1.000
 4773.00    1.26831   1.34983   -1.000
 4774.00    1.28043   1.35610   -1.000
 4775.00    1.28544   1.36265   -1.000
 4776.00    1.29048   1.36667   -1.000
 4777.00    1.28907   1.36679   -1.000
 4778.00    1.27802   1.36351   -1.000
 4779.00    1.26420   1.35859   -1.000
 4780.00    1.25949   1.35339   -1.000
 4781.00    1.25554   1.34836   -1.000
 4782.00    1.25602   1.34320   -1.000
 4783.00    1.25985   1.33778   -1.000
 4784.00    1.25759   1.33250   -1.000
 4785.00    1.25605   1.32792   -1.000
 4786.00    1.25291   1.32479   -1.000
 4787.00    1.24449   1.32377   -1.000
 4788.00    1.24381   1.32555   -1.000
 4789.00    1.24439   1.33041   -1.000
 4790.00    1.25144   1.33844   -1.000
 4791.00    1.25992   1.34946   -1.000
 4792.00    1.27532   1.36263   -1.000
 4793.00    1.29058   1.37624   -1.000
 4794.00    1.30313   1.38758   -1.000
 4795.00    1.31082   1.39394   -1.000
 4796.00    1.30702   1.39371   -1.000
 4797.00    1.29054   1.38770   -1.000
 4798.00    1.28347   1.37922   -1.000
 4799.00    1.26755   1.37248   -1.000
 4800.00    1.27038   1.37062   -1.000
 4801.00    1.28435   1.37362   -1.000
 4802.00    1.29706   1.37854   -1.000
 4803.00    1.29863   1.38146   -1.000
 4804.00    1.28673   1.38045   -1.000
 4805.00    1.27340   1.37632   -1.000
 4806.00    1.27010   1.37163   -1.000
 4807.00    1.27797   1.36870   -1.000
 4808.00    1.28054   1.36856   -1.000
 4809.00    1.27681   1.37090   -1.000
 4810.00    1.28295   1.37459   -1.000
 4811.00    1.28691   1.37859   -1.000
 4812.00    1.28715   1.38266   -1.000
 4813.00    1.29398   1.38723   -1.000
 4814.00    1.29204   1.39258   -1.000
 4815.00    1.29331   1.39846   -1.000
 4816.00    1.30319   1.40397   -1.000
 4817.00    1.30716   1.40811   -1.000
 4818.00    1.31441   1.41008   -1.000
 4819.00    1.31840   1.40915   -1.000
 4820.00    1.31102   1.40423   -1.000
 4821.00    1.29945   1.39426   -1.000
 4822.00    1.28469   1.38007   -1.000
 4823.00    1.27135   1.36565   -1.000
 4824.00    1.27031   1.35637   -1.000
 4825.00    1.27559   1.35527   -1.000
 4826.00    1.29170   1.36039   -1.000
 4827.00    1.29306   1.36663   -1.000
 4828.00    1.28451   1.36985   -1.000
 4829.00    1.28662   1.36876   -1.000
 4830.00    1.28410   1.36463   -1.000
 4831.00    1.27336   1.35938   -1.000
 4832.00    1.27416   1.35528   -1.000
 4833.00    1.28253   1.35414   -1.000
 4834.00    1.29741   1.35621   -1.000
 4835.00    1.30000   1.35976   -1.000
 4836.00    1.28949   1.36193   -1.000
 4837.00    1.29259   1.36045   -1.000
 4838.00    1.28324   1.35486   -1.000
 4839.00    1.27183   1.34665   -1.000
 4840.00    1.26244   1.33861   -1.000
 4841.00    1.26554   1.33324   -1.000
 4842.00    1.26625   1.33171   -1.000
 4843.00    1.27311   1.33352   -1.000
 4844.00    1.28104   1.33730   -1.000
 4845.00    1.28604   1.34111   49.751
 4846.00    1.28632   1.34273   -1.000
 4847.00    1.27529   1.34077   -1.000
 4848.00    1.26492   1.33617   -1.000
 4849.00    1.26116   1.33123   -1.000
 4850.00    1.26584   1.32692   -1.000
 4851.00    1.26795   1.32143   50.593
 4852.00    1.25739   1.31112   50.937
 4853.00    1.23666   1.29351   -1.000
 4854.00    1.21406   1.26891   -1.000
 4855.00    1.19133   1.24013   54.307
 4856.00    1.17915   1.20924   54.002
 4857.00    1.17558   1.17404   53.977
 4858.00    1.14301   1.12980   56.357
 4859.00    1.05568   1.07549   61.824
 4860.00    0.94930   1.02091   -1.000
 4861.00    0.88241   0.98390   -1.000
 4862.00    0.90709   0.97938   -1.000
 4863.00    0.99969   1.00926   58.831
 4864.00    1.08251   1.06142   55.805
 4865.00    1.13725   1.11949   54.093
 4866.00    1.17441   1.17054   53.152
 4867.00    1.19995   1.20848   52.759
 4868.00    1.21271   1.23138   52.726
 4869.00    1.21073   1.24005   53.486
 4870.00    1.20107   1.23819   54.988
 4871.00    1.18260   1.23309   -1.000
 4872.00    1.18099   1.23310   -1.000
 4873.00    1.20277   1.24292   53.540
 4874.00    1.22058   1.26023   52.773
 4875.00    1.23059   1.27892   52.414
 4876.00    1.23436   1.29437   -1.000
 4877.00    1.23543   1.30689   -1.000
 4878.00    1.23886   1.31889   -1.000
 4879.00    1.25299   1.33095   -1.000
 4880.00    1.26032   1.34069   -1.000
 4881.00    1.24945   1.34535   -1.000
 4882.00    1.24416   1.34427   -1.000
 4883.00    1.24533   1.33920   -1.000
 4884.00    1.24392   1.33202   -1.000
 4885.00    1.23892   1.32431   -1.000
 4886.00    1.23803   1.31700   -1.000
 4887.00    1.24273   1.31024   -1.000
 4888.00    1.24036   1.30322   -1.000
 4889.00    1.23953   1.29555   -1.000
 4890.00    1.22053   1.28996   -1.000
 4891.00    1.21828   1.29247   -1.000
 4892.00    1.24216   1.30822   -1.000
 4893.00    1.27791   1.33673   -1.000
 4894.00    1.31524   1.37056   48.386
 4895.00    1.33439   1.39999   -1.000
 4896.00    1.34694   1.41887   -1.000
 4897.00    1.33770   1.42574   -1.000
 4898.00    1.32358   1.42325   -1.000
 4899.00    1.30448   1.41521   -1.000
 4900.00    1.29838   1.40551   -1.000
 4901.00    1.29988   1.39662   -1.000
 4902.00    1.30009   1.39005   -1.000
 4903.00    1.29077   1.38688   -1.000
 4904.00    1.29079   1.38837   -1.000
 4905.00    1.30709   1.39404   -1.000
 4906.00    1.32302   1.40003   -1.000
 4907.00    1.32322   1.40099   -1.000
 4908.00    1.30805   1.39395   -1.000
 4909.00    1.29152   1.38075   -1.000
 4910.00    1.27692   1.36765   -1.000
 4911.00    1.28000   1.36096   -1.000
 4912.00    1.29054   1.36381   -1.000
 4913.00    1.29987   1.37392   -1.000
 4914.00    1.31208   1.38542   -1.000
 4915.00    1.31875   1.39087   -1.000
 4916.00    1.32009   1.38396   -1.000
 4917.00    1.29716   1.36210   -1.000
 4918.00    1.26237   1.32908   -1.000
 4919.00    1.22124   1.29444   -1.000
 4920.00    1.20438   1.26951   -1.000
 4921.00    1.22060   1.26105   54.720
 4922.00    1.24720   1.26829   53.045
 4923.00    1.25997   1.28529   52.489
 4924.00    1.26068   1.30611   52.289
 4925.00    1.27136   1.32832   -1.000
 4926.00    1.28964   1.35132   -1.000
 4927.00    1.30884   1.37414   -1.000
 4928.00    1.32626   1.39410   -1.000
 4929.00    1.33734   1.40763   -1.000
 4930.00    1.34529   1.41195   -1.000
 4931.00    1.33814   1.40591   -1.000
 4932.00    1.31283   1.39149   -1.000
 4933.00    1.27898   1.37381   -1.000
 4934.00    1.26880   1.35888   -1.000
 4935.00    1.28185   1.34916   -1.000
 4936.00    1.28651   1.34281   51.660
 4937.00    1.27324   1.33637   -1.000
 4938.00    1.25502   1.33082   -1.000
 4939.00    1.25186   1.33124   -1.000
 4940.00    1.27112   1.34175   -1.000
 4941.00    1.30267   1.36132   -1.000
 4942.00    1.32467   1.38321   49.185
 4943.00    1.33543   1.40043   -1.000
 4944.00    1.33483   1.40978   -1.000
 4945.00    1.32955   1.41278   -1.000
 4946.00    1.32141   1.41375   -1.000
 4947.00    1.32343   1.41640   -1.000
 4948.00    1.33652   1.42175   -1.000
 4949.00    1.34041   1.42765   -1.000
 4950.00    1.34561   1.43119   -1.000
 4951.00    1.34731   1.43059   -1.000
 4952.00    1.34154   1.42582   -1.000
 4953.00    1.33852   1.41652   -1.000
 4954.00    1.33077   1.40109   -1.000
 4955.00    1.31346   1.37819   -1.000
 4956.00    1.27878   1.35040   -1.000
 4957.00    1.23682   1.32684   -1.000
 4958.00    1.23576   1.31809   -1.000
 4959.00    1.27452   1.32855   -1.000
 4960.00    1.31023   1.35256   49.717
 4961.00    1.33305   1.37820   49.532
 4962.00    1.33516   1.39603   -1.000
 4963.00    1.32676   1.40227   -1.000
 4964.00    1.32308   1.39861   -1.000
 4965.00    1.31222   1.38905   -1.000
 4966.00    1.30175   1.37797   -1.000
 4967.00    1.29622   1.36908   -1.000
 4968.00    1.29619   1.36464   -1.000
 4969.00    1.29892   1.36557   -1.000
 4970.00    1.30512   1.37148   -1.000
 4971.00    1.31042   1.38090   -1.000
 4972.00    1.32435   1.39167   -1.000
 4973.00    1.33139   1.40141   -1.000
 4974.00    1.33727   1.40805   -1.000
 4975.00    1.33801   1.41006   -1.000
 4976.00    1.32501   1.40707   -1.000
 4977.00    1.32034   1.39919   -1.000
 4978.00    1.31288   1.38694   -1.000
 4979.00    1.29941   1.37015   -1.000
 4980.00    1.27534   1.34839   -1.000
 4981.00    1.25084   1.32255   -1.000
 4982.00    1.22937   1.29704   -1.000
 4983.00    1.21986   1.27934   -1.000
 4984.00    1.23382   1.27604   55.346
 4985.00    1.25547   1.28842   53.720
 4986.00    1.27815   1.31077   52.111
 4987.00    1.29834   1.33422   51.191
 4988.00    1.30639   1.35105   51.459
 4989.00    1.30002   1.35815   -1.000
 4990.00    1.28952   1.35776   -1.000
 4991.00    1.29411   1.35466   -1.000
 4992.00    1.29474   1.35329   -1.000
 4993.00    1.29509   1.35537   -1.000
 4994.00    1.30147   1.36015   -1.000
 4995.00    1.30869   1.36538   -1.000
 4996.00    1.31519   1.36833   51.411
 4997.00    1.31658   1.36632   51.839
 4998.00    1.30674   1.35780   52.640
 4999.00    1.28111   1.34390   -1.000
 5000.00    1.27014   1.32861   -1.000
 5001.00    1.27993   1.31650   53.968
 5002.00    1.28566   1.30970   53.485
 5003.00    1.28186   1.30607   53.439
 5004.00    1.27629   1.30200   54.396
 5005.00    1.26147   1.29629   55.509
 5006.00    1.25005   1.29229   55.329
 5007.00    1.26635   1.29494   53.841
 5008.00    1.29304   1.30457   52.483
 5009.00    1.31160   1.31584   52.285
 5010.00    1.30592   1.32056   53.239
 5011.00    1.28101   1.31414   54.973
 5012.00    1.25483   1.29877   56.841
 5013.00    1.23762   1.28128   57.710
 5014.00    1.22668   1.26890   57.115
 5015.00    1.24413   1.26424   55.845
 5016.00    1.26359   1.26619   54.933
 5017.00    1.26949   1.27167   54.790
 5018.00    1.26785   1.27900   54.631
 5019.00    1.27054   1.28774   54.042
 5020.00    1.28014   1.29685   53.790
 5021.00    1.28658   1.30527   54.013
 5022.00    1.28720   1.31267   54.011
 5023.00    1.29114   1.31979   53.618
 5024.00    1.29839   1.32744   53.101
 5025.00    1.30417   1.33416   52.917
 5026.00    1.30134   1.33828   53.185
 5027.00    1.29502   1.34037   53.235
 5028.00    1.30162   1.34290   52.585
 5029.00    1.31652   1.34867   51.647
 5030.00    1.32791   1.35835   50.888
 5031.00    1.33381   1.36974   50.124
 5032.00    1.33951   1.37868   49.733
 5033.00    1.33943   1.38092   50.240
 5034.00    1.32215   1.37390   52.000
 5035.00    1.29904   1.35909   -1.000
 5036.00    1.27757   1.34035   -1.000
 5037.00    1.27352   1.32058   54.730
 5038.00    1.26782   1.30053   55.818
 5039.00    1.24132   1.27965   58.082
 5040.00    1.21027   1.26212   -1.000
 5041.00    1.19885   1.25568   -1.000
 5042.00    1.23099   1.26637   55.788
 5043.00    1.27561   1.29368   52.649
 5044.00    1.30920   1.32862   50.821
 5045.00    1.33690   1.35984   49.524
 5046.00    1.36588   1.37863   48.529
 5047.00    1.23824   1.38153   -1.000
 5048.00    0.53601   1.37111   -1.000
 5049.00   -0.00810   1.35386    0.000
 5050.00    0.09705   1.33823   -1.000
 5051.00    0.57890   1.33107   -1.000
 5052.00    1.20335   1.33505   -1.000
 5053.00    1.33490   1.34807   50.856
 5054.00    1.35141   1.36483   50.062
 5055.00    1.36296   1.38029   49.685
 5056.00    1.36216   1.39262   49.602
 5057.00    1.35901   1.40172   49.701
 5058.00    1.35890   1.40871   49.762
 5059.00    1.35938   1.41377   49.649
 5060.00    1.36274   1.41602   49.404
 5061.00    1.36330   1.41380   49.618
 5062.00    1.35999   1.40567   50.520
 5063.00    1.34221   1.39119   52.111
 5064.00    1.31436   1.37356   -1.000
 5065.00    1.29547   1.35779   -1.000
 5066.00    1.29802   1.34790   53.125
 5067.00    1.31272   1.34497   52.492
 5068.00    1.31419   1.34630   52.320
 5069.00    1.31840   1.34904   52.041
 5070.00    1.33027   1.35075   51.908
 5071.00    1.33169   1.35059   52.349
 5072.00    1.32031   1.34922   52.464
 5073.00    1.32638   1.34842   51.852
 5074.00    1.33258   1.34910   51.548
 5075.00    1.33110   1.35009   51.497
 5076.00    1.33316   1.34806   51.608
 5077.00    1.32873   1.33997   52.485
 5078.00    1.30277   1.32569   54.547
 5079.00    1.26400   1.30887   56.628
 5080.00    1.24746   1.29600   56.695
 5081.00    1.26204   1.29133   55.441
 5082.00    1.27806   1.29596   54.381
 5083.00    1.28901   1.30768   53.578
 5084.00    1.30793   1.32317   52.581
 5085.00    1.33365   1.33994   51.831
 5086.00    1.34611   1.35523   51.561
 5087.00    1.34418   1.36751   51.445
 5088.00    1.34386   1.37646   51.147
 5089.00    1.34859   1.38302   50.799
 5090.00    1.35255   1.38882   50.526
 5091.00    1.35790   1.39474   50.173
 5092.00    1.36881   1.40019   49.619
 5093.00    1.37080   1.40282   49.429
 5094.00    1.36882   1.39954   50.072
 5095.00    1.38819   1.38828   51.151
 5096.00    1.37411   1.37034   52.296
 5097.00    1.32060   1.35035   53.522
 5098.00    1.30281   1.33457   54.371
 5099.00    1.29820   1.32796   54.080
 5100.00    1.31089   1.33149   52.634
 5101.00    1.33477   1.34221   51.401
 5102.00    1.34536   1.35385   51.197
 5103.00    1.34925   1.36104   51.627
 5104.00    1.33805   1.36111   52.314
 5105.00    1.32665   1.35443   52.970
 5106.00    1.31225   1.34402   53.622
 5107.00    1.29868   1.33361   54.083
 5108.00    1.28836   1.32695   53.900
 5109.00    1.29311   1.32651   53.534
 5110.00    1.29779   1.33269   53.037
 5111.00    1.30752   1.34426   52.293
 5112.00    1.32436   1.35850   51.657
 5113.00    1.34283   1.37278   51.074
 5114.00    1.35363   1.38566   50.672
 5115.00    1.35603   1.39620   50.331
 5116.00    1.36626   1.40430   49.821
 5117.00    1.37182   1.40891   49.568
 5118.00    1.37634   1.40898   49.876
 5119.00    1.37058   1.40354   50.576
 5120.00    1.35624   1.39265   51.362
 5121.00    1.34403   1.37755   52.347
 5122.00    1.32043   1.36033   53.781
 5123.00    1.29800   1.34342   55.061
 5124.00    1.28811   1.32931   55.149
 5125.00    1.28688   1.31984   54.692
 5126.00    1.29794   1.31513   54.416
 5127.00    1.30274   1.31425   54.204
 5128.00    1.29994   1.31582   54.260
 5129.00    1.30028   1.31953   54.016
 5130.00    1.30529   1.32546   53.225
 5131.00    1.31936   1.33365   52.445
 5132.00    1.33435   1.34291   52.014
 5133.00    1.34218   1.35154   51.526
 5134.00    1.34424   1.35753   51.165
 5135.00    1.34887   1.35918   51.343
 5136.00    1.34475   1.35535   52.401
 5137.00    1.32542   1.34659   53.567
 5138.00    1.30466   1.33543   54.182
 5139.00    1.29349   1.32515   54.066
 5140.00    1.29819   1.31864   53.813
 5141.00    1.29920   1.31625   54.384
 5142.00    1.28869   1.31721   54.943
 5143.00    1.28771   1.32003   54.401
 5144.00    1.30501   1.32315   53.672
 5145.00    1.31656   1.32534   53.710
 5146.00    1.31205   1.32596   54.133
 5147.00    1.31291   1.32550   54.020
 5148.00    1.32109   1.32542   53.430
 5149.00    1.31532   1.32540   53.418
 5150.00    1.30421   1.32402   54.208
 5151.00    1.29161   1.32101   55.031
 5152.00    1.28516   1.31745   55.184
 5153.00    1.29605   1.31671   54.653
 5154.00    1.31375   1.32178   53.478
 5155.00    1.33204   1.33371   52.105
 5156.00    1.35968   1.35059   50.882
 5157.00    1.37371   1.36849   50.109
 5158.00    1.37811   1.38351   49.865
 5159.00    1.38564   1.39256   49.921
 5160.00    1.37753   1.39458   50.129
 5161.00    1.36793   1.38907   50.502
 5162.00    1.36551   1.37524   51.145
 5163.00    1.35592   1.35118   52.275
 5164.00    1.33423   1.31530   54.961
 5165.00    1.28133   1.26779   59.947
 5166.00    1.20437   1.21619   65.670
 5167.00    1.13826   1.17177   68.307
 5168.00    1.12788   1.14393   65.936
 5169.00    1.17317   1.13451   62.891
 5170.00    1.21126   1.13326   -1.000
 5171.00    1.18188   1.13412   67.901
 5172.00    1.13184   1.13780   70.330
 5173.00    1.14349   1.15274   65.665
 5174.00    1.21259   1.18664   58.901
 5175.00    1.28436   1.23320   54.885
 5176.00    1.33526   1.28111   53.336
 5177.00    1.36050   1.31740   52.923
 5178.00    1.36275   1.33410   53.016
 5179.00    1.35531   1.32986   53.947
 5180.00    1.33642   1.30410   56.456
 5181.00    1.28979   1.26193   61.316
 5182.00    1.20940   1.21400   67.950
 5183.00    1.13532   1.17663   -1.000
 5184.00    1.13403   1.16553   65.549
 5185.00    1.20859   1.18361   58.563
 5186.00    1.29545   1.22279   -1.000
 5187.00    1.33856   1.26588   -1.000
 5188.00    1.34093   1.29925   52.936
 5189.00    1.33807   1.31779   52.954
 5190.00    1.33590   1.32199   53.878
 5191.00    1.30510   1.31688   55.581
 5192.00    1.27573   1.30881   56.533
 5193.00    1.27053   1.30301   55.859
 5194.00    1.28604   1.30301   54.915
 5195.00    1.31076   1.30971   54.113
 5196.00    1.32654   1.32130   53.234
 5197.00    1.33264   1.33649   52.197
 5198.00    1.34701   1.35271   51.453
 5199.00    1.36635   1.36674   51.160
 5200.00    1.36890   1.37487   51.260
 5201.00    1.36437   1.37348   51.845
 5202.00    1.34760   1.36108   52.881
 5203.00    1.32833   1.33927   54.235
 5204.00    1.30438   1.31220   55.957
 5205.00    1.28113   1.28568   57.233
 5206.00    1.27582   1.26513   57.401
 5207.00    1.27516   1.25422   57.727
 5208.00    1.26782   1.25430   57.725
 5209.00    1.27871   1.26614   56.515
 5210.00    1.30497   1.28837   54.496
 5211.00    1.34238   1.31770   52.302
 5212.00    1.37547   1.34743   50.545
 5213.00    1.39047   1.36974   50.008
 5214.00    1.38465   1.38039   50.819
 5215.00    1.36180   1.38037   51.882
 5216.00    1.34291   1.37732   52.171
 5217.00    1.34966   1.37854   51.482
 5218.00    1.37430   1.38805   50.437
 5219.00    1.39215   1.40350   49.800
 5220.00    1.40192   1.41858   49.488
 5221.00    1.40757   1.42697   49.542
 5222.00    1.40460   1.42325   50.477
 5223.00    1.38714   1.40588   52.221
 5224.00    1.34850   1.37675   54.493
 5225.00    1.30232   1.34230   56.763
 5226.00    1.26907   1.31393   57.450
 5227.00    1.26754   1.30126   55.494
 5228.00    1.31189   1.30787   52.567
 5229.00    1.36066   1.32808   50.819
 5230.00    1.38303   1.34977   50.211
 5231.00    1.39060   1.36419   50.490
 5232.00    1.37636   1.36817   51.532
 5233.00    1.36066   1.36700   52.137
 5234.00    1.34519   1.36844   51.647
 5235.00    1.36079   1.37773   50.398
 5236.00    1.39490   1.39414   49.383
 5237.00    1.41112   1.41317   49.009
 5238.00    1.41121   1.42933   49.048
 5239.00    1.40540   1.43938   49.140
 5240.00    1.41243   1.44387   48.980
 5241.00    1.41543   1.44480   48.788
 5242.00    1.41101   1.44468   48.830
 5243.00    1.41681   1.44434   48.726
 5244.00    1.41737   1.44267   48.961
 5245.00    1.40642   1.43703   50.163
 5246.00    1.37917   1.42660   51.647
 5247.00    1.35347   1.41285   -1.000
 5248.00    1.35423   1.39927   52.579
 5249.00    1.35412   1.38939   52.749
 5250.00    1.34223   1.38441   52.925
 5251.00    1.34717   1.38418   52.497
 5252.00    1.36381   1.38718   51.808
 5253.00    1.36917   1.39205   51.462
 5254.00    1.36364   1.39834   51.382
 5255.00    1.37188   1.40725   50.739
 5256.00    1.39000   1.41879   49.455
 5257.00    1.41560   1.43076   48.381
 5258.00    1.43282   1.43841   48.260
 5259.00    1.42629   1.43570   49.011
 5260.00    1.40037   1.41942   50.618
 5261.00    1.36603   1.39009   52.885
 5262.00    1.32544   1.35283   55.219
 5263.00    1.29280   1.31531   56.865
 5264.00    1.27779   1.28464   57.696
 5265.00    1.27255   1.26505   57.451
 5266.00    1.28098   1.25583   56.387
 5267.00    1.30039   1.25159   56.042
 5268.00    1.29669   1.24860   57.687
 5269.00    1.25982   1.24658   59.074
 5270.00    1.25076   1.25040   57.128
 5271.00    1.29896   1.26493   53.887
 5272.00    1.34838   1.28763   -1.000
 5273.00    1.36048   1.31362   51.877
 5274.00    1.35995   1.33771   51.884
 5275.00    1.36182   1.35874   51.487
 5276.00    1.38112   1.37925   50.215
 5277.00    1.41007   1.39924   48.697
 5278.00    1.43452   1.41580   48.189
 5279.00    1.44243   1.42345   48.800
 5280.00    1.42822   1.41985   50.051
 5281.00    1.40302   1.40813   51.244
 5282.00    1.37759   1.39511   51.955
 5283.00    1.36715   1.38875   51.778
 5284.00    1.38298   1.39420   50.499
 5285.00    1.41599   1.41106   48.915
 5286.00    1.41761   1.43396   47.726
 5287.00    1.39575   1.45628   47.609
 5288.00    1.44494   1.47268   47.813
 5289.00    1.45356   1.48237   47.708
 5290.00    1.45480   1.48653   47.468
 5291.00    1.45130   1.48666   47.492
 5292.00    1.44657   1.48380   47.843
 5293.00    1.44580   1.47699   48.359
 5294.00    1.44409   1.46444   49.211
 5295.00    1.42339   1.44595   50.752
 5296.00    1.37813   1.42335   52.562
 5297.00    1.34748   1.40208   53.410
 5298.00    1.34510   1.38881   52.672
 5299.00    1.36903   1.38621   51.395
 5300.00    1.39158   1.39355   50.650
 5301.00    1.39951   1.40706   50.267
 5302.00    1.40279   1.42280   49.402
 5303.00    1.42215   1.43917   48.161
 5304.00    1.44813   1.45354   47.530
 5305.00    1.45291   1.46406   47.623
 5306.00    1.44714   1.47043   48.103
 5307.00    1.44408   1.47360   48.294
 5308.00    1.44724   1.47676   47.881
 5309.00    1.45806   1.48146   47.429
 5310.00    1.46987   1.48666   47.243
 5311.00    1.46905   1.49006   47.375
 5312.00    1.45638   1.48898   47.634
 5313.00    1.44991   1.48268   47.879
 5314.00    1.44593   1.47240   48.273
 5315.00    1.44005   1.46077   48.744
 5316.00    1.42602   1.45161   49.047
 5317.00    1.42129   1.44788   48.923
 5318.00    1.42858   1.44977   48.588
 5319.00    1.44123   1.45421   48.508
 5320.00    1.44223   1.45586   48.757
 5321.00    1.43495   1.45143   49.178
 5322.00    1.42560   1.43975   49.856
 5323.00    1.40844   1.42242   50.623
 5324.00    1.40355   1.40183   50.919
 5325.00    1.39808   1.37893   51.297
 5326.00    1.37763   1.35490   53.353
 5327.00    1.32891   1.33205   56.398
 5328.00    1.29363   1.31803   56.844
 5329.00    1.31486   1.31923   54.059
 5330.00    1.36403   1.33671   51.236
 5331.00    1.40694   1.36507   50.007
 5332.00    1.42687   1.39406   49.549
 5333.00    1.43292   1.41786   49.042
 5334.00    1.43954   1.43400   48.575
 5335.00    1.44316   1.44247   48.545
 5336.00    1.43815   1.44419   48.887
 5337.00    1.42816   1.43934   49.268
 5338.00    1.42086   1.42882   50.035
 5339.00    1.40713   1.41550   51.228
 5340.00    1.38562   1.40457   51.695
 5341.00    1.38974   1.40059   50.893
 5342.00    1.41428   1.40505   49.609
 5343.00    1.43487   1.41457   49.019
 5344.00    1.44640   1.42297   49.163
 5345.00    1.44203   1.42660   49.499
 5346.00    1.43637   1.42479   49.793
 5347.00    1.42813   1.42074   50.096
 5348.00    1.41803   1.41841   50.460
 5349.00    1.41810   1.42055   50.280
 5350.00    1.42707   1.42816   49.330
 5351.00    1.44465   1.44012   48.328
 5352.00    1.45609   1.45401   47.895
 5353.00    1.45876   1.46744   47.696
 5354.00    1.46444   1.47972   47.232
 5355.00    1.47930   1.49032   46.692
 5356.00    1.48645   1.49876   46.477
 5357.00    1.48066   1.50435   46.550
 5358.00    1.48421   1.50588   46.652
 5359.00    1.48692   1.50289   46.944
 5360.00    1.47376   1.49506   47.591
 5361.00    1.45565   1.48294   48.373
 5362.00    1.43922   1.46837   48.962
 5363.00    1.42858   1.45363   49.267
 5364.00    1.42221   1.44112   49.554
 5365.00    1.41976   1.43190   49.714
 5366.00    1.42739   1.42500   49.580
 5367.00    1.43032   1.41759   49.745
 5368.00    1.42212   1.40695   50.506
 5369.00    1.40075   1.39279   51.897
 5370.00    1.36759   1.37871   53.054
 5371.00    1.36688   1.37174   52.462
 5372.00    1.38795   1.37728   50.266
 5373.00    1.42277   1.39623   48.266
 5374.00    1.46245   1.42275   47.404
 5375.00    1.48151   1.44841   47.249
 5376.00    1.49129   1.46714   47.379
 5377.00    1.49086   1.47636   47.411
 5378.00    1.48129   1.47763   47.566
 5379.00    1.47142   1.47355   47.914
 5380.00    1.45826   1.46676   48.400
 5381.00    1.44779   1.45948   48.802
 5382.00    1.44322   1.45384   48.941
 5383.00    1.44566   1.45192   48.831
 5384.00    1.45387   1.45469   48.496
 5385.00    1.46655   1.46115   48.089
 5386.00    1.47194   1.46796   48.119
 5387.00    1.47045   1.47149   48.432
 5388.00    1.45886   1.46965   49.002
 5389.00    1.44573   1.46230   49.708
 5390.00    1.44134   1.45156   50.147
 5391.00    1.43861   1.44000   50.288
 5392.00    1.43427   1.42906   50.342
 5393.00    1.42812   1.41936   50.574
 5394.00    1.41926   1.41010   51.055
 5395.00    1.40925   1.40021   51.861
 5396.00    1.39380   1.39129   52.620
 5397.00    1.38353   1.38612   52.077
 5398.00    1.40675   1.38799   50.451
 5399.00    1.43630   1.39691   49.370
 5400.00    1.44354   1.40788   49.267
 5401.00    1.44039   1.41492   49.472
 5402.00    1.43917   1.41302   50.227
 5403.00    1.41841   1.40102   51.867
 5404.00    1.38490   1.38344   53.278
 5405.00    1.36512   1.36783   53.585
 5406.00    1.37258   1.35954   52.744
 5407.00    1.39673   1.36041   51.805
 5408.00    1.41127   1.36719   51.685
 5409.00    1.40222   1.37595   51.973
 5410.00    1.40345   1.38629   51.311
 5411.00    1.42154   1.39821   49.934
 5412.00    1.44458   1.41189   48.992
 5413.00    1.45752   1.42568   48.691
 5414.00    1.45834   1.43736   48.751
 5415.00    1.45857   1.44730   48.647
 5416.00    1.46137   1.45576   48.273
 5417.00    1.46778   1.46267   48.131
 5418.00    1.46365   1.46760   48.452
 5419.00    1.45471   1.46923   48.891
 5420.00    1.45955   1.46760   49.014
 5421.00    1.45742   1.46340   48.784
 5422.00    1.45327   1.45736   48.868
 5423.00    1.44877   1.45161   49.540
 5424.00    1.44005   1.44804   49.659
 5425.00    1.44536   1.44765   48.965
 5426.00    1.45904   1.44903   48.429
 5427.00    1.45883   1.44699   49.022
 5428.00    1.43339   1.43936   50.529
 5429.00    1.40574   1.42772   51.677
 5430.00    1.40805   1.41630   51.335
 5431.00    1.42346   1.40924   50.637
 5432.00    1.42967   1.40556   50.916
 5433.00    1.41976   1.40392   51.648
 5434.00    1.40342   1.40473   51.981
 5435.00    1.40169   1.41006   51.466
 5436.00    1.41600   1.42275   50.260
 5437.00    1.44232   1.44183   48.957
 5438.00    1.47285   1.46349   48.065
 5439.00    1.49321   1.48265   47.501
 5440.00    1.49863   1.49596   47.223
 5441.00    1.49811   1.50198   47.188
 5442.00    1.49643   1.49934   47.348
 5443.00    1.48777   1.48783   48.124
 5444.00    1.46209   1.46806   49.684
 5445.00    1.42218   1.44435   51.664
 5446.00    1.39604   1.42403   52.669
 5447.00    1.39683   1.41402   51.715
 5448.00    1.42183   1.41781   50.041
 5449.00    1.46138   1.43161   48.959
 5450.00    1.48249   1.44796   48.704
 5451.00    1.48639   1.45922   48.869
 5452.00    1.47772   1.46027   49.543
 5453.00    1.45669   1.45131   50.837
 5454.00    1.42819   1.43723   52.207
 5455.00    1.40451   1.42538   52.703
 5456.00    1.41409   1.42295   51.463
 5457.00    1.44573   1.43132   49.737
 5458.00    1.47906   1.44552   48.755
 5459.00    1.48455   1.45825   48.822
 5460.00    1.47722   1.46345   49.562
 5461.00    1.46695   1.46023   50.436
 5462.00    1.45404   1.45232   50.967
 5463.00    1.44800   1.44568   50.924
 5464.00    1.45065   1.44444   50.241
 5465.00    1.45881   1.44933   49.775
 5466.00    1.47261   1.45788   49.461
 5467.00    1.48424   1.46674   48.994
 5468.00    1.48338   1.47353   49.030
 5469.00    1.48197   1.47650   49.555
 5470.00    1.47282   1.47529   49.963
 5471.00    1.46052   1.47037   50.140
 5472.00    1.46120   1.46183   50.488
 5473.00    1.45767   1.44995   51.088
 5474.00    1.44296   1.43555   51.947
 5475.00    1.42136   1.42050   52.992
 5476.00    1.40398   1.40900   53.371
 5477.00    1.41006   1.40481   52.414
 5478.00    1.43440   1.40913   50.933
 5479.00    1.45550   1.41932   50.448
 5480.00    1.46268   1.43015   51.007
 5481.00    1.45331   1.43938   51.415
 5482.00    1.44268   1.44724   51.000
 5483.00    1.45196   1.45498   50.004
 5484.00    1.47018   1.46307   49.163
 5485.00    1.47810   1.46931   49.069
 5486.00    1.46848   1.47187   49.684
 5487.00    1.45486   1.47081   50.276
 5488.00    1.45175   1.46844   50.444
 5489.00    1.45235   1.46750   50.316
 5490.00    1.45630   1.46878   49.932
 5491.00    1.47086   1.47165   49.627
 5492.00    1.47659   1.47444   49.552
 5493.00    1.47365   1.47576   49.654
 5494.00    1.47533   1.47511   49.655
 5495.00    1.47422   1.47231   49.766
 5496.00    1.46652   1.46816   50.156
 5497.00    1.45649   1.46386   50.302
 5498.00    1.45519   1.46015   49.887
 5499.00    1.46747   1.45719   49.613
 5500.00    1.46823   1.45368   50.216
 5501.00    1.45532   1.44914   50.818
 5502.00    1.45557   1.44519   50.682
 5503.00    1.46201   1.44206   50.332
 5504.00    1.46247   1.43935   50.508
 5505.00    1.45512   1.43676   51.194
 5506.00    1.44319   1.43433   51.363
 5507.00    1.44132   1.43411   50.703
 5508.00    1.45820   1.43657   50.059
 5509.00    1.47569   1.43988   50.068
 5510.00    1.46907   1.44134   50.648
 5511.00    1.45407   1.43891   51.643
 5512.00    1.44277   1.43370   52.352
 5513.00    1.43256   1.42936   52.432
 5514.00    1.43714   1.42973   51.633
 5515.00    1.46046   1.43624   50.752
 5516.00    1.48465   1.44778   49.933
 5517.00    1.49989   1.46167   49.015
 5518.00    1.50981   1.47488   48.436
 5519.00    1.51668   1.48512   48.430
 5520.00    1.51740   1.49146   48.521
 5521.00    1.51077   1.49395   48.643
 5522.00    1.50558   1.49294   48.790
 5523.00    1.50272   1.48825   48.934
 5524.00    1.49543   1.47902   49.366
 5525.00    1.48016   1.46529   50.217
 5526.00    1.45727   1.44887   51.460
 5527.00    1.43654   1.43422   52.463
 5528.00    1.42653   1.42635   52.206
 5529.00    1.43861   1.42833   50.893
 5530.00    1.46377   1.43864   49.758
 5531.00    1.47644   1.45141   49.408
 5532.00    1.47700   1.46139   49.679
 5533.00    1.47855   1.46610   50.098
 5534.00    1.47395   1.46661   50.187
 5535.00    1.46842   1.46621   49.907
 5536.00    1.47504   1.46773   49.574
 5537.00    1.48577   1.47170   49.444
 5538.00    1.49461   1.47703   49.131
 5539.00    1.50327   1.48258   48.660
 5540.00    1.50864   1.48709   48.416
 5541.00    1.50894   1.48900   48.626
 5542.00    1.49923   1.48806   49.161
 5543.00    1.48955   1.48539   49.534
 5544.00    1.48714   1.48302   49.546
 5545.00    1.49089   1.48292   49.398
 5546.00    1.49619   1.48559   49.225
 5547.00    1.50675   1.49072   48.839
 5548.00    1.51567   1.49725   48.367
 5549.00    1.52015   1.50301   48.065
 5550.00    1.51732   1.50636   48.096
 5551.00    1.51532   1.50672   48.434
 5552.00    1.51265   1.50419   48.912
 5553.00    1.50592   1.50011   49.378
 5554.00    1.49815   1.49641   49.487
 5555.00    1.50059   1.49450   49.364
 5556.00    1.50546   1.49447   49.227
 5557.00    1.50768   1.49560   49.157
 5558.00    1.50619   1.49689   49.099
 5559.00    1.50665   1.49703   49.098
 5560.00    1.50835   1.49501   49.265
 5561.00    1.50098   1.49055   49.611
 5562.00    1.49123   1.48438   50.085
 5563.00    1.48273   1.47789   50.353
 5564.00    1.47909   1.47216   50.467
 5565.00    1.48365   1.46767   50.552
 5566.00    1.48408   1.46439   50.548
 5567.00    1.47794   1.46187   50.429
 5568.00    1.47581   1.45963   50.408
 5569.00    1.47820   1.45744   50.514
 5570.00    1.47761   1.45526   50.474
 5571.00    1.47863   1.45332   50.532
 5572.00    1.47783   1.45205   50.571
 5573.00    1.46402   1.45257   50.216
 5574.00    1.43109   1.45570   49.693
 5575.00    1.38630   1.46062   -1.000
 5576.00    1.39546   1.46670   48.404
 5577.00    1.43355   1.47345   48.126
 5578.00    1.45192   1.47977   49.360
 5579.00    1.49431   1.48461   50.754
 5580.00    1.48062   1.48734   50.826
 5581.00    1.49409   1.48778   50.167
 5582.00    1.49650   1.48566   49.769
 5583.00    1.50048   1.48014   49.826
 5584.00    1.49746   1.47027   50.413
 5585.00    1.47611   1.45473   51.657
 5586.00    1.44245   1.43459   52.927
 5587.00    1.41398   1.41484   53.843
 5588.00    1.40520   1.40079   53.842
 5589.00    1.41682   1.39610   53.016
 5590.00    1.44222   1.40091   52.108
 5591.00    1.45657   1.41179   51.585
 5592.00    1.46485   1.42372   51.593
 5593.00    1.46311   1.43372   51.655
 5594.00    1.46205   1.44109   51.154
 5595.00    1.47196   1.44616   50.488
 5596.00    1.48536   1.44897   50.393
 5597.00    1.48317   1.44807   51.077
 5598.00    1.47046   1.44342   51.886
 5599.00    1.45881   1.43716   52.211
 5600.00    1.45060   1.43091   52.242
 5601.00    1.44339   1.42711   52.556
 5602.00    1.44042   1.42938   52.428
 5603.00    1.45346   1.43936   51.283
 5604.00    1.47718   1.45632   49.915
 5605.00    1.50453   1.47702   48.978
 5606.00    1.52402   1.49683   48.594
 5607.00    1.53059   1.51248   48.584
 5608.00    1.52618   1.52261   48.678
 5609.00    1.52162   1.52750   48.729
 5610.00    1.53079   1.52789   48.633
 5611.00    1.53559   1.52358   48.600
 5612.00    1.52566   1.51312   49.121
 5613.00    1.50513   1.49637   50.432
 5614.00    1.47600   1.47606   52.058
 5615.00    1.45336   1.45764   52.662
 5616.00    1.45203   1.44793   51.819
 5617.00    1.47652   1.44882   50.695
 5618.00    1.49809   1.45751   50.239
 5619.00    1.50166   1.46939   50.127
 5620.00    1.50863   1.47969   49.878
 5621.00    1.51907   1.48536   49.783
 5622.00    1.51141   1.48557   50.294
 5623.00    1.49119   1.48131   51.337
 5624.00    1.47637   1.47610   51.883
 5625.00    1.47817   1.47383   51.341
 5626.00    1.49059   1.47673   50.468
 5627.00    1.50341   1.48468   49.802
 5628.00    1.51157   1.49514   49.306
 5629.00    1.52459   1.50520   49.035
 5630.00    1.53359   1.51261   48.894
 5631.00    1.53549   1.51583   48.773
 5632.00    1.53032   1.51480   48.958
 5633.00    1.53051   1.51070   49.359
 5634.00    1.52361   1.50456   49.694
 5635.00    1.51660   1.49777   50.021
 5636.00    1.51369   1.49160   50.386
 5637.00    1.50335   1.48674   50.611
 5638.00    1.50170   1.48365   50.567
 5639.00    1.50675   1.48211   50.587
 5640.00    1.50161   1.48134   50.731
 5641.00    1.49747   1.48140   50.666
 5642.00    1.50024   1.48267   50.433
 5643.00    1.50430   1.48495   50.250
 5644.00    1.51349   1.48799   50.091
 5645.00    1.51431   1.49141   49.785
 5646.00    1.51791   1.49432   49.670
 5647.00    1.52446   1.49613   49.558
 5648.00    1.52858   1.49689   49.556
 5649.00    1.52863   1.49695   49.652
 5650.00    1.52685   1.49703   49.502
 5651.00    1.52608   1.49698   49.164
 5652.00    1.52300   1.49589   49.168
 5653.00    1.51949   1.49253   49.453
 5654.00    1.51497   1.48584   49.894
 5655.00    1.50150   1.47571   50.541
 5656.00    1.48552   1.46296   51.757
 5657.00    1.45694   1.44958   53.156
 5658.00    1.43231   1.43940   53.387
 5659.00    1.44273   1.43531   52.346
 5660.00    1.46885   1.43720   51.498
 5661.00    1.48508   1.44348   51.480
 5662.00    1.48595   1.45185   51.355
 5663.00    1.48933   1.46090   50.667
 5664.00    1.50319   1.46994   50.115
 5665.00    1.51304   1.47742   50.120
 5666.00    1.51250   1.48215   50.437
 5667.00    1.50345   1.48452   50.657
 5668.00    1.49282   1.48571   50.632
 5669.00    1.49167   1.48735   50.419
 5670.00    1.49797   1.49060   50.037
 5671.00    1.51551   1.49549   49.569
 5672.00    1.52402   1.50102   49.073
 5673.00    1.52890   1.50617   48.768
 5674.00    1.53162   1.50995   48.876
 5675.00    1.53187   1.51224   48.939
 5676.00    1.52619   1.51326   48.781
 5677.00    1.53387   1.51287   48.826
 5678.00    1.53464   1.51045   49.088
 5679.00    1.52100   1.50547   49.310
 5680.00    1.51446   1.49783   49.710
 5681.00    1.51510   1.48837   50.322
 5682.00    1.50868   1.47903   50.753
 5683.00    1.50162   1.47180   50.681
 5684.00    1.49933   1.46797   50.377
 5685.00    1.49398   1.46683   50.321
 5686.00    1.49357   1.46662   50.724
 5687.00    1.49010   1.46675   51.206
 5688.00    1.48710   1.46795   51.073
 5689.00    1.49623   1.47166   50.308
 5690.00    1.51659   1.47846   49.506
 5691.00    1.52952   1.48726   49.136
 5692.00    1.53434   1.49610   48.909
 5693.00    1.53325   1.50327   48.891
 5694.00    1.53285   1.50785   48.955
 5695.00    1.53794   1.50940   49.025
 5696.00    1.53360   1.50817   49.294
 5697.00    1.52355   1.50428   49.844
 5698.00    1.51165   1.49819   50.381
 5699.00    1.49582   1.49106   50.845
 5700.00    1.48596   1.48424   51.295
 5701.00    1.48420   1.47911   51.284
 5702.00    1.48404   1.47618   50.793
 5703.00    1.48708   1.47501   50.394
 5704.00    1.49404   1.47363   50.470
 5705.00    1.49235   1.46990   50.980
 5706.00    1.47845   1.46289   51.816
 5707.00    1.46197   1.45307   52.749
 5708.00    1.44781   1.44225   53.375
 5709.00    1.44129   1.43386   53.486
 5710.00    1.43930   1.43103   53.176
 5711.00    1.44673   1.43511   52.399
 5712.00    1.47257   1.44586   51.194
 5713.00    1.50058   1.46089   50.079
 5714.00    1.51693   1.47666   49.564
 5715.00    1.52550   1.49010   49.460
 5716.00    1.53319   1.50053   49.336
 5717.00    1.52897   1.50841   49.146
 5718.00    1.52972   1.51482   48.869
 5719.00    1.53783   1.52073   48.577
 5720.00    1.54133   1.52651   48.398
 5721.00    1.53579   1.53165   48.305
 5722.00    1.54381   1.53534   48.239
 5723.00    1.54888   1.53687   48.243
 5724.00    1.54349   1.53592   48.477
 5725.00    1.53447   1.53244   48.951
 5726.00    1.52966   1.52752   49.432
 5727.00    1.52519   1.52292   49.581
 5728.00    1.52429   1.51990   49.241
 5729.00    1.52503   1.51885   49.100
 5730.00    1.52375   1.51904   49.317
 5731.00    1.53025   1.52011   49.423
 5732.00    1.54023   1.52218   49.088
 5733.00    1.55156   1.52539   48.644
 5734.00    1.55328   1.52921   48.479
 5735.00    1.54815   1.53257   48.559
 5736.00    1.54073   1.53474   48.645
 5737.00    1.54160   1.53559   48.764
 5738.00    1.54527   1.53553   48.812
 5739.00    1.53931   1.53498   48.916
 5740.00    1.53655   1.53420   48.997
 5741.00    1.53232   1.53325   49.033
 5742.00    1.53064   1.53265   48.918
 5743.00    1.53434   1.53265   48.770
 5744.00    1.53596   1.53318   48.411
 5745.00    1.54002   1.53348   48.348
 5746.00    1.53789   1.53304   48.740
 5747.00    1.53192   1.53192   49.138
 5748.00    1.53232   1.53051   49.125
 5749.00    1.53718   1.52872   48.841
 5750.00    1.54152   1.52545   48.898
 5751.00    1.53688   1.52014   49.408
 5752.00    1.52183   1.51388   49.989
 5753.00    1.50963   1.50895   50.298
 5754.00    1.51188   1.50821   50.015
 5755.00    1.52331   1.51244   49.217
 5756.00    1.53972   1.52022   48.398
 5757.00    1.55288   1.52812   48.113
 5758.00    1.55272   1.53305   48.464
 5759.00    1.54379   1.53320   49.072
 5760.00    1.53500   1.52915   49.732
 5761.00    1.52609   1.52300   50.264
 5762.00    1.51715   1.51852   50.191
 5763.00    1.52300   1.51843   49.453
 5764.00    1.53481   1.52342   48.642
 5765.00    1.54715   1.53150   48.233
 5766.00    1.56048   1.53963   48.156
 5767.00    1.56172   1.54557   48.100
 5768.00    1.55215   1.54833   48.078
 5769.00    1.55031   1.54809   48.216
 5770.00    1.55376   1.54564   48.418
 5771.00    1.54875   1.54188   48.709
 5772.00    1.53544   1.53758   48.950
 5773.00    1.52376   1.53373   49.032
 5774.00    1.52675   1.53093   49.032
 5775.00    1.52999   1.52928   48.863
 5776.00    1.53025   1.52813   48.675
 5777.00    1.51730   1.52571   48.720
 5778.00    1.49425   1.52025   49.084
 5779.00    1.47146   1.51171   49.992
 5780.00    1.45497   1.50145   50.991
 5781.00    1.45698   1.49202   51.339
 5782.00    1.46994   1.48554   51.146
 5783.00    1.48658   1.48307   50.950
 5784.00    1.50369   1.48425   50.768
 5785.00    1.50686   1.48825   50.446
 5786.00    1.51446   1.49459   49.810
 5787.00    1.53129   1.50191   49.240
 5788.00    1.53571   1.50830   49.040
 5789.00    1.53449   1.51275   49.189
 5790.00    1.53298   1.51554   49.319
 5791.00    1.52863   1.51818   49.099
 5792.00    1.53288   1.52196   48.690
 5793.00    1.53972   1.52707   48.381
 5794.00    1.53872   1.53259   48.181
 5795.00    1.53113   1.53716   48.284
 5796.00    1.52552   1.53964   48.608
 5797.00    1.52283   1.54038   48.727
 5798.00    1.52875   1.54125   48.308
 5799.00    1.54792   1.54328   47.645
 5800.00    1.56466   1.54620   47.180
 5801.00    1.56942   1.54881   47.295
 5802.00    1.57008   1.54978   47.723
 5803.00    1.56461   1.54835   48.093
 5804.00    1.54980   1.54520   48.427
 5805.00    1.54018   1.54209   48.511
 5806.00    1.54192   1.54042   48.348
 5807.00    1.54309   1.54067   48.176
 5808.00    1.54699   1.54235   48.086
 5809.00    1.55182   1.54486   48.080
 5810.00    1.55659   1.54732   47.980
 5811.00    1.56197   1.54870   47.801
 5812.00    1.56537   1.54832   47.749
 5813.00    1.57326   1.54630   47.971
 5814.00    1.56796   1.54315   48.334
 5815.00    1.56214   1.54015   48.371
 5816.00    1.56382   1.53905   48.054
 5817.00    1.56796   1.54087   47.744
 5818.00    1.57528   1.54476   47.499
 5819.00    1.57623   1.54919   47.293
 5820.00    1.57861   1.55293   47.224
 5821.00    1.58242   1.55548   47.353
 5822.00    1.57851   1.55687   47.438
 5823.00    1.57855   1.55753   47.334
 5824.00    1.58108   1.55785   47.263
 5825.00    1.58162   1.55829   47.187
 5826.00    1.58186   1.55901   47.167
 5827.00    1.58159   1.56000   47.213
 5828.00    1.58771   1.56087   47.249
 5829.00    1.58475   1.56139   47.174
 5830.00    1.57996   1.56137   47.172
 5831.00    1.58370   1.56066   47.154
 5832.00    1.58404   1.55931   47.344
 5833.00    1.58236   1.55757   47.595
 5834.00    1.58207   1.55610   47.564
 5835.00    1.57910   1.55553   47.411
 5836.00    1.58077   1.55614   47.413
 5837.00    1.58886   1.55741   47.573
 5838.00    1.58179   1.55887   47.582
 5839.00    1.57791   1.56027   47.336
 5840.00    1.57845   1.56150   47.007
 5841.00    1.57588   1.56221   46.864
 5842.00    1.58228   1.56198   46.948
 5843.00    1.58278   1.56061   47.125
 5844.00    1.57424   1.55805   47.356
 5845.00    1.57389   1.55444   47.658
 5846.00    1.57289   1.55047   47.885
 5847.00    1.56963   1.54696   48.020
 5848.00    1.57056   1.54414   47.986
 5849.00    1.56995   1.54113   48.150
 5850.00    1.56587   1.53702   48.451
 5851.00    1.55915   1.53109   48.818
 5852.00    1.55022   1.52362   49.230
 5853.00    1.54180   1.51522   49.385
 5854.00    1.53872   1.50651   49.449
 5855.00    1.53872   1.49773   49.661
 5856.00    1.53446   1.48894   -1.000
 5857.00    1.52634   1.48227   50.364
 5858.00    1.52655   1.48046   -1.000
 5859.00    1.53863   1.48397   -1.000
 5860.00    1.55430   1.49148   -1.000
 5861.00    1.56354   1.50064   -1.000
 5862.00    1.56097   1.50923   -1.000
 5863.00    1.56103   1.51591   -1.000
 5864.00    1.56200   1.51972   48.835
 5865.00    1.55086   1.52085   49.032
 5866.00    1.54625   1.52089   49.176
 5867.00    1.55435   1.52165   48.948
 5868.00    1.56713   1.52455   48.466
 5869.00    1.57734   1.52933   -1.000
 5870.00    1.58183   1.53451   -1.000
 5871.00    1.58391   1.53823   -1.000
 5872.00    1.57979   1.53960   48.171
 5873.00    1.58076   1.53868   48.136
 5874.00    1.57735   1.53628   48.134
 5875.00    1.57752   1.53313   48.321
 5876.00    1.57360   1.52973   48.484
 5877.00    1.56871   1.52608   48.651
 5878.00    1.56610   1.52202   49.042
 5879.00    1.56033   1.51745   49.235
 5880.00    1.54875   1.51248   49.160
 5881.00    1.54431   1.50701   49.060
 5882.00    1.54711   1.50067   -1.000
 5883.00    1.54548   1.49274   -1.000
 5884.00    1.53653   1.48175   -1.000
 5885.00    1.52742   1.46517   -1.000
 5886.00    1.48617   1.43942   -1.000
 5887.00    1.38221   1.40261   53.258
 5888.00    1.23396   1.35859   -1.000
 5889.00    1.13510   1.31656   -1.000
 5890.00    1.15958   1.28915   -1.000
 5891.00    1.28060   1.27903   57.338
 5892.00    1.38306   1.28133   -1.000
 5893.00    1.37031   1.28726   -1.000
 5894.00    1.27856   1.29090   56.182
 5895.00    1.20970   1.29291   -1.000
 5896.00    1.24455   1.29918   56.311
 5897.00    1.36350   1.31616   54.429
 5898.00    1.45905   1.34288   -1.000
 5899.00    1.49959   1.37528   -1.000
 5900.00    1.51941   1.40867   -1.000
 5901.00    1.53761   1.43855   -1.000
 5902.00    1.55173   1.46184   -1.000
 5903.00    1.55734   1.47834   -1.000
 5904.00    1.55873   1.48923   -1.000
 5905.00    1.55434   1.49638   -1.000
 5906.00    1.55625   1.50134   -1.000
 5907.00    1.56173   1.50528   -1.000
 5908.00    1.56530   1.50846   -1.000
 5909.00    1.56201   1.51068   -1.000
 5910.00    1.55455   1.51126   49.522
 5911.00    1.55372   1.50969   49.623
 5912.00    1.54710   1.50556   50.018
 5913.00    1.53210   1.49992   50.673
 5914.00    1.52633   1.49473   50.833
 5915.00    1.52372   1.49177   50.620
 5916.00    1.51804   1.49203   50.349
 5917.00    1.51922   1.49530   50.172
 5918.00    1.53013   1.50047   49.988
 5919.00    1.53993   1.50554   49.856
 5920.00    1.54514   1.50953   49.734
 5921.00    1.54518   1.51200   49.787
 5922.00    1.53734   1.51357   49.742
 5923.00    1.54149   1.51488   49.531
 5924.00    1.55230   1.51644   49.409
 5925.00    1.55437   1.51789   49.344
 5926.00    1.55676   1.51825   49.360
 5927.00    1.55381   1.51663   49.564
 5928.00    1.55341   1.51333   49.963
 5929.00    1.55007   1.50981   50.192
 5930.00    1.54616   1.50763   49.933
 5931.00    1.54884   1.50778   49.497
 5932.00    1.54937   1.50931   49.520
 5933.00    1.55210   1.51123   49.938
 5934.00    1.55247   1.51349   50.174
 5935.00    1.54762   1.51611   50.078
 5936.00    1.55044   1.51882   49.682
 5937.00    1.55848   1.52096   49.341
 5938.00    1.55198   1.52167   49.317
 5939.00    1.54249   1.52063   49.654
 5940.00    1.53520   1.51824   50.112
 5941.00    1.53330   1.51597   50.241
 5942.00    1.53350   1.51476   50.082
 5943.00    1.54178   1.51500   49.764
 5944.00    1.55150   1.51593   49.512
 5945.00    1.54882   1.51652   49.451
 5946.00    1.54946   1.51581   49.738
 5947.00    1.54489   1.51380   50.244
 5948.00    1.53914   1.51146   50.625
 5949.00    1.53902   1.50970   50.553
 5950.00    1.54372   1.50888   50.289
 5951.00    1.54089   1.50821   50.233
 5952.00    1.53638   1.50742   50.331
 5953.00    1.53719   1.50701   50.245
 5954.00    1.53793   1.50673   50.189
 5955.00    1.53507   1.50624   50.284
 5956.00    1.53381   1.50636   50.462
 5957.00    1.53443   1.50786   50.416
 5958.00    1.54265   1.51124   50.049
 5959.00    1.55496   1.51623   49.470
 5960.00    1.57199   1.52168   -1.000
 5961.00    1.57704   1.52636   -1.000
 5962.00    1.57480   1.52931   -1.000
 5963.00    1.56863   1.53018   49.210
 5964.00    1.56223   1.52934   49.458
 5965.00    1.55341   1.52782   49.615
 5966.00    1.55141   1.52676   49.690
 5967.00    1.55026   1.52693   49.442
 5968.00    1.55107   1.52829   49.136
 5969.00    1.56078   1.53063   49.089
 5970.00    1.56692   1.53313   49.047
 5971.00    1.56634   1.53464   48.947
 5972.00    1.56450   1.53431   49.021
 5973.00    1.56436   1.53161   49.368
 5974.00    1.56089   1.52674   49.764
 5975.00    1.54660   1.52080   50.131
 5976.00    1.53137   1.51555   50.437
 5977.00    1.52888   1.51279   50.480
 5978.00    1.54063   1.51290   50.129
 5979.00    1.55212   1.51504   49.775
 5980.00    1.55422   1.51718   49.729
 5981.00    1.55349   1.51741   49.985
 5982.00    1.54955   1.51488   50.433
 5983.00    1.53845   1.51073   50.803
 5984.00    1.53033   1.50722   50.871
 5985.00    1.53417   1.50617   50.514
 5986.00    1.54147   1.50808   50.038
 5987.00    1.54540   1.51194   49.817
 5988.00    1.54441   1.51657   49.631
 5989.00    1.54644   1.52071   49.497
 5990.00    1.54859   1.52413   49.626
 5991.00    1.54823   1.52712   49.604
 5992.00    1.55191   1.53041   49.256
 5993.00    1.55890   1.53350   48.934
 5994.00    1.56726   1.53508   49.006
 5995.00    1.56919   1.53481   49.395
 5996.00    1.56441   1.53276   49.684
 5997.00    1.55441   1.53007   49.847
 5998.00    1.54785   1.52752   49.868
 5999.00    1.54817   1.52559   49.811
 6000.00    1.55246   1.52398   49.971
 6001.00    1.54940   1.52216   50.244
 6002.00    1.54967   1.51993   50.322
 6003.00    1.54900   1.51754   50.243
 6004.00    1.54163   1.51505   50.159
 6005.00    1.53904   1.51186   50.336
 6006.00    1.52958   1.50789   50.787
 6007.00    1.52318   1.50461   51.118
 6008.00    1.52235   1.50353   50.835
 6009.00    1.52813   1.50541   50.220
 6010.00    1.53850   1.50907   49.917
 6011.00    1.54408   1.51226   50.131
 6012.00    1.54399   1.51412   50.502
 6013.00    1.54635   1.51425   50.555
 6014.00    1.54641   1.51332   50.343
 6015.00    1.54565   1.51183   50.457
 6016.00    1.54354   1.51003   50.652
 6017.00    1.54661   1.50803   50.648
 6018.00    1.54134   1.50557   50.601
 6019.00    1.53146   1.50264   50.855
 6020.00    1.52952   1.50000   50.997
 6021.00    1.53325   1.49895   50.687
 6022.00    1.53434   1.49979   50.424
 6023.00    1.53349   1.50248   50.358
 6024.00    1.54583   1.50734   50.204
 6025.00    1.55297   1.51397   -1.000
 6026.00    1.55294   1.52111   49.743
 6027.00    1.55316   1.52810   49.442
 6028.00    1.55685   1.53459   49.297
 6029.00    1.56181   1.54000   49.272
 6030.00    1.56276   1.54410   49.331
 6031.00    1.56441   1.54714   49.379
 6032.00    1.56646   1.54955   49.216
 6033.00    1.56917   1.55152   49.022
 6034.00    1.56718   1.55293   48.948
 6035.00    1.56697   1.55348   48.909
 6036.00    1.57059   1.55309   48.863
 6037.00    1.57075   1.55162   49.019
 6038.00    1.56529   1.54917   49.254
 6039.00    1.56345   1.54622   49.351
 6040.00    1.56001   1.54356   49.420
 6041.00    1.55409   1.54199   49.299
 6042.00    1.55780   1.54204   49.171
 6043.00    1.56339   1.54377   48.843
 6044.00    1.56532   1.54674   48.599
 6045.00    1.56802   1.55010   48.668
 6046.00    1.57456   1.55358   48.635
 6047.00    1.57536   1.55673   48.595
 6048.00    1.57156   1.55909   48.704
 6049.00    1.57051   1.56036   48.863
 6050.00    1.56919   1.56029   48.939
 6051.00    1.57109   1.55881   48.997
 6052.00    1.57229   1.55566   49.137
 6053.00    1.56732   1.55129   49.330
 6054.00    1.56337   1.54652   49.520
 6055.00    1.56108   1.54269   49.764
 6056.00    1.55587   1.54085   49.810
 6057.00    1.55623   1.54133   49.635
 6058.00    1.56173   1.54331   49.359
 6059.00    1.56480   1.54543   49.226
 6060.00    1.56427   1.54611   49.337
 6061.00    1.56137   1.54411   49.672
 6062.00    1.55177   1.53908   50.547
 6063.00    1.51642   1.53204   50.532
 6064.00    1.51668   1.52529   57.004
 6065.00    1.43788   1.52206   33.470
 6066.00    0.85236   1.52390   -1.000
 6067.00    0.46784   1.52988   -1.000
 6068.00    1.06335   1.53831   -1.000
 6069.00    1.45447   1.54685   -1.000
 6070.00    1.54806   1.55392   47.715
 6071.00    1.44773   1.55888   -1.000
 6072.00    0.92816   1.56184   -1.000
 6073.00    0.71653   1.56305   -1.000
 6074.00    1.55208   1.56246   48.919
 6075.00    1.58537   1.55998   49.132
 6076.00    1.56490   1.55575   49.405
 6077.00    1.56086   1.55010   49.727
 6078.00    1.55761   1.54422   50.094
 6079.00    1.55285   1.53926   50.286
 6080.00    1.53962   1.53522   50.294
 6081.00    1.53684   1.53204   50.383
 6082.00    1.53889   1.52982   50.482
 6083.00    1.53738   1.52855   50.449
 6084.00    1.54372   1.52839   50.405
 6085.00    1.54456   1.52949   50.315
 6086.00    1.54459   1.53157   50.138
 6087.00    1.55352   1.53359   50.044
 6088.00    1.55758   1.53463   50.250
 6089.00    1.54739   1.53453   50.538
 6090.00    1.54006   1.53386   50.650
 6091.00    1.53848   1.53369   50.490
 6092.00    1.54375   1.53469   50.167
 6093.00    1.54814   1.53716   49.915
 6094.00    1.55246   1.54062   49.652
 6095.00    1.55239   1.54423   49.531
 6096.00    1.55370   1.54696   49.610
 6097.00    1.55282   1.54747   49.707
 6098.00    1.55007   1.54456   49.718
 6099.00    1.54813   1.53707   49.940
 6100.00    1.53429   1.52525   50.830
 6101.00    1.51607   1.51155   51.977
 6102.00    1.50071   1.50037   52.307
 6103.00    1.50600   1.49620   51.588
 6104.00    1.52693   1.49952   50.637
 6105.00    1.54250   1.50839   50.118
 6106.00    1.54594   1.51968   50.132
 6107.00    1.53886   1.53055   50.326
 6108.00    1.53822   1.53948   50.385
 6109.00    1.54746   1.54567   50.319
 6110.00    1.54840   1.54945   50.161
 6111.00    1.54853   1.55175   50.009
 6112.00    1.54828   1.55330   49.924
 6113.00    1.54541   1.55448   49.685
 6114.00    1.54478   1.55508   49.700
 6115.00    1.54789   1.55459   49.971
 6116.00    1.54797   1.55256   50.214
 6117.00    1.54350   1.54816   50.322
 6118.00    1.53894   1.54033   50.769
 6119.00    1.52676   1.52887   51.522
 6120.00    1.50765   1.51484   52.111
 6121.00    1.49428   1.50159   52.423
 6122.00    1.49385   1.49300   52.088
 6123.00    1.50625   1.49109   51.232
 6124.00    1.52058   1.49566   50.840
 6125.00    1.52627   1.50411   50.996
 6126.00    1.52326   1.51380   51.181
 6127.00    1.51870   1.52275   51.061
 6128.00    1.52258   1.53062   50.835
 6129.00    1.53304   1.53765   50.366
 6130.00    1.54037   1.54344   50.027
 6131.00    1.54802   1.54687   50.033
 6132.00    1.54749   1.54595   50.284
 6133.00    1.53005   1.53853   51.041
 6134.00    1.50713   1.52411   52.392
 6135.00    1.47801   1.50504   53.889
 6136.00    1.45443   1.48645   54.771
 6137.00    1.45204   1.47395   54.240
 6138.00    1.46705   1.46925   52.690
 6139.00    1.49098   1.47140   51.540
 6140.00    1.50351   1.47932   51.298
 6141.00    1.50189   1.49096   51.436
 6142.00    1.50360   1.50433   51.285
 6143.00    1.51561   1.51706   50.674
 6144.00    1.52373   1.52693   50.264
 6145.00    1.53420   1.53290   50.353
 6146.00    1.53959   1.53469   50.641
 6147.00    1.52687   1.53312   50.986
 6148.00    1.51857   1.52980   51.332
 6149.00    1.51795   1.52637   51.513
 6150.00    1.51493   1.52420   51.418
 6151.00    1.52506   1.52378   51.149
 6152.00    1.53269   1.52404   50.888
 6153.00    1.53073   1.52363   51.042
 6154.00    1.53817   1.52193   51.455
 6155.00    1.53187   1.51882   51.611
 6156.00    1.52264   1.51393   51.697
 6157.00    1.51753   1.50616   52.058
 6158.00    1.51228   1.49399   52.807
 6159.00    1.49462   1.47636   54.078
 6160.00    1.46523   1.45474   55.751
 6161.00    1.43640   1.43347   56.949
 6162.00    1.42795   1.41826   56.866
 6163.00    1.43481   1.41258   55.627
 6164.00    1.45229   1.41583   54.298
 6165.00    1.46630   1.42460   -1.000
 6166.00    1.47637   1.43392   -1.000
 6167.00    1.47034   1.44024   54.100
 6168.00    1.45728   1.44319   54.800
 6169.00    1.44398   1.44590   54.966
 6170.00    1.45072   1.45102   54.220
 6171.00    1.47108   1.45933   53.229
 6172.00    1.48149   1.46997   52.822
 6173.00    1.48830   1.48101   52.941
 6174.00    1.50099   1.49076   52.905
 6175.00    1.50210   1.49832   52.771
 6176.00    1.49705   1.50401   52.659
 6177.00    1.50073   1.50845   52.466
 6178.00    1.50809   1.51216   52.222
 6179.00    1.50557   1.51561   52.050
 6180.00    1.50975   1.51905   51.856
 6181.00    1.51140   1.52226   51.648
 6182.00    1.51498   1.52447   51.619
 6183.00    1.51498   1.52481   51.775
 6184.00    1.51602   1.52288   52.050
 6185.00    1.51127   1.51854   52.549
 6186.00    1.50608   1.51208   53.126
 6187.00    1.50010   1.50403   53.652
 6188.00    1.48949   1.49479   54.112
 6189.00    1.47990   1.48509   54.613
 6190.00    1.46889   1.47690   55.227
 6191.00    1.45597   1.47327   55.162
 6192.00    1.46247   1.47544   54.162
 6193.00    1.48459   1.48237   52.932
 6194.00    1.50126   1.49196   52.332
 6195.00    1.50595   1.50139   52.148
 6196.00    1.50810   1.50840   52.248
 6197.00    1.50486   1.51182   52.733
 6198.00    1.49687   1.51215   53.300
 6199.00    1.48676   1.51125   53.524
 6200.00    1.47523   1.51131   53.237
 6201.00    1.47477   1.51342   52.603
 6202.00    1.49032   1.51769   52.133
 6203.00    1.50458   1.52324   52.100
 6204.00    1.51055   1.52885   52.075
 6205.00    1.51613   1.53344   52.008
 6206.00    1.52052   1.53641   52.097
 6207.00    1.52416   1.53733   52.239
 6208.00    1.52148   1.53579   52.299
 6209.00    1.51152   1.53139   52.657
 6210.00    1.50341   1.52395   53.135
 6211.00    1.49573   1.51394   53.579
 6212.00    1.48717   1.50276   54.232
 6213.00    1.47784   1.49229   54.982
 6214.00    1.47107   1.48407   55.342
 6215.00    1.47054   1.47863   55.112
 6216.00    1.47353   1.47554   54.482
 6217.00    1.48076   1.47390   54.543
 6218.00    1.48393   1.47342   54.780
 6219.00    1.47311   1.47430   54.423
 6220.00    1.47235   1.47684   54.297
 6221.00    1.48577   1.48059   56.094
 6222.00    1.49916   1.48463   58.312
 6223.00    1.44833   1.48821   55.405
 6224.00    1.32070   1.49033   -1.000
 6225.00    1.40283   1.49026   -1.000
 6226.00    1.51972   1.48724   54.072
 6227.00    1.49698   1.48076   54.577
 6228.00    1.48775   1.47140   55.427
 6229.00    1.46812   1.46128   56.278
 6230.00    1.45272   1.45356   56.601
 6231.00    1.45015   1.45086   56.045
 6232.00    1.46163   1.45389   55.097
 6233.00    1.48026   1.46111   54.091
 6234.00    1.49801   1.46943   53.472
 6235.00    1.50544   1.47596   53.517
 6236.00    1.49650   1.47894   53.999
 6237.00    1.48532   1.47844   54.558
 6238.00    1.47822   1.47547   55.122
 6239.00    1.47006   1.47124   55.576
 6240.00    1.46852   1.46648   55.672
 6241.00    1.46434   1.46125   55.797
 6242.00    1.45608   1.45554   56.238
 6243.00    1.45093   1.44992   56.440
 6244.00    1.44856   1.44564   56.241
 6245.00    1.45742   1.44432   55.779
 6246.00    1.47319   1.44709   55.149
 6247.00    1.48040   1.45333   54.482
 6248.00    1.48593   1.46067   54.125
 6249.00    1.49389   1.46578   54.331
 6250.00    1.48343   1.46641   55.075
 6251.00    1.46122   1.46217   56.011
 6252.00    1.45033   1.45492   56.542
 6253.00    1.44378   1.44723   56.818
 6254.00    1.44180   1.44104   56.888
 6255.00    1.43626   1.43724   57.057
 6256.00    1.42619   1.43585   57.628
 6257.00    1.42201   1.43701   57.840
 6258.00    1.42865   1.44085   57.282
 6259.00    1.44160   1.44746   56.371
 6260.00    1.46516   1.45633   55.564
 6261.00    1.47842   1.46630   54.775
 6262.00    1.48253   1.47571   54.135
 6263.00    1.48020   1.48331   54.187
 6264.00    1.48189   1.48884   54.649
 6265.00    1.48395   1.49272   54.764
 6266.00    1.47527   1.49545   54.406
 6267.00    1.47798   1.49707   54.227
 6268.00    1.48322   1.49758   54.506
 6269.00    1.47771   1.49735   54.649
 6270.00    1.48081   1.49673   54.501
 6271.00    1.48941   1.49558   54.330
 6272.00    1.48656   1.49308   54.312
 6273.00    1.48317   1.48810   54.575
 6274.00    1.47386   1.48033   55.009
 6275.00    1.45430   1.47029   55.621
 6276.00    1.43301   1.45954   56.753
 6277.00    1.40906   1.44999   58.082
 6278.00    1.39541   1.44329   58.827
 6279.00    1.38308   1.44092   58.913
 6280.00    1.37632   1.44352   58.371
 6281.00    1.38262   1.45059   57.362
 6282.00    1.39207   1.46082   56.412
 6283.00    1.39932   1.47222   55.624
 6284.00    1.41277   1.48295   55.051
 6285.00    1.43416   1.49167   54.594
 6286.00    1.45595   1.49772   54.134
 6287.00    1.46979   1.50087   53.871
 6288.00    1.48254   1.50125   53.936
 6289.00    1.48526   1.49959   54.321
 6290.00    1.48303   1.49689   54.773
 6291.00    1.47526   1.49395   55.060
 6292.00    1.46689   1.49117   55.123
 6293.00    1.46614   1.48842   55.197
 6294.00    1.46511   1.48510   55.424
 6295.00    1.45370   1.48073   55.859
 6296.00    1.43724   1.47556   56.110
 6297.00    1.42523   1.47035   56.107
 6298.00    1.41474   1.46574   55.953
 6299.00    1.40621   1.46219   55.700
 6300.00    1.41106   1.46034   55.726
 6301.00    1.41723   1.46130   56.326
 6302.00    1.43565   1.46587   56.550
 6303.00    1.46319   1.47354   55.819
 6304.00    1.47973   1.48290   54.987
 6305.00    1.47795   1.49223   54.410
 6306.00    1.48386   1.49998   53.949
 6307.00    1.49455   1.50531   53.606
 6308.00    1.49631   1.50816   53.677
 6309.00    1.48574   1.50883   53.986
 6310.00    1.48600   1.50766   54.302
 6311.00    1.48416   1.50493   54.501
 6312.00    1.48328   1.50069   54.663
 6313.00    1.47285   1.49530   54.871
 6314.00    1.46866   1.48945   55.303
 6315.00    1.46289   1.48397   55.380
 6316.00    1.45522   1.47989   55.321
 6317.00    1.45418   1.47825   55.318
 6318.00    1.46170   1.47985   55.299
 6319.00    1.47089   1.48453   54.893
 6320.00    1.47303   1.49122   54.241
 6321.00    1.47757   1.49883   53.848
 6322.00    1.48356   1.50665   53.675
 6323.00    1.49325   1.51384   53.452
 6324.00    1.49865   1.51970   53.200
 6325.00    1.49848   1.52390   53.096
 6326.00    1.49929   1.52644   52.986
 6327.00    1.50286   1.52773   52.819
 6328.00    1.50397   1.52824   52.893
 6329.00    1.49469   1.52828   52.926
 6330.00    1.49368   1.52779   52.876
 6331.00    1.50173   1.52613   52.704
 6332.00    1.50940   1.52234   52.715
 6333.00    1.50064   1.51617   52.872
 6334.00    1.48301   1.50859   53.416
 6335.00    1.45461   1.50180   54.334
 6336.00    1.43266   1.49799   54.135
 6337.00    1.46664   1.49816   53.609
 6338.00    1.49091   1.50205   53.042
 6339.00    1.49475   1.50818   52.577
 6340.00    1.49998   1.51434   52.346
 6341.00    1.50557   1.51869   52.198
 6342.00    1.49947   1.52056   52.427
 6343.00    1.49379   1.52049   52.783
 6344.00    1.49435   1.51995   52.739
 6345.00    1.50020   1.52048   52.527
 6346.00    1.50228   1.52309   52.201
 6347.00    1.50400   1.52777   51.892
 6348.00    1.50824   1.53341   51.788
 6349.00    1.51262   1.53848   51.766
 6350.00    1.51546   1.54162   51.702
 6351.00    1.51316   1.54205   51.831
 6352.00    1.50272   1.53975   52.072
 6353.00    1.49365   1.53547   52.447
 6354.00    1.49054   1.53026   53.025
 6355.00    1.48810   1.52489   53.304
 6356.00    1.47907   1.51959   53.346
 6357.00    1.47590   1.51452   53.687
 6358.00    1.47040   1.50985   54.190
 6359.00    1.46547   1.50562   54.218
 6360.00    1.47159   1.50201   53.987
 6361.00    1.47406   1.49953   53.866
 6362.00    1.46747   1.49870   53.773
 6363.00    1.46211   1.49989   53.511
 6364.00    1.47454   1.50297   53.150
 6365.00    1.48899   1.50746   52.834
 6366.00    1.49208   1.51248   52.534
 6367.00    1.49691   1.51703   52.188
 6368.00    1.50418   1.52056   51.920
 6369.00    1.50281   1.52324   51.867
 6370.00    1.50009   1.52568   51.834
 6371.00    1.49992   1.52836   51.631
 6372.00    1.50092   1.53121   51.554
 6373.00    1.50254   1.53365   51.680
 6374.00    1.49931   1.53498   51.738
 6375.00    1.49180   1.53473   51.886
 6376.00    1.49004   1.53293   52.111
 6377.00    1.48859   1.53005   52.416
 6378.00    1.48173   1.52669   52.721
 6379.00    1.48333   1.52344   52.847
 6380.00    1.48247   1.52075   52.897
 6381.00    1.47293   1.51897   52.962
 6382.00    1.47015   1.51834   52.890
 6383.00    1.47487   1.51900   52.886
 6384.00    1.47395   1.52078   53.115
 6385.00    1.46618   1.52313   53.162
 6386.00    1.46003   1.52525   53.184
 6387.00    1.45508   1.52639   53.365
 6388.00    1.45366   1.52597   53.638
 6389.00    1.45002   1.52353   54.094
 6390.00    1.43964   1.51897   54.588
 6391.00    1.42427   1.51321   -1.000
 6392.00    1.41020   1.50798   -1.000
 6393.00    1.39851   1.50509   -1.000
 6394.00    1.39562   1.50514   -1.000
 6395.00    1.40550   1.50700   -1.000
 6396.00    1.40762   1.50854   -1.000
 6397.00    1.40381   1.50806   -1.000
 6398.00    1.38689   1.50573   -1.000
 6399.00    1.36244   1.50352   -1.000
 6400.00    1.35092   1.50371   -1.000
 6401.00    1.35954   1.50733   -1.000
 6402.00    1.37638   1.51348   -1.000
 6403.00    1.38056   1.51995   -1.000
 6404.00    1.37650   1.52435   -1.000
 6405.00    1.36552   1.52550   -1.000
 6406.00    1.35079   1.52389   -1.000
 6407.00    1.33659   1.52105   -1.000
 6408.00    1.33354   1.51825   -1.000
 6409.00    1.32773   1.51610   -1.000
 6410.00    1.31217   1.51500   -1.000
 6411.00    1.29397   1.51519   -1.000
 6412.00    1.28142   1.51652   -1.000
 6413.00    1.28028   1.51856   -1.000
 6414.00    1.28287   1.52072   -1.000
 6415.00    1.28138   1.52225   -1.000
 6416.00    1.27731   1.52228   -1.000
 6417.00    1.26740   1.52035   -1.000
 6418.00    1.25030   1.51688   -1.000
 6419.00    1.22947   1.51334   -1.000
 6420.00    1.21130   1.51187   -1.000
 6421.00    1.20243   1.51405   -1.000
 6422.00    1.19646   1.51981   -1.000
 6423.00    1.19851   1.52787   -1.000
 6424.00    1.20542   1.53622   -1.000
 6425.00    1.19762   1.54271   -1.000
 6426.00    1.18106   1.54564   -1.000
 6427.00    1.16761   1.54414   -1.000
 6428.00    1.15770   1.53867   -1.000
