###################################################################
## OUTPUT of StarlightChains_v04.for    [Cid@UFSC - 01/Apr/2007] ##
###################################################################

## Some input info
NGC6352_a_1.cxt                          [arq_obs]
Base.BC03.N                              [arq_base]
NGC6352_a_1.msk                          [arq_masks]
StCv04.C11.config                        [arq_config]
   45                                    [N_base]
    0                                    [N_YAV_components = # of components with extra extinction!]
    0                                    [i_FitPowerLaw (1/0 = Yes/No)]
-9.99                                    [alpha_PowerLaw]
CCM                                      [red_law_option]
 1.458241                                [q_norm = A(l_norm)/A(V)]

## (Re)Sampling Parameters
 3359.00                                 [l_ini (A)]
 6428.00                                 [l_fin (A)]
    1.00                                 [dl    (A)]     (OBS: dl_cushion =    50.00 A)

## Normalization info
 4020.00                                 [l_norm (A) - for base]
 4010.00                                 [llow_norm (A) - window for f_obs]
 4060.00                                 [lupp_norm (A) - window for f_obs]
4.889122E-15                             [fobs_norm (in input units)]

## S/N
 4730.00                                 [llow_SN (A) - window for S/N]
 4780.00                                 [lupp_SN (A) - window for S/N]
  33.884                                 [S/N in S/N window]
  22.882                                 [S/N in norm. window]
 274.330                                 [S/N_err in S/N window]
 185.259                                 [S/N_err in norm. window]
  1.0000                                 [fscale_chi2]

## etc...
  2147483613                             [idum_orig]
  3060                                   [NOl_eff]
   617                                   [Nl_eff]
  2443    NSIGMA                         [Ntot_cliped & clip_method]
   945560                                [Nglobal_steps]
   7                                     [N_chains]
  11                                     [NEX0s_base = N_base in EX0s-fits]
 0   0   1      257   2.0   3.884E+02    [Clip-Bug, RC-Crash & Burn-In warning-flags, n_censored_weights, wei_nsig_threshold & wei_limit]
    10      9.832      9.828      0.004  [idt_all, wdt_TotTime, wdt_UsrTime & wdt_SysTime (sec)]

## Synthesis Results - Best model ##

 2.80320E+00                             [chi2/Nl_eff]
     1.18183                             [adev (%)]

   100.49915                             [sum-of-x (%)]
 1.11524E-14                             [Flux_tot (units of input spectrum!)]
 4.07574E-10                             [Mini_tot (???)]
 2.09804E-10                             [Mcor_tot (???)]

  16.11                                  [v0_min  (km/s)]
  59.65                                  [vd_min  (km/s)]
 0.6103                                  [AV_min  (mag)]
 0.0000                                  [YAV_min (mag)]

# j     x_j(%)      Mini_j(%)     Mcor_j(%)     age_j(yr)     Z_j      (L/M)_j    YAV?  Mstars   component_j        a/Fe...       SSP_chi2r SSP_adev(%)   SSP_AV   SSP_x(%)
  1      0.9603     2.3471E-03    4.5595E-03    1.000000E+06  0.00400  1.114E-02    0   1.0000   age020_m42            0.0000     2.1291E+03    26.5206   4.0000    93.8931
  2      1.4466     9.6700E-04    1.8783E-03    3.160000E+06  0.00400  4.073E-02    0   0.9999   age045_m42            0.0000     6.6991E+02    12.8706   3.7081    93.1048
  3      3.7146     3.9911E-03    7.3564E-03    5.010000E+06  0.00400  2.534E-02    0   0.9488   age055_m42            0.0000     8.7686E+02    16.3630   4.0000    89.8531
  4      0.0000     0.0000E+00    0.0000E+00    1.000000E+07  0.00400  1.271E-02    0   0.8862   age070_m42            0.0000     9.0436E+02    16.0287   3.2993    91.7421
  5      0.0000     0.0000E+00    0.0000E+00    2.512000E+07  0.00400  5.070E-03    0   0.8174   age090_m42            0.0000     8.1887E+02    15.3114   3.1687    93.4314
  6      0.0000     0.0000E+00    0.0000E+00    4.000000E+07  0.00400  3.505E-03    0   0.7851   age104_m42            0.0000     6.3731E+02    13.2278   2.8708    95.9459
  7      0.0000     0.0000E+00    0.0000E+00    1.015200E+08  0.00400  2.268E-03    0   0.7207   age116_m42            0.0000     8.9306E+02    11.8273   2.9727   101.6823
  8      0.0000     0.0000E+00    0.0000E+00    2.861200E+08  0.00400  1.079E-03    0   0.6613   age125_m42            0.0000     8.7637E+02    11.5470   2.4766   103.9783
  9      0.0000     0.0000E+00    0.0000E+00    6.405400E+08  0.00400  5.077E-04    0   0.6197   age132_m42            0.0000     8.8023E+02    11.7949   2.1190   107.8733
 10      0.0000     0.0000E+00    0.0000E+00    9.047900E+08  0.00400  3.535E-04    0   0.6024   age135_m42            0.0000     6.4295E+02     9.9965   1.8700   107.4385
 11      0.0000     0.0000E+00    0.0000E+00    1.434000E+09  0.00400  1.910E-04    0   0.5716   age139_m42            0.0000     3.0481E+02     6.7089   1.3384   106.3885
 12      4.4671     1.2388E+00    1.3147E+00    2.500000E+09  0.00400  9.818E-05    0   0.5463   age150_m42            0.0000     9.1261E+01     3.5772   1.0337   102.6903
 13     14.4975     8.3663E+00    8.4969E+00    5.000000E+09  0.00400  4.718E-05    0   0.5228   age161_m42            0.0000     2.9778E+01     2.3393   0.8477   100.0410
 14     35.7706     4.4169E+01    4.2730E+01    1.100000E+10  0.00400  2.205E-05    0   0.4980   age185_m42            0.0000     1.3642E+01     1.7737   0.5783    98.2130
 15      1.9757     2.8568E+00    2.7343E+00    1.300000E+10  0.00400  1.883E-05    0   0.4927   age193_m42            0.0000     1.6933E+01     1.9547   0.5586    98.1703
 16      0.0000     0.0000E+00    0.0000E+00    1.000000E+06  0.02000  1.989E-02    0   1.0000   age020_m62            0.0000     1.9947E+03    25.4411   4.0000    94.1212
 17      0.0000     0.0000E+00    0.0000E+00    3.160000E+06  0.02000  3.772E-02    0   0.9858   age045_m62            0.0000     1.6030E+03    23.0736   4.0000    93.6265
 18      0.0000     0.0000E+00    0.0000E+00    5.010000E+06  0.02000  3.227E-02    0   0.9342   age055_m62            0.0000     8.2834E+02    15.0191   3.9521    90.3139
 19      0.0000     0.0000E+00    0.0000E+00    1.000000E+07  0.02000  1.011E-02    0   0.8751   age070_m62            0.0000     1.3819E+03    20.5402   3.2468    90.1743
 20      0.0000     0.0000E+00    0.0000E+00    2.512000E+07  0.02000  4.206E-03    0   0.8099   age090_m62            0.0000     1.0664E+03    18.2202   3.1906    90.7563
 21      0.0000     0.0000E+00    0.0000E+00    4.000000E+07  0.02000  3.373E-03    0   0.7799   age104_m62            0.0000     7.3767E+02    13.4580   3.0806    97.2100
 22      0.0000     0.0000E+00    0.0000E+00    1.015200E+08  0.02000  1.878E-03    0   0.7221   age116_m62            0.0000     9.0201E+02    11.9446   2.9741   102.8284
 23      0.0000     0.0000E+00    0.0000E+00    2.861200E+08  0.02000  8.869E-04    0   0.6700   age125_m62            0.0000     1.2007E+03    13.5498   2.4930   108.6974
 24      0.0000     0.0000E+00    0.0000E+00    6.405400E+08  0.02000  3.657E-04    0   0.6322   age132_m62            0.0000     7.6812E+02    10.4397   1.8161   111.8289
 25      0.0000     0.0000E+00    0.0000E+00    9.047900E+08  0.02000  2.312E-04    0   0.6152   age135_m62            0.0000     4.4544E+02     7.8012   1.4338   111.0996
 26      0.0000     0.0000E+00    0.0000E+00    1.434000E+09  0.02000  1.168E-04    0   0.5865   age139_m62            0.0000     1.3053E+02     4.2173   0.9798   106.5537
 27      0.0000     0.0000E+00    0.0000E+00    2.500000E+09  0.02000  5.505E-05    0   0.5610   age150_m62            0.0000     3.9683E+01     2.6643   0.5903   104.2086
 28     25.0807     2.6305E+01    2.7354E+01    5.000000E+09  0.02000  2.596E-05    0   0.5353   age161_m62            0.0000     8.4247E+01     4.2374   0.2573   104.2998
 29      5.4419     1.2674E+01    1.2565E+01    1.100000E+10  0.02000  1.169E-05    0   0.5103   age185_m62            0.0000     2.2451E+02     6.7727  -0.1069   105.8010
 30      0.0000     0.0000E+00    0.0000E+00    1.300000E+10  0.02000  9.691E-06    0   0.5047   age193_m62            0.0000     2.5747E+02     7.2110  -0.1533   106.0768
 31      0.0000     0.0000E+00    0.0000E+00    1.000000E+06  0.05000  2.651E-02    0   0.9998   age020_m72            0.0000     1.9534E+03    25.0712   4.0000    95.1272
 32      0.0000     0.0000E+00    0.0000E+00    3.160000E+06  0.05000  4.817E-02    0   0.9577   age045_m72            0.0000     1.2138E+03    19.8993   4.0000    93.8297
 33      0.0000     0.0000E+00    0.0000E+00    5.010000E+06  0.05000  3.101E-02    0   0.9147   age055_m72            0.0000     9.3502E+02    16.6399   3.9260    89.7744
 34      0.0000     0.0000E+00    0.0000E+00    1.000000E+07  0.05000  8.954E-03    0   0.8524   age070_m72            0.0000     9.3043E+02    17.3701   4.0000    92.4601
 35      0.0000     0.0000E+00    0.0000E+00    2.512000E+07  0.05000  4.207E-03    0   0.7902   age090_m72            0.0000     6.9272E+02    13.6398   3.7524    93.4137
 36      0.0000     0.0000E+00    0.0000E+00    4.000000E+07  0.05000  3.198E-03    0   0.7618   age104_m72            0.0000     7.4589E+02    11.3743   3.3126    99.4331
 37      0.0000     0.0000E+00    0.0000E+00    1.015200E+08  0.05000  1.716E-03    0   0.7092   age116_m72            0.0000     9.7391E+02    12.2918   3.0605   102.8925
 38      0.0000     0.0000E+00    0.0000E+00    2.861200E+08  0.05000  7.047E-04    0   0.6618   age125_m72            0.0000     1.0855E+03    12.5191   2.2889   108.9923
 39      0.0000     0.0000E+00    0.0000E+00    6.405400E+08  0.05000  2.633E-04    0   0.6253   age132_m72            0.0000     5.3144E+02     8.3336   1.4411   111.1522
 40      0.0000     0.0000E+00    0.0000E+00    9.047900E+08  0.05000  1.484E-04    0   0.6088   age135_m72            0.0000     1.8389E+02     5.0700   0.9350   106.9042
 41      2.1034     7.3170E-01    8.3111E-01    1.434000E+09  0.05000  7.827E-05    0   0.5847   age139_m72            0.0000     7.8446E+01     3.7933   0.5216   104.1214
 42      5.0408     3.6511E+00    3.9599E+00    2.500000E+09  0.05000  3.759E-05    0   0.5583   age150_m72            0.0000     1.0666E+02     4.8204   0.1833   103.8654
 43      0.0000     0.0000E+00    0.0000E+00    5.000000E+09  0.05000  1.548E-05    0   0.5320   age161_m72            0.0000     2.3988E+02     6.6999  -0.2411   103.9096
 44      0.0000     0.0000E+00    0.0000E+00    1.100000E+10  0.05000  6.532E-06    0   0.5070   age185_m72            0.0000     4.9975E+02     9.3866  -0.6118   103.5957
 45      0.0000     0.0000E+00    0.0000E+00    1.300000E+10  0.05000  5.316E-06    0   0.5018   age193_m72            0.0000     6.2393E+02    10.4803  -0.7261   103.5945


## Synthesis Results - Average & Chains ##

# j      x_j: min, <> & last-chain-values for 1 ...  7 chains
  1      0.9603      0.7506      0.9060      0.7094      0.7989      0.8005      0.7092      0.7809      0.7580
  2      1.4466      1.1145      1.0837      1.1380      1.1102      1.0667      1.0407      1.1174      1.1702
  3      3.7146      3.7173      3.3505      3.7240      3.8072      3.7527      3.8395      3.8837      3.5995
  4      0.0000      0.4791      0.6007      0.4664      0.3599      0.3967      0.4680      0.4845      0.5908
  5      0.0000      0.0203      0.0053      0.0000      0.0174      0.0000      0.0059      0.0006      0.0000
  6      0.0000      0.0087      0.0650      0.0000      0.0000      0.0000      0.0034      0.0000      0.0000
  7      0.0000      0.0214      0.1163      0.0000      0.0512      0.0000      0.0000      0.0944      0.1028
  8      0.0000      0.0205      0.0000      0.0549      0.0000      0.0000      0.0000      0.0000      0.0000
  9      0.0000      0.0310      0.0443      0.1661      0.0037      0.1939      0.0720      0.0000      0.0000
 10      0.0000      0.0529      0.2651      0.0206      0.0000      0.0000      0.0000      0.0000      0.0000
 11      0.0000      0.0590      0.0000      0.0000      0.4012      0.1058      0.1517      0.0000      0.1505
 12      4.4671      3.2777      3.2537      3.4664      3.5019      3.2139      3.2097      3.3060      3.5267
 13     14.4975     14.0248     14.4143     13.6834     14.4270     14.9904     13.6448     14.1699     14.2059
 14     35.7706     36.2482     35.5566     36.8917     36.7512     36.6037     36.2754     36.4923     36.5084
 15      1.9757      1.2772      2.0409      2.0615      0.9748      0.9201      1.5569      1.3211      1.1661
 16      0.0000      0.0204      0.0000      0.0000      0.0000      0.0000      0.1244      0.0000      0.0000
 17      0.0000      0.0205      0.0362      0.0000      0.0000      0.0000      0.0000      0.0016      0.0000
 18      0.0000      0.0195      0.0000      0.0000      0.0587      0.0000      0.1260      0.0000      0.0000
 19      0.0000      0.0270      0.0266      0.0000      0.0000      0.0000      0.0000      0.0000      0.0000
 20      0.0000      0.0396      0.1573      0.0000      0.0000      0.0414      0.0188      0.0000      0.0000
 21      0.0000      0.0269      0.0000      0.0000      0.0000      0.0787      0.0146      0.0000      0.0000
 22      0.0000      0.0184      0.0130      0.0000      0.0000      0.0249      0.0000      0.0000      0.0000
 23      0.0000      0.0162      0.0226      0.0000      0.0000      0.0000      0.0198      0.0000      0.0000
 24      0.0000      0.0283      0.0000      0.0000      0.0000      0.0000      0.0243      0.0000      0.0284
 25      0.0000      0.0330      0.0000      0.0000      0.0000      0.0000      0.0069      0.0722      0.0000
 26      0.0000      0.0937      0.1888      0.0972      0.1021      0.1120      0.2002      0.0803      0.0000
 27      0.0000      0.2475      0.0000      0.4857      0.2947      0.1634      0.0000      0.4017      0.0000
 28     25.0807     25.1598     24.9696     26.0740     24.6144     24.9977     25.5071     25.0676     25.3274
 29      5.4419      6.4069      6.0838      5.6369      6.1851      6.5417      6.2259      6.3958      6.3831
 30      0.0000      0.0833      0.0000      0.0000      0.3465      0.0000      0.0000      0.0000      0.0000
 31      0.0000      0.0102      0.0000      0.0107      0.0000      0.0000      0.0000      0.0000      0.1479
 32      0.0000      0.0158      0.0000      0.1133      0.0000      0.0000      0.0000      0.0000      0.0000
 33      0.0000      0.0333      0.0000      0.0000      0.0012      0.1112      0.0185      0.0000      0.0000
 34      0.0000      0.0130      0.0000      0.0000      0.0627      0.0000      0.0000      0.0000      0.0000
 35      0.0000      0.0078      0.0000      0.0000      0.0000      0.0000      0.0000      0.0000      0.0000
 36      0.0000      0.0221      0.0591      0.0000      0.0000      0.0000      0.0078      0.0000      0.0289
 37      0.0000      0.0231      0.0000      0.0000      0.0000      0.0000      0.0528      0.0000      0.0000
 38      0.0000      0.0155      0.0000      0.0000      0.0000      0.0000      0.0059      0.0857      0.0342
 39      0.0000      0.0533      0.0000      0.2122      0.0000      0.0000      0.1437      0.0106      0.0030
 40      0.0000      0.1060      0.0000      0.0047      0.0000      0.0000      0.0993      0.2181      0.0000
 41      2.1034      2.7183      2.5975      1.3880      2.3935      1.9576      2.7483      2.4530      2.5263
 42      5.0408      4.0465      4.3728      3.8271      4.1090      4.2553      4.0333      4.1206      4.1578
 43      0.0000      0.0889      0.1776      0.1444      0.1087      0.1980      0.2269      0.0000      0.0249
 44      0.0000      0.0279      0.1132      0.0000      0.0283      0.0000      0.0000      0.0284      0.0796
 45      0.0000      0.0905      0.0588      0.1636      0.0669      0.0435      0.0000      0.0000      0.0607

# j      m_j: min, <> & last-chain-values for 1 ...  7 chains
  1  4.5595E-03  3.4963E-03  4.2328E-03  3.2897E-03  3.7221E-03  3.7279E-03  3.3197E-03  3.6547E-03  3.5306E-03
  2  1.8783E-03  1.4198E-03  1.3846E-03  1.4431E-03  1.4147E-03  1.3585E-03  1.3322E-03  1.4302E-03  1.4906E-03
  3  7.3564E-03  7.2228E-03  6.5294E-03  7.2027E-03  7.3989E-03  7.2894E-03  7.4963E-03  7.5817E-03  6.9933E-03
  4  0.0000E+00  1.7334E-03  2.1797E-03  1.6799E-03  1.3026E-03  1.4348E-03  1.7017E-03  1.7612E-03  2.1373E-03
  5  0.0000E+00  1.6945E-04  4.4495E-05  0.0000E+00  1.4566E-04  0.0000E+00  4.9464E-05  5.0228E-06  0.0000E+00
  6  0.0000E+00  1.0055E-04  7.5778E-04  0.0000E+00  0.0000E+00  0.0000E+00  3.9361E-05  0.0000E+00  0.0000E+00
  7  0.0000E+00  3.5284E-04  1.9236E-03  0.0000E+00  8.4429E-04  0.0000E+00  0.0000E+00  1.5639E-03  1.6952E-03
  8  0.0000E+00  6.5299E-04  0.0000E+00  1.7393E-03  0.0000E+00  0.0000E+00  0.0000E+00  0.0000E+00  0.0000E+00
  9  0.0000E+00  1.9641E-03  2.8121E-03  1.0472E-02  2.3473E-04  1.2275E-02  4.5847E-03  0.0000E+00  0.0000E+00
 10  0.0000E+00  4.6788E-03  2.3509E-02  1.8143E-03  0.0000E+00  0.0000E+00  0.0000E+00  0.0000E+00  0.0000E+00
 11  0.0000E+00  9.1558E-03  0.0000E+00  0.0000E+00  6.2317E-02  1.6430E-02  2.3678E-02  0.0000E+00  2.3372E-02
 12  1.3147E+00  9.4640E-01  9.4228E-01  9.9635E-01  1.0114E+00  9.2773E-01  9.3128E-01  9.5912E-01  1.0182E+00
 13  8.4969E+00  8.0645E+00  8.3130E+00  7.8323E+00  8.2976E+00  8.6173E+00  7.8841E+00  8.1866E+00  8.1679E+00
 14  4.2730E+01  4.2482E+01  4.1795E+01  4.3040E+01  4.3081E+01  4.2887E+01  4.2721E+01  4.2971E+01  4.2784E+01
 15  2.7343E+00  1.7342E+00  2.7793E+00  2.7864E+00  1.3239E+00  1.2489E+00  2.1242E+00  1.8023E+00  1.5832E+00
 16  0.0000E+00  5.3118E-05  0.0000E+00  0.0000E+00  0.0000E+00  0.0000E+00  3.2625E-04  0.0000E+00  0.0000E+00
 17  0.0000E+00  2.7759E-05  4.9283E-05  0.0000E+00  0.0000E+00  0.0000E+00  0.0000E+00  2.2285E-06  0.0000E+00
 18  0.0000E+00  2.9327E-05  0.0000E+00  0.0000E+00  8.8133E-05  0.0000E+00  1.9015E-04  0.0000E+00  0.0000E+00
 19  0.0000E+00  1.2135E-04  1.1972E-04  0.0000E+00  0.0000E+00  0.0000E+00  0.0000E+00  0.0000E+00  0.0000E+00
 20  0.0000E+00  3.9549E-04  1.5759E-03  0.0000E+00  0.0000E+00  4.1328E-04  1.8919E-04  0.0000E+00  0.0000E+00
 21  0.0000E+00  3.2258E-04  0.0000E+00  0.0000E+00  0.0000E+00  9.4419E-04  1.7549E-04  0.0000E+00  0.0000E+00
 22  0.0000E+00  3.6758E-04  2.6062E-04  0.0000E+00  0.0000E+00  4.9738E-04  0.0000E+00  0.0000E+00  0.0000E+00
 23  0.0000E+00  6.3600E-04  8.8680E-04  0.0000E+00  0.0000E+00  0.0000E+00  7.8014E-04  0.0000E+00  0.0000E+00
 24  0.0000E+00  2.5402E-03  0.0000E+00  0.0000E+00  0.0000E+00  0.0000E+00  2.1928E-03  0.0000E+00  2.5449E-03
 25  0.0000E+00  4.5539E-03  0.0000E+00  0.0000E+00  0.0000E+00  0.0000E+00  9.5618E-04  1.0011E-02  0.0000E+00
 26  0.0000E+00  2.4424E-02  4.9342E-02  2.5218E-02  2.6622E-02  2.9182E-02  5.2414E-02  2.1020E-02  0.0000E+00
 27  0.0000E+00  1.3088E-01  0.0000E+00  2.5568E-01  1.5588E-01  8.6404E-02  0.0000E+00  2.1344E-01  0.0000E+00
 28  2.7354E+01  2.6922E+01  2.6797E+01  2.7773E+01  2.6344E+01  2.6741E+01  2.7426E+01  2.6950E+01  2.7099E+01
 29  1.2565E+01  1.4513E+01  1.3822E+01  1.2711E+01  1.4014E+01  1.4814E+01  1.4172E+01  1.4557E+01  1.4458E+01
 30  0.0000E+00  2.2507E-01  0.0000E+00  0.0000E+00  9.3666E-01  0.0000E+00  0.0000E+00  0.0000E+00  0.0000E+00
 31  0.0000E+00  2.0024E-05  0.0000E+00  2.0766E-05  0.0000E+00  0.0000E+00  0.0000E+00  0.0000E+00  2.8941E-04
 32  0.0000E+00  1.6283E-05  0.0000E+00  1.1640E-04  0.0000E+00  0.0000E+00  0.0000E+00  0.0000E+00  0.0000E+00
 33  0.0000E+00  5.0938E-05  0.0000E+00  0.0000E+00  1.8001E-06  1.7009E-04  2.8489E-05  0.0000E+00  0.0000E+00
 34  0.0000E+00  6.4393E-05  0.0000E+00  0.0000E+00  3.0992E-04  0.0000E+00  0.0000E+00  0.0000E+00  0.0000E+00
 35  0.0000E+00  7.5833E-05  0.0000E+00  0.0000E+00  0.0000E+00  0.0000E+00  0.0000E+00  0.0000E+00  0.0000E+00
 36  0.0000E+00  2.7261E-04  7.3292E-04  0.0000E+00  0.0000E+00  0.0000E+00  9.6932E-05  0.0000E+00  3.5663E-04
 37  0.0000E+00  4.9632E-04  0.0000E+00  0.0000E+00  0.0000E+00  0.0000E+00  1.1379E-03  0.0000E+00  0.0000E+00
 38  0.0000E+00  7.5635E-04  0.0000E+00  0.0000E+00  0.0000E+00  0.0000E+00  2.8756E-04  4.1966E-03  1.6680E-03
 39  0.0000E+00  6.5669E-03  0.0000E+00  2.6032E-02  0.0000E+00  0.0000E+00  1.7799E-02  1.3157E-03  3.6750E-04
 40  0.0000E+00  2.2558E-02  0.0000E+00  9.9849E-04  0.0000E+00  0.0000E+00  2.1244E-02  4.6658E-02  0.0000E+00
 41  8.3111E-01  1.0537E+00  1.0099E+00  5.3560E-01  9.2803E-01  7.5864E-01  1.0706E+00  9.5542E-01  9.7923E-01
 42  3.9599E+00  3.1187E+00  3.3802E+00  2.9362E+00  3.1676E+00  3.2787E+00  3.1237E+00  3.1909E+00  3.2042E+00
 43  0.0000E+00  1.5845E-01  3.1760E-01  2.5629E-01  1.9394E-01  3.5309E-01  4.0663E-01  0.0000E+00  4.4337E-02
 44  0.0000E+00  1.1241E-01  4.5740E-01  0.0000E+00  1.1402E-01  0.0000E+00  0.0000E+00  1.1479E-01  3.2048E-01
 45  0.0000E+00  4.4322E-01  2.8899E-01  7.9780E-01  3.2755E-01  2.1321E-01  0.0000E+00  0.0000E+00  2.9730E-01

# AV, chi2 & Mass for <> & i_chain = 1 ...  7 solutions
AV       0.6103      0.6031      0.6049      0.6039      0.6046      0.6033      0.6058      0.6054      0.6030
chi2 2.8032E+00  2.8286E+00  2.8207E+00  2.8161E+00  2.8169E+00  2.8180E+00  2.8216E+00  2.8210E+00  2.8227E+00
Mass 2.0980E-10  2.1180E-10  2.1168E-10  2.1298E-10  2.1217E-10  2.1190E-10  2.1155E-10  2.1145E-10  2.1179E-10
  16.11                                  [v0_min (km/s) before EX0s...]
  59.65                                  [vd_min (km/s) before EX0s...]


## Synthetic spectrum (Best Model) ##l_obs f_obs f_syn wei
 3070    [Nl_obs]
 3359.00    0.00000   0.42270   -2.000
 3360.00    0.00000   0.38388   -2.000
 3361.00    0.00000   0.37433   -2.000
 3362.00    0.29167   0.39945   -1.000
 3363.00    0.28697   0.44367   -1.000
 3364.00    0.28240   0.48127   -1.000
 3365.00    0.35133   0.49388   -1.000
 3366.00    0.24013   0.47859   -1.000
 3367.00    0.29038   0.44780   -1.000
 3368.00    0.19124   0.41847   -1.000
 3369.00    0.22193   0.40051   -1.000
 3370.00    0.33910   0.39221   -1.000
 3371.00    0.20866   0.38887   -1.000
 3372.00    0.14517   0.39216   -1.000
 3373.00    0.20511   0.40925   -1.000
 3374.00    0.34226   0.44115   -1.000
 3375.00    0.35448   0.48035   -1.000
 3376.00    0.34778   0.50955   -1.000
 3377.00    0.36504   0.51167   -1.000
 3378.00    0.28244   0.48757   -1.000
 3379.00    0.27553   0.45487   -1.000
 3380.00    0.27520   0.43355   -1.000
 3381.00    0.31015   0.43399   -1.000
 3382.00    0.28367   0.45205   -1.000
 3383.00    0.29485   0.47361   -1.000
 3384.00    0.33639   0.48972   -1.000
 3385.00    0.28225   0.50325   -1.000
 3386.00    0.26910   0.51346   -1.000
 3387.00    0.34731   0.51595   -1.000
 3388.00    0.38658   0.51325   -1.000
 3389.00    0.34256   0.50918   -1.000
 3390.00    0.35656   0.50204   -1.000
 3391.00    0.35457   0.48895   -1.000
 3392.00    0.36921   0.47138   -1.000
 3393.00    0.31078   0.46086   -1.000
 3394.00    0.30161   0.46862   -1.000
 3395.00    0.35335   0.49272   -1.000
 3396.00    0.34604   0.52173   -1.000
 3397.00    0.40911   0.54774   -1.000
 3398.00    0.44769   0.56578   -1.000
 3399.00    0.46597   0.57145   -1.000
 3400.00    0.39357   0.56550   -1.000
 3401.00    0.43666   0.55219   -1.000
 3402.00    0.46391   0.53418   -1.000
 3403.00    0.40665   0.51643   -1.000
 3404.00    0.37901   0.50484   -1.000
 3405.00    0.32224   0.49835   -1.000
 3406.00    0.34898   0.49140   -1.000
 3407.00    0.37245   0.48383   -1.000
 3408.00    0.41020   0.48058   -1.000
 3409.00    0.39483   0.48544   -1.000
 3410.00    0.39523   0.49535   -1.000
 3411.00    0.45127   0.49884   58.790
 3412.00    0.44212   0.48872   58.451
 3413.00    0.45255   0.47067   56.728
 3414.00    0.42606   0.45800   56.233
 3415.00    0.36259   0.46011   -1.000
 3416.00    0.37196   0.47606   -1.000
 3417.00    0.43002   0.49944   -1.000
 3418.00    0.44963   0.52395   -1.000
 3419.00    0.43457   0.54542   -1.000
 3420.00    0.40028   0.55751   -1.000
 3421.00    0.44105   0.55492   -1.000
 3422.00    0.48013   0.54123   -1.000
 3423.00    0.44797   0.52706   -1.000
 3424.00    0.37048   0.52029   -1.000
 3425.00    0.44212   0.52118   -1.000
 3426.00    0.41032   0.52599   -1.000
 3427.00    0.45130   0.53566   -1.000
 3428.00    0.48259   0.55528   -1.000
 3429.00    0.49493   0.57749   -1.000
 3430.00    0.50954   0.58530   -1.000
 3431.00    0.52200   0.57142   -1.000
 3432.00    0.45085   0.54589   -1.000
 3433.00    0.42745   0.52710   -1.000
 3434.00    0.47778   0.52514   -1.000
 3435.00    0.45422   0.53406   -1.000
 3436.00    0.44287   0.53872   -1.000
 3437.00    0.45710   0.53018   -1.000
 3438.00    0.42803   0.50656   -1.000
 3439.00    0.46614   0.47041   53.050
 3440.00    0.44131   0.42936   51.569
 3441.00    0.43193   0.39713   54.631
 3442.00    0.40938   0.38656   58.917
 3443.00    0.42469   0.39633   61.451
 3444.00    0.37596   0.41593   61.712
 3445.00    0.41750   0.43696   61.472
 3446.00    0.52733   0.45998   -1.000
 3447.00    0.47733   0.48791   55.988
 3448.00    0.44697   0.51812   -1.000
 3449.00    0.44259   0.54223   -1.000
 3450.00    0.40435   0.55008   -1.000
 3451.00    0.47610   0.53879   -1.000
 3452.00    0.47585   0.51857   -1.000
 3453.00    0.49109   0.50702   -1.000
 3454.00    0.52729   0.51172   -1.000
 3455.00    0.52540   0.52288  388.437
 3456.00    0.48303   0.52558   -1.000
 3457.00    0.46757   0.51217   -1.000
 3458.00    0.50496   0.48938   -1.000
 3459.00    0.51216   0.46908   -1.000
 3460.00    0.50889   0.45547   -1.000
 3461.00    0.46774   0.45419   53.898
 3462.00    0.45193   0.47131   50.177
 3463.00    0.46718   0.49687   49.923
 3464.00    0.43706   0.51214   -1.000
 3465.00    0.49338   0.51279   -1.000
 3466.00    0.52407   0.50873   -1.000
 3467.00    0.48477   0.51256   -1.000
 3468.00    0.52982   0.52617  388.437
 3469.00    0.58133   0.54184   -1.000
 3470.00    0.55058   0.55003  388.437
 3471.00    0.63281   0.54486   -1.000
 3472.00    0.53481   0.52622   -1.000
 3473.00    0.53046   0.49766   -1.000
 3474.00    0.52241   0.46518   -1.000
 3475.00    0.49824   0.44020   -1.000
 3476.00    0.43072   0.43622  388.437
 3477.00    0.38856   0.45471   -1.000
 3478.00    0.43087   0.48362   51.677
 3479.00    0.42971   0.50890   -1.000
 3480.00    0.45637   0.52252   -1.000
 3481.00    0.50569   0.52338   -1.000
 3482.00    0.46234   0.51492   -1.000
 3483.00    0.43900   0.50393   -1.000
 3484.00    0.45737   0.50020   -1.000
 3485.00    0.51260   0.51149  388.437
 3486.00    0.49388   0.53325   -1.000
 3487.00    0.52619   0.54602   -1.000
 3488.00    0.59207   0.53553   -1.000
 3489.00    0.58671   0.50733   -1.000
 3490.00    0.52814   0.48019   -1.000
 3491.00    0.44572   0.46965   -1.000
 3492.00    0.41020   0.47509   -1.000
 3493.00    0.44718   0.48573   -1.000
 3494.00    0.47154   0.49057   -1.000
 3495.00    0.50342   0.48503   -1.000
 3496.00    0.50270   0.47592   -1.000
 3497.00    0.50833   0.47942   -1.000
 3498.00    0.48394   0.50367   -1.000
 3499.00    0.54263   0.53420   -1.000
 3500.00    0.60629   0.55326   -1.000
 3501.00    0.57817   0.56201   -1.000
 3502.00    0.62325   0.56905   -1.000
 3503.00    0.65069   0.57501   -1.000
 3504.00    0.55145   0.57260   -1.000
 3505.00    0.58981   0.56118   -1.000
 3506.00    0.58152   0.54983   -1.000
 3507.00    0.58447   0.54462   -1.000
 3508.00    0.55737   0.54239   -1.000
 3509.00    0.54155   0.53540  388.437
 3510.00    0.52314   0.52282  388.437
 3511.00    0.48259   0.50956   -1.000
 3512.00    0.54687   0.49724   -1.000
 3513.00    0.59104   0.48455   -1.000
 3514.00    0.52952   0.48029   -1.000
 3515.00    0.53151   0.49580   -1.000
 3516.00    0.50993   0.52927   -1.000
 3517.00    0.52158   0.56380   -1.000
 3518.00    0.56791   0.57974   -1.000
 3519.00    0.60073   0.57086   -1.000
 3520.00    0.62011   0.54396   -1.000
 3521.00    0.55497   0.51274   -1.000
 3522.00    0.54719   0.48692   -1.000
 3523.00    0.45968   0.46354  388.437
 3524.00    0.41906   0.44295   -1.000
 3525.00    0.50890   0.43339   -1.000
 3526.00    0.48359   0.44367   56.013
 3527.00    0.47531   0.47423   51.100
 3528.00    0.50559   0.51297   51.026
 3529.00    0.48645   0.54285   -1.000
 3530.00    0.53365   0.55490   -1.000
 3531.00    0.59233   0.55268   -1.000
 3532.00    0.61544   0.54864   -1.000
 3533.00    0.58799   0.55313   -1.000
 3534.00    0.51275   0.56506   -1.000
 3535.00    0.56053   0.57564   -1.000
 3536.00    0.64124   0.58083   -1.000
 3537.00    0.59084   0.58600  388.437
 3538.00    0.57007   0.59618   -1.000
 3539.00    0.59104   0.60574   -1.000
 3540.00    0.60942   0.60438  388.437
 3541.00    0.61301   0.59472   -1.000
 3542.00    0.53049   0.59064   -1.000
 3543.00    0.55949   0.59643   -1.000
 3544.00    0.67747   0.60618   -1.000
 3545.00    0.63322   0.61052   -1.000
 3546.00    0.59140   0.60583   -1.000
 3547.00    0.58617   0.59832   -1.000
 3548.00    0.58774   0.59485  388.437
 3549.00    0.56419   0.59652   -1.000
 3550.00    0.57149   0.59827   -1.000
 3551.00    0.58556   0.59415   -1.000
 3552.00    0.58990   0.58180   -1.000
 3553.00    0.52303   0.56721   -1.000
 3554.00    0.53366   0.55931   -1.000
 3555.00    0.45728   0.56110   -1.000
 3556.00    0.48877   0.56712   -1.000
 3557.00    0.55607   0.56829   -1.000
 3558.00    0.49752   0.56290   -1.000
 3559.00    0.52884   0.55881   -1.000
 3560.00    0.54653   0.56426   -1.000
 3561.00    0.46556   0.57941   -1.000
 3562.00    0.51503   0.59219   -1.000
 3563.00    0.57757   0.58345  388.437
 3564.00    0.56026   0.54339   -1.000
 3565.00    0.53287   0.49399   -1.000
 3566.00    0.48521   0.46690   -1.000
 3567.00    0.45018   0.46347   57.994
 3568.00    0.44034   0.46354   51.778
 3569.00    0.44909   0.45179   51.572
 3570.00    0.46398   0.43701   51.237
 3571.00    0.42616   0.43865   52.687
 3572.00    0.42196   0.45662   53.784
 3573.00    0.47579   0.47711   52.478
 3574.00    0.49817   0.49104   50.223
 3575.00    0.53252   0.49800   -1.000
 3576.00    0.51189   0.50111   -1.000
 3577.00    0.48869   0.49791   -1.000
 3578.00    0.47694   0.48269  388.437
 3579.00    0.47886   0.45375   -1.000
 3580.00    0.47466   0.42089   -1.000
 3581.00    0.43375   0.39840   60.492
 3582.00    0.36848   0.39409   55.155
 3583.00    0.38069   0.40178   58.404
 3584.00    0.38259   0.40370   59.216
 3585.00    0.37025   0.39407   59.476
 3586.00    0.36835   0.38536   60.784
 3587.00    0.35967   0.38969   62.722
 3588.00    0.36675   0.41095   63.795
 3589.00    0.41754   0.44521   61.182
 3590.00    0.47583   0.48390   57.937
 3591.00    0.51009   0.51610   55.095
 3592.00    0.55593   0.53289   50.492
 3593.00    0.55553   0.53738   -1.000
 3594.00    0.53951   0.54305  388.437
 3595.00    0.52796   0.55948   -1.000
 3596.00    0.56379   0.58146   -1.000
 3597.00    0.57235   0.59975   -1.000
 3598.00    0.61679   0.61364  388.437
 3599.00    0.61304   0.62292   -1.000
 3600.00    0.61903   0.62105  379.413
 3601.00    0.60912   0.60111   -1.000
 3602.00    0.63329   0.56756   -1.000
 3603.00    0.56825   0.53432   -1.000
 3604.00    0.55060   0.51402   -1.000
 3605.00    0.55045   0.50911   -1.000
 3606.00    0.50913   0.50902  388.437
 3607.00    0.48831   0.50175   -1.000
 3608.00    0.50395   0.48600   -1.000
 3609.00    0.49323   0.47444   -1.000
 3610.00    0.46503   0.48151   -1.000
 3611.00    0.44137   0.50220   -1.000
 3612.00    0.50113   0.52126   -1.000
 3613.00    0.56974   0.53610   -1.000
 3614.00    0.55967   0.55145   -1.000
 3615.00    0.54166   0.56526   -1.000
 3616.00    0.56905   0.56113   -1.000
 3617.00    0.55769   0.52571   -1.000
 3618.00    0.51431   0.48012   -1.000
 3619.00    0.50765   0.46123   -1.000
 3620.00    0.49825   0.47983   -1.000
 3621.00    0.49883   0.51935   59.210
 3622.00    0.53594   0.55662   -1.000
 3623.00    0.60051   0.58179   -1.000
 3624.00    0.61496   0.60228   -1.000
 3625.00    0.57500   0.62974   -1.000
 3626.00    0.62653   0.66129   -1.000
 3627.00    0.65661   0.68298   -1.000
 3628.00    0.69665   0.67789   -1.000
 3629.00    0.62122   0.63646   -1.000
 3630.00    0.52219   0.57266   -1.000
 3631.00    0.45945   0.51905   -1.000
 3632.00    0.49828   0.49919  388.437
 3633.00    0.53431   0.51080   -1.000
 3634.00    0.53977   0.53423  388.437
 3635.00    0.50130   0.55421   -1.000
 3636.00    0.50816   0.56880   -1.000
 3637.00    0.55826   0.58744   -1.000
 3638.00    0.58781   0.61379   -1.000
 3639.00    0.59213   0.64009   -1.000
 3640.00    0.60436   0.65373   -1.000
 3641.00    0.65752   0.64680   -1.000
 3642.00    0.62194   0.62326  357.839
 3643.00    0.55445   0.59438   -1.000
 3644.00    0.57483   0.57029  376.925
 3645.00    0.60105   0.55337   -1.000
 3646.00    0.56168   0.53899   -1.000
 3647.00    0.53075   0.52677  388.437
 3648.00    0.52968   0.52334  388.437
 3649.00    0.54874   0.53286   -1.000
 3650.00    0.57215   0.55538   -1.000
 3651.00    0.60346   0.58738   -1.000
 3652.00    0.65178   0.62067   -1.000
 3653.00    0.64677   0.64561  388.343
 3654.00    0.65830   0.65949  371.561
 3655.00    0.62723   0.66775   -1.000
 3656.00    0.67146   0.67888  355.486
 3657.00    0.68836   0.69347  353.585
 3658.00    0.66109   0.70482   -1.000
 3659.00    0.65671   0.71036   -1.000
 3660.00    0.65649   0.70958   -1.000
 3661.00    0.69273   0.70044  340.014
 3662.00    0.61016   0.68471   -1.000
 3663.00    0.58876   0.66919   -1.000
 3664.00    0.65266   0.66066   -1.000
 3665.00    0.65118   0.66033   -1.000
 3666.00    0.62986   0.66146   -1.000
 3667.00    0.62839   0.65567   -1.000
 3668.00    0.62615   0.64107   -1.000
 3669.00    0.61130   0.62902   -1.000
 3670.00    0.58688   0.63271   -1.000
 3671.00    0.60181   0.65145   -1.000
 3672.00    0.66045   0.67201   -1.000
 3673.00    0.69838   0.68273   -1.000
 3674.00    0.67893   0.68165  350.439
 3675.00    0.67074   0.66955  348.063
 3676.00    0.65933   0.64819   -1.000
 3677.00    0.64289   0.62219   -1.000
 3678.00    0.60483   0.59738  357.158
 3679.00    0.60317   0.58118   -1.000
 3680.00    0.62175   0.57854   -1.000
 3681.00    0.59175   0.58947  388.437
 3682.00    0.60217   0.60711  388.437
 3683.00    0.64750   0.61958   -1.000
 3684.00    0.62180   0.61605  371.458
 3685.00    0.60784   0.59301   -1.000
 3686.00    0.59216   0.56299   -1.000
 3687.00    0.57319   0.54711   -1.000
 3688.00    0.54910   0.55750   -1.000
 3689.00    0.58403   0.59146   -1.000
 3690.00    0.64869   0.63469   -1.000
 3691.00    0.64012   0.66652   -1.000
 3692.00    0.66313   0.67365   -1.000
 3693.00    0.64608   0.66304   -1.000
 3694.00    0.64370   0.64997  341.775
 3695.00    0.64855   0.64282  349.863
 3696.00    0.62879   0.64452   -1.000
 3697.00    0.65668   0.65750  355.547
 3698.00    0.63075   0.68113   -1.000
 3699.00    0.65375   0.70580   -1.000
 3700.00    0.68113   0.71803   -1.000
 3701.00    0.71415   0.70763  329.487
 3702.00    0.72577   0.67030   -1.000
 3703.00    0.68175   0.61455   -1.000
 3704.00    0.67393   0.55814   -1.000
 3705.00    0.62223   0.51892   -1.000
 3706.00    0.57244   0.50597   -1.000
 3707.00    0.52676   0.51141   -1.000
 3708.00    0.50306   0.52394   -1.000
 3709.00    0.53494   0.54095  388.437
 3710.00    0.59768   0.56535   -1.000
 3711.00    0.63660   0.59849   -1.000
 3712.00    0.66304   0.63933   -1.000
 3713.00    0.66352   0.67860   -1.000
 3714.00    0.70851   0.70409  350.686
 3715.00    0.73036   0.70978   -1.000
 3716.00    0.73225   0.69425   -1.000
 3717.00    0.71973   0.65799   -1.000
 3718.00    0.65920   0.60216   -1.000
 3719.00    0.52345   0.53113  340.401
 3720.00    0.44491   0.46771   -1.000
 3721.00    0.45701   0.44034   -1.000
 3722.00    0.50492   0.45726   -1.000
 3723.00    0.50988   0.50707   64.678
 3724.00    0.54454   0.56641   -1.000
 3725.00    0.61415   0.60632   -1.000
 3726.00    0.65102   0.61412   -1.000
 3727.00    0.65874   0.60670   -1.000
 3728.00    0.67466   0.60493   -1.000
 3729.00    0.77838   0.60888   -1.000
 3730.00    0.86975   0.60398   -1.000
 3731.00    0.79514   0.57547   -1.000
 3732.00    0.63898   0.52266   -1.000
 3733.00    0.51244   0.46118   -1.000
 3734.00    0.43090   0.40862   -1.000
 3735.00    0.43814   0.38163   -1.000
 3736.00    0.46547   0.39024   -1.000
 3737.00    0.46520   0.43129   56.879
 3738.00    0.48072   0.49341   55.214
 3739.00    0.51453   0.55905   50.564
 3740.00    0.55280   0.60578   -1.000
 3741.00    0.60786   0.62014   -1.000
 3742.00    0.60814   0.60381  375.123
 3743.00    0.59466   0.56783   -1.000
 3744.00    0.57486   0.52795   -1.000
 3745.00    0.52375   0.49642   -1.000
 3746.00    0.52764   0.47112   -1.000
 3747.00    0.51599   0.44402   -1.000
 3748.00    0.47619   0.41542   -1.000
 3749.00    0.43828   0.40306   65.548
 3750.00    0.46294   0.42550   52.438
 3751.00    0.51883   0.48034   53.743
 3752.00    0.60048   0.54756   -1.000
 3753.00    0.64441   0.61090   -1.000
 3754.00    0.67516   0.65890   -1.000
 3755.00    0.69375   0.67637   -1.000
 3756.00    0.69928   0.65342   -1.000
 3757.00    0.66547   0.60158   -1.000
 3758.00    0.54214   0.55115   -1.000
 3759.00    0.50801   0.52974   -1.000
 3760.00    0.55858   0.53965   -1.000
 3761.00    0.61312   0.55970   -1.000
 3762.00    0.60080   0.57295   -1.000
 3763.00    0.58946   0.57907   -1.000
 3764.00    0.57813   0.58102  383.943
 3765.00    0.59366   0.57742   -1.000
 3766.00    0.57481   0.56886  376.108
 3767.00    0.59321   0.56073   -1.000
 3768.00    0.64886   0.55616   -1.000
 3769.00    0.62963   0.55437   -1.000
 3770.00    0.61073   0.55652   -1.000
 3771.00    0.60229   0.57029   -1.000
 3772.00    0.60984   0.59852   -1.000
 3773.00    0.66666   0.62925   -1.000
 3774.00    0.71184   0.64927   -1.000
 3775.00    0.71004   0.65926   -1.000
 3776.00    0.67138   0.66628  342.586
 3777.00    0.67858   0.67607  342.073
 3778.00    0.69624   0.69130  341.345
 3779.00    0.70628   0.70985  340.416
 3780.00    0.71526   0.72762   -1.000
 3781.00    0.73568   0.74088  327.002
 3782.00    0.76620   0.74859   -1.000
 3783.00    0.77717   0.74899   -1.000
 3784.00    0.74323   0.73489  312.978
 3785.00    0.70066   0.70147  312.601
 3786.00    0.67411   0.65817   -1.000
 3787.00    0.63170   0.61984   -1.000
 3788.00    0.60534   0.59617   -1.000
 3789.00    0.58281   0.59006  375.796
 3790.00    0.59216   0.59614  385.948
 3791.00    0.63147   0.60310   -1.000
 3792.00    0.64526   0.59936   -1.000
 3793.00    0.58546   0.58218  377.671
 3794.00    0.54425   0.55837   -1.000
 3795.00    0.51569   0.53452   -1.000
 3796.00    0.50775   0.51022  388.437
 3797.00    0.52098   0.48297   -1.000
 3798.00    0.52464   0.46642   -1.000
 3799.00    0.52106   0.48174   -1.000
 3800.00    0.57105   0.52813   -1.000
 3801.00    0.62449   0.58727   -1.000
 3802.00    0.64384   0.64045  388.437
 3803.00    0.65373   0.67455   -1.000
 3804.00    0.68573   0.68598  361.904
 3805.00    0.69335   0.67640   -1.000
 3806.00    0.66682   0.65596   -1.000
 3807.00    0.65255   0.64601  351.553
 3808.00    0.66028   0.65879  362.749
 3809.00    0.68068   0.68468  371.847
 3810.00    0.70081   0.70288  366.778
 3811.00    0.69391   0.69747  353.642
 3812.00    0.65218   0.66744   -1.000
 3813.00    0.60044   0.62307   -1.000
 3814.00    0.58544   0.57935  366.223
 3815.00    0.55844   0.55336  388.276
 3816.00    0.57437   0.55287   -1.000
 3817.00    0.56607   0.56352  388.437
 3818.00    0.59088   0.56211   -1.000
 3819.00    0.56930   0.53985   -1.000
 3820.00    0.52752   0.51370   -1.000
 3821.00    0.53637   0.50804   -1.000
 3822.00    0.52998   0.51978   -1.000
 3823.00    0.53833   0.52338   -1.000
 3824.00    0.53280   0.50479   -1.000
 3825.00    0.46735   0.47515  388.437
 3826.00    0.44316   0.45371   -1.000
 3827.00    0.44748   0.44759   71.678
 3828.00    0.42876   0.45228   52.521
 3829.00    0.42984   0.45821   52.529
 3830.00    0.41836   0.45646   51.784
 3831.00    0.40735   0.44222   50.933
 3832.00    0.45553   0.41816   51.128
 3833.00    0.44039   0.39282   52.961
 3834.00    0.39276   0.37794   56.667
 3835.00    0.40571   0.37868   59.281
 3836.00    0.42972   0.38786   58.969
 3837.00    0.42272   0.39472   56.911
 3838.00    0.41904   0.39705   55.342
 3839.00    0.40879   0.40418   55.805
 3840.00    0.40341   0.42828   57.131
 3841.00    0.45337   0.47178   56.831
 3842.00    0.50646   0.52466   54.206
 3843.00    0.52133   0.57224   -1.000
 3844.00    0.55923   0.60306   -1.000
 3845.00    0.59801   0.61873   -1.000
 3846.00    0.60181   0.62908   -1.000
 3847.00    0.61614   0.63699   -1.000
 3848.00    0.64203   0.63570  388.437
 3849.00    0.61860   0.62646  388.437
 3850.00    0.56069   0.62075   -1.000
 3851.00    0.56200   0.62603   -1.000
 3852.00    0.60790   0.63797   -1.000
 3853.00    0.63285   0.64271   -1.000
 3854.00    0.60697   0.63187   -1.000
 3855.00    0.55200   0.61216   -1.000
 3856.00    0.53442   0.59090   -1.000
 3857.00    0.52949   0.56699   -1.000
 3858.00    0.50241   0.54032   -1.000
 3859.00    0.48476   0.52188   -1.000
 3860.00    0.49221   0.52810   69.594
 3861.00    0.52828   0.56176   51.075
 3862.00    0.56897   0.60772   51.309
 3863.00    0.61471   0.64085   -1.000
 3864.00    0.63810   0.64911   -1.000
 3865.00    0.61222   0.64358   -1.000
 3866.00    0.58493   0.63688   -1.000
 3867.00    0.58736   0.63304   -1.000
 3868.00    0.59566   0.62844   -1.000
 3869.00    0.57613   0.61529   -1.000
 3870.00    0.54069   0.59047   -1.000
 3871.00    0.50816   0.56268   -1.000
 3872.00    0.49578   0.54872   -1.000
 3873.00    0.50511   0.55969   -1.000
 3874.00    0.53987   0.59227   -1.000
 3875.00    0.58761   0.62245   -1.000
 3876.00    0.61475   0.62481   -1.000
 3877.00    0.57361   0.60144   -1.000
 3878.00    0.56413   0.57617   -1.000
 3879.00    0.55887   0.56667   -1.000
 3880.00    0.54405   0.57011   -1.000
 3881.00    0.54749   0.57524   -1.000
 3882.00    0.54621   0.57822   -1.000
 3883.00    0.56759   0.58063   -1.000
 3884.00    0.59988   0.57649   -1.000
 3885.00    0.58395   0.55567   -1.000
 3886.00    0.56710   0.51984   -1.000
 3887.00    0.56157   0.48704   -1.000
 3888.00    0.54587   0.47479   -1.000
 3889.00    0.56743   0.49118   -1.000
 3890.00    0.59173   0.53296   -1.000
 3891.00    0.61556   0.58605   -1.000
 3892.00    0.64740   0.62797   -1.000
 3893.00    0.67467   0.64418   -1.000
 3894.00    0.67042   0.64299   -1.000
 3895.00    0.64785   0.64280  334.202
 3896.00    0.67840   0.65270   -1.000
 3897.00    0.70347   0.66510   -1.000
 3898.00    0.69227   0.66983   -1.000
 3899.00    0.71457   0.66979   -1.000
 3900.00    0.71609   0.67334   -1.000
 3901.00    0.68948   0.67912   -1.000
 3902.00    0.67806   0.67841  329.048
 3903.00    0.70372   0.66623   -1.000
 3904.00    0.69936   0.64754   -1.000
 3905.00    0.66536   0.63562   -1.000
 3906.00    0.64023   0.64158  347.273
 3907.00    0.65541   0.66730   -1.000
 3908.00    0.71944   0.70455   -1.000
 3909.00    0.71894   0.73732   -1.000
 3910.00    0.71292   0.75705   -1.000
 3911.00    0.76450   0.76837  308.711
 3912.00    0.78140   0.77381  304.495
 3913.00    0.73728   0.77172   -1.000
 3914.00    0.74625   0.76323   -1.000
 3915.00    0.76270   0.75093   -1.000
 3916.00    0.73910   0.73779  306.610
 3917.00    0.70496   0.72344   -1.000
 3918.00    0.67914   0.70324   -1.000
 3919.00    0.67216   0.67635  322.908
 3920.00    0.65994   0.64893   -1.000
 3921.00    0.62614   0.63173  343.512
 3922.00    0.63112   0.63111  359.618
 3923.00    0.64807   0.63974   -1.000
 3924.00    0.65351   0.64186   -1.000
 3925.00    0.64224   0.62619   -1.000
 3926.00    0.59038   0.59060  364.577
 3927.00    0.52247   0.53938   -1.000
 3928.00    0.46558   0.48055   -1.000
 3929.00    0.43088   0.42197   -1.000
 3930.00    0.36827   0.36501   81.794
 3931.00    0.30809   0.31130   60.379
 3932.00    0.27388   0.26545   70.695
 3933.00    0.24106   0.23564   83.273
 3934.00    0.20740   0.23250   97.875
 3935.00    0.21656   0.25923   -1.000
 3936.00    0.27049   0.30776   -1.000
 3937.00    0.31877   0.36910   -1.000
 3938.00    0.38291   0.43461   -1.000
 3939.00    0.45820   0.49396   68.486
 3940.00    0.53414   0.54057   57.132
 3941.00    0.55735   0.56936  119.294
 3942.00    0.53944   0.58137   -1.000
 3943.00    0.56092   0.58658   -1.000
 3944.00    0.58596   0.59826   -1.000
 3945.00    0.60118   0.62330   -1.000
 3946.00    0.64659   0.65324  388.437
 3947.00    0.67893   0.67499  374.940
 3948.00    0.69622   0.68939  348.572
 3949.00    0.71492   0.70528  338.840
 3950.00    0.73624   0.72126   -1.000
 3951.00    0.74776   0.72878   -1.000
 3952.00    0.74957   0.72984   -1.000
 3953.00    0.75494   0.73398   -1.000
 3954.00    0.76401   0.74160   -1.000
 3955.00    0.76904   0.74188   -1.000
 3956.00    0.75910   0.73144   -1.000
 3957.00    0.74582   0.72178   -1.000
 3958.00    0.70818   0.71689   -1.000
 3959.00    0.72162   0.70160   -1.000
 3960.00    0.72327   0.66119   -1.000
 3961.00    0.65620   0.60235   -1.000
 3962.00    0.59058   0.54681   -1.000
 3963.00    0.52831   0.50646   -1.000
 3964.00    0.46853   0.47180  388.437
 3965.00    0.42903   0.42604  388.437
 3966.00    0.38347   0.36299   79.562
 3967.00    0.32311   0.29834   56.655
 3968.00    0.26475   0.25638   68.444
 3969.00    0.24193   0.25055   84.082
 3970.00    0.26524   0.28022   96.976
 3971.00    0.33381   0.33534   96.311
 3972.00    0.42081   0.40184   82.762
 3973.00    0.48507   0.47045   68.034
 3974.00    0.51897   0.53773   56.562
 3975.00    0.57894   0.59975  112.526
 3976.00    0.64245   0.65524   -1.000
 3977.00    0.70138   0.70473  378.211
 3978.00    0.74887   0.75000  345.709
 3979.00    0.80634   0.78822   -1.000
 3980.00    0.83106   0.81056   -1.000
 3981.00    0.84378   0.81427   -1.000
 3982.00    0.83101   0.80772   -1.000
 3983.00    0.80059   0.80459  280.805
 3984.00    0.80196   0.81204   -1.000
 3985.00    0.82767   0.82634  285.887
 3986.00    0.86248   0.84299   -1.000
 3987.00    0.85539   0.86034  275.617
 3988.00    0.85598   0.87482   -1.000
 3989.00    0.89306   0.88367  265.914
 3990.00    0.90803   0.88937   -1.000
 3991.00    0.91168   0.89808   -1.000
 3992.00    0.92922   0.91061   -1.000
 3993.00    0.98303   0.91833   -1.000
 3994.00    0.98086   0.91299   -1.000
 3995.00    0.92087   0.89558   -1.000
 3996.00    0.89703   0.87586   -1.000
 3997.00    0.89310   0.86704   -1.000
 3998.00    0.89050   0.87680   -1.000
 3999.00    0.91509   0.90099   -1.000
 4000.00    0.94664   0.92962   -1.000
 4001.00    0.96386   0.95254  257.137
 4002.00    0.97528   0.95955   -1.000
 4003.00    0.99779   0.94303   -1.000
 4004.00    0.93161   0.90506   -1.000
 4005.00    0.86839   0.86450  239.328
 4006.00    0.84999   0.85060  250.985
 4007.00    0.88707   0.87293   -1.000
 4008.00    0.93683   0.91216   -1.000
 4009.00    0.95590   0.94496  259.512
 4010.00    0.96327   0.96297  247.189
 4011.00    0.98803   0.97047   -1.000
 4012.00    1.00191   0.97420   -1.000
 4013.00    0.99400   0.97847   -1.000
 4014.00    0.95276   0.98328   -1.000
 4015.00    0.99789   0.98506  239.327
 4016.00    1.02370   0.98220   -1.000
 4017.00    1.00000   0.97921   -1.000
 4018.00    1.00243   0.98308   -1.000
 4019.00    1.01593   0.99240   -1.000
 4020.00    1.00078   0.99960  238.974
 4021.00    1.00739   0.99965  236.238
 4022.00    1.01993   0.99458   -1.000
 4023.00    0.99362   0.98773  237.355
 4024.00    0.96302   0.98211   -1.000
 4025.00    0.99184   0.98488  241.132
 4026.00    1.03286   1.00067   -1.000
 4027.00    1.06690   1.02140   -1.000
 4028.00    1.09415   1.02472   -1.000
 4029.00    1.05854   0.99515   -1.000
 4030.00    0.98602   0.94284   -1.000
 4031.00    0.92680   0.89199   -1.000
 4032.00    0.88311   0.86216   -1.000
 4033.00    0.89181   0.85908   -1.000
 4034.00    0.92553   0.88046   -1.000
 4035.00    0.94388   0.92188   -1.000
 4036.00    0.97916   0.97550  257.491
 4037.00    1.02000   1.02639  246.414
 4038.00    1.07104   1.05438   -1.000
 4039.00    1.09472   1.05186   -1.000
 4040.00    1.06196   1.03486   -1.000
 4041.00    1.00408   1.02016   -1.000
 4042.00    1.00176   1.00163  228.420
 4043.00    1.02309   0.96028   -1.000
 4044.00    0.98074   0.89213   -1.000
 4045.00    0.91383   0.83254   -1.000
 4046.00    0.84888   0.82399   -1.000
 4047.00    0.84416   0.86978   -1.000
 4048.00    0.92360   0.93915   -1.000
 4049.00    1.00073   0.99732  262.552
 4050.00    1.04664   1.02781   -1.000
 4051.00    1.04985   1.03251   -1.000
 4052.00    1.03961   1.01901   -1.000
 4053.00    1.02376   0.99620   -1.000
 4054.00    0.97463   0.97515  232.168
 4055.00    0.94107   0.95964   -1.000
 4056.00    0.93923   0.94583  243.217
 4057.00    0.96381   0.93645   -1.000
 4058.00    0.98722   0.94071   -1.000
 4059.00    1.00502   0.96065   -1.000
 4060.00    1.02380   0.97935   -1.000
 4061.00    1.00545   0.96948   -1.000
 4062.00    0.96294   0.92708   -1.000
 4063.00    0.92777   0.87889   -1.000
 4064.00    0.89870   0.85543   -1.000
 4065.00    0.89682   0.86402   -1.000
 4066.00    0.92558   0.89060   -1.000
 4067.00    0.93900   0.92201   -1.000
 4068.00    0.97755   0.95067   -1.000
 4069.00    1.04765   0.96310   -1.000
 4070.00    1.04322   0.94870   -1.000
 4071.00    0.99533   0.92076   -1.000
 4072.00    0.96800   0.90732   -1.000
 4073.00    0.98517   0.91886   -1.000
 4074.00    1.01395   0.93257   -1.000
 4075.00    0.99497   0.92056   -1.000
 4076.00    0.93778   0.88601   -1.000
 4077.00    0.88970   0.85709   -1.000
 4078.00    0.88794   0.86029   -1.000
 4079.00    0.92111   0.89938   -1.000
 4080.00    0.97879   0.95429   -1.000
 4081.00    1.02759   0.99420   -1.000
 4082.00    1.05553   1.00110   -1.000
 4083.00    1.01979   0.98308   -1.000
 4084.00    0.95933   0.96437  231.093
 4085.00    0.96296   0.96632  237.393
 4086.00    1.00559   0.99190  243.165
 4087.00    1.06963   1.02859   -1.000
 4088.00    1.12232   1.05830   -1.000
 4089.00    1.14254   1.06806   -1.000
 4090.00    1.11462   1.05772   -1.000
 4091.00    1.06203   1.03934   -1.000
 4092.00    1.04335   1.02517   -1.000
 4093.00    1.04498   1.01368   -1.000
 4094.00    1.02638   0.99631   -1.000
 4095.00    1.00403   0.96866   -1.000
 4096.00    0.98755   0.93666   -1.000
 4097.00    0.96696   0.90831   -1.000
 4098.00    0.95404   0.87924   -1.000
 4099.00    0.90976   0.83815   -1.000
 4100.00    0.84919   0.78382   -1.000
 4101.00    0.81114   0.73836   -1.000
 4102.00    0.79590   0.72999   -1.000
 4103.00    0.82011   0.76640   -1.000
 4104.00    0.87583   0.83117   -1.000
 4105.00    0.93322   0.89541   -1.000
 4106.00    0.97819   0.93941   -1.000
 4107.00    1.01140   0.96217   -1.000
 4108.00    0.99994   0.96852   -1.000
 4109.00    0.98619   0.96516   -1.000
 4110.00    0.99680   0.96219   -1.000
 4111.00    0.98603   0.96625   -1.000
 4112.00    0.97689   0.97840  249.811
 4113.00    0.99340   0.99686  249.827
 4114.00    1.01916   1.01804  245.220
 4115.00    1.04563   1.03427  240.339
 4116.00    1.05583   1.03736   -1.000
 4117.00    1.05262   1.02572   -1.000
 4118.00    1.03420   1.00694   -1.000
 4119.00    1.00036   0.99240  236.349
 4120.00    1.00145   0.98888  243.039
 4121.00    1.00752   0.99385   -1.000
 4122.00    0.98540   1.00039   -1.000
 4123.00    0.98293   1.00713   -1.000
 4124.00    1.01323   1.01615  244.129
 4125.00    1.04309   1.02373   -1.000
 4126.00    1.03459   1.02224  239.323
 4127.00    0.99487   1.01162   -1.000
 4128.00    0.98510   0.99977   -1.000
 4129.00    1.02464   0.99053   -1.000
 4130.00    1.04205   0.97683   -1.000
 4131.00    1.00057   0.95302   -1.000
 4132.00    0.95384   0.92796   -1.000
 4133.00    0.92908   0.91925  255.543
 4134.00    0.93751   0.93751  263.742
 4135.00    0.97832   0.97564  268.106
 4136.00    1.02548   1.01749  263.624
 4137.00    1.05349   1.05040  252.272
 4138.00    1.05492   1.07109   -1.000
 4139.00    1.06804   1.07910  236.096
 4140.00    1.08097   1.06667   -1.000
 4141.00    1.04248   1.02675   -1.000
 4142.00    0.96582   0.97089  232.227
 4143.00    0.89882   0.92632   -1.000
 4144.00    0.88862   0.91860   -1.000
 4145.00    0.94209   0.94892  275.594
 4146.00    1.00228   0.99023   -1.000
 4147.00    1.02723   1.01545   -1.000
 4148.00    1.01614   1.01845  250.213
 4149.00    0.99454   1.01174   -1.000
 4150.00    0.98167   1.00830   -1.000
 4151.00    0.98819   1.00767   -1.000
 4152.00    1.00011   1.00248  256.775
 4153.00    0.97257   0.98957   -1.000
 4154.00    0.94338   0.97515   -1.000
 4155.00    0.94873   0.96956   -1.000
 4156.00    0.97039   0.97762  259.436
 4157.00    0.98009   0.99625   -1.000
 4158.00    1.03551   1.02046   -1.000
 4159.00    1.27803   1.04482   -1.000
 4160.00    1.28930   1.06393   -1.000
 4161.00    0.84512   1.07795   -1.000
 4162.00    0.77662   1.08913   -1.000
 4163.00    1.08485   1.09616  241.808
 4164.00    1.09678   1.09430  236.667
 4165.00    1.00569   1.07938   -1.000
 4166.00    0.99293   1.05633   -1.000
 4167.00    0.97293   1.03851   -1.000
 4168.00    0.96645   1.03353   -1.000
 4169.00    0.98272   1.03358   -1.000
 4170.00    0.98136   1.02057   -1.000
 4171.00    0.94331   0.98753   -1.000
 4172.00    0.90802   0.94835   -1.000
 4173.00    0.89518   0.92758   -1.000
 4174.00    0.90366   0.93636   -1.000
 4175.00    0.94030   0.96102   -1.000
 4176.00    0.97858   0.98149  277.041
 4177.00    0.98626   0.99386  266.823
 4178.00    0.97852   1.00651   -1.000
 4179.00    0.96400   1.02051   -1.000
 4180.00    0.96915   1.02607   -1.000
 4181.00    0.96921   1.01952   -1.000
 4182.00    0.94548   1.01285   -1.000
 4183.00    0.95983   1.01921   -1.000
 4184.00    1.01220   1.03345   -1.000
 4185.00    1.04132   1.03713  250.568
 4186.00    1.02012   1.02287  245.768
 4187.00    0.97928   1.00378   -1.000
 4188.00    0.96376   0.99732   -1.000
 4189.00    0.98685   1.00721   -1.000
 4190.00    1.01228   1.02395   -1.000
 4191.00    1.02126   1.04071   -1.000
 4192.00    1.04773   1.05719  250.551
 4193.00    1.06684   1.06774  248.231
 4194.00    1.03584   1.06084   -1.000
 4195.00    0.99961   1.03295   -1.000
 4196.00    0.96833   0.99476   -1.000
 4197.00    0.92535   0.96180   -1.000
 4198.00    0.89291   0.94200   -1.000
 4199.00    0.90651   0.93392   -1.000
 4200.00    0.94563   0.93468  271.608
 4201.00    0.94380   0.94164  270.365
 4202.00    0.92617   0.95332   -1.000
 4203.00    0.94117   0.97192   -1.000
 4204.00    0.96535   0.99867   -1.000
 4205.00    0.99119   1.02912   -1.000
 4206.00    1.01351   1.05692   -1.000
 4207.00    1.02965   1.07741   -1.000
 4208.00    1.05471   1.08704   -1.000
 4209.00    1.07387   1.08687   -1.000
 4210.00    1.06371   1.08438   -1.000
 4211.00    1.04877   1.08670   -1.000
 4212.00    1.04902   1.08896   -1.000
 4213.00    1.02692   1.07701   -1.000
 4214.00    0.99745   1.04804   -1.000
 4215.00    0.98760   1.01937   -1.000
 4216.00    0.97416   1.01253   -1.000
 4217.00    1.00582   1.03486   -1.000
 4218.00    1.06650   1.07386  261.260
 4219.00    1.08595   1.10898   -1.000
 4220.00    1.09616   1.12578   -1.000
 4221.00    1.12842   1.11782  226.073
 4222.00    1.10926   1.08180   -1.000
 4223.00    1.04168   1.01639   -1.000
 4224.00    0.96780   0.92860   -1.000
 4225.00    0.87575   0.84085   -1.000
 4226.00    0.79997   0.78717   -1.000
 4227.00    0.76991   0.79599   -1.000
 4228.00    0.82569   0.86787   -1.000
 4229.00    0.95389   0.96240   -1.000
 4230.00    1.02822   1.03178  292.415
 4231.00    1.05701   1.05969  257.156
 4232.00    1.05608   1.05586  237.200
 4233.00    1.03298   1.03763  230.003
 4234.00    1.04994   1.01743   -1.000
 4235.00    1.03725   1.00145   -1.000
 4236.00    1.01021   0.99277   -1.000
 4237.00    0.99184   0.99423  245.779
 4238.00    0.98227   1.00797   -1.000
 4239.00    0.99449   1.02988   -1.000
 4240.00    1.02100   1.05305   -1.000
 4241.00    1.05524   1.07360   -1.000
 4242.00    1.08035   1.09145   -1.000
 4243.00    1.10078   1.10919  235.794
 4244.00    1.11920   1.12478  233.649
 4245.00    1.12299   1.12692  231.294
 4246.00    1.11278   1.10556  226.798
 4247.00    1.05993   1.06567  225.242
 4248.00    0.99600   1.02500   -1.000
 4249.00    0.97990   1.00054   -1.000
 4250.00    0.97956   0.99913   -1.000
 4251.00    0.98129   1.01364   -1.000
 4252.00    0.99335   1.02792   -1.000
 4253.00    1.02087   1.02720  251.161
 4254.00    1.01492   1.01542  243.783
 4255.00    0.99201   1.01614   -1.000
 4256.00    1.02851   1.03719  244.602
 4257.00    1.07465   1.05485   -1.000
 4258.00    1.08560   1.04272   -1.000
 4259.00    1.04710   1.00468   -1.000
 4260.00    0.98533   0.97628  237.387
 4261.00    0.96006   0.98790   -1.000
 4262.00    1.00236   1.03761   -1.000
 4263.00    1.05692   1.09691   -1.000
 4264.00    1.09947   1.13770   -1.000
 4265.00    1.13956   1.15135   -1.000
 4266.00    1.14886   1.14324  223.104
 4267.00    1.10057   1.11929   -1.000
 4268.00    1.06862   1.08066   -1.000
 4269.00    1.04289   1.02829   -1.000
 4270.00    0.97635   0.96925  234.358
 4271.00    0.92577   0.91828  242.284
 4272.00    0.89042   0.89106  254.564
 4273.00    0.87477   0.89316   -1.000
 4274.00    0.87998   0.91843   -1.000
 4275.00    0.90932   0.96094   -1.000
 4276.00    0.95793   1.01636   -1.000
 4277.00    1.04881   1.06893   -1.000
 4278.00    1.09022   1.09609  249.579
 4279.00    1.05424   1.08997   -1.000
 4280.00    1.01515   1.06762   -1.000
 4281.00    1.00473   1.05302   -1.000
 4282.00    0.99638   1.05331   -1.000
 4283.00    1.00501   1.05617   -1.000
 4284.00    1.01808   1.04873   -1.000
 4285.00    0.99700   1.03273   -1.000
 4286.00    0.98945   1.01424   -1.000
 4287.00    0.97474   0.99230   -1.000
 4288.00    0.94572   0.96181   -1.000
 4289.00    0.89567   0.92648   -1.000
 4290.00    0.84047   0.90714   -1.000
 4291.00    0.86141   0.92157   -1.000
 4292.00    0.93018   0.95897   -1.000
 4293.00    0.98653   0.99155  281.727
 4294.00    1.00576   1.00082  265.400
 4295.00    0.98484   0.98743  253.493
 4296.00    0.93391   0.95879   -1.000
 4297.00    0.89586   0.91621   -1.000
 4298.00    0.85921   0.86134  260.387
 4299.00    0.80014   0.80855  269.422
 4300.00    0.73561   0.77652   -1.000
 4301.00    0.72788   0.77093   -1.000
 4302.00    0.73988   0.78220   -1.000
 4303.00    0.76741   0.79777   -1.000
 4304.00    0.77166   0.81012   -1.000
 4305.00    0.77887   0.81099   -1.000
 4306.00    0.77883   0.79264   -1.000
 4307.00    0.75339   0.76124  305.243
 4308.00    0.72651   0.73673   -1.000
 4309.00    0.71755   0.73864   -1.000
 4310.00    0.71821   0.77115   -1.000
 4311.00    0.76569   0.82204   -1.000
 4312.00    0.80805   0.87939   -1.000
 4313.00    0.84552   0.94376   -1.000
 4314.00    0.92212   1.01891   -1.000
 4315.00    1.02087   1.10230   -1.000
 4316.00    0.76609   1.18132   -1.000
 4317.00    0.50075   1.23677   -1.000
 4318.00    1.02292   1.25666   -1.000
 4319.00    1.24086   1.24716  211.105
 4320.00    1.18827   1.22128   -1.000
 4321.00    1.17788   1.17949  208.571
 4322.00    1.13121   1.11543  212.558
 4323.00    1.03389   1.03259  218.414
 4324.00    0.95484   0.95485  227.278
 4325.00    0.89330   0.91832   -1.000
 4326.00    0.88713   0.94386   -1.000
 4327.00    0.95477   1.02115   -1.000
 4328.00    1.06012   1.10954   -1.000
 4329.00    1.14490   1.16983   -1.000
 4330.00    1.18592   1.19397  229.967
 4331.00    1.18604   1.19981   -1.000
 4332.00    1.17032   1.20705   -1.000
 4333.00    1.15938   1.21744   -1.000
 4334.00    1.19293   1.21905   -1.000
 4335.00    1.21772   1.19647   -1.000
 4336.00    1.19017   1.13869   -1.000
 4337.00    1.08810   1.04837   -1.000
 4338.00    0.99239   0.94933   -1.000
 4339.00    0.90146   0.87590   -1.000
 4340.00    0.84721   0.85240  259.530
 4341.00    0.88349   0.88427  282.603
 4342.00    0.98103   0.95546   -1.000
 4343.00    1.06868   1.03246   -1.000
 4344.00    1.09465   1.09102  267.940
 4345.00    1.10248   1.13222   -1.000
 4346.00    1.13079   1.16489   -1.000
 4347.00    1.15256   1.19309   -1.000
 4348.00    1.16654   1.21267   -1.000
 4349.00    1.19320   1.20920   -1.000
 4350.00    1.16870   1.17201  215.818
 4351.00    1.10429   1.11584  213.851
 4352.00    1.04986   1.07736   -1.000
 4353.00    1.02560   1.08021   -1.000
 4354.00    1.04489   1.11688   -1.000
 4355.00    1.09675   1.16070   -1.000
 4356.00    1.14690   1.19029   -1.000
 4357.00    1.17878   1.20137   -1.000
 4358.00    1.17305   1.19990   -1.000
 4359.00    1.14276   1.19728   -1.000
 4360.00    1.16438   1.20586   -1.000
 4361.00    1.19690   1.22786   -1.000
 4362.00    1.20279   1.25263   -1.000
 4363.00    1.22163   1.27129   -1.000
 4364.00    1.22508   1.28327   -1.000
 4365.00    1.23917   1.28363   -1.000
 4366.00    1.25387   1.26464  206.881
 4367.00    1.18395   1.23345   -1.000
 4368.00    1.13819   1.20666   -1.000
 4369.00    1.16422   1.19191   -1.000
 4370.00    1.19196   1.18493  220.746
 4371.00    1.17443   1.17548  221.158
 4372.00    1.13769   1.15543   -1.000
 4373.00    1.11469   1.12490  218.242
 4374.00    1.08275   1.09484   -1.000
 4375.00    1.05947   1.08411   -1.000
 4376.00    1.07335   1.10508   -1.000
 4377.00    1.12175   1.14580   -1.000
 4378.00    1.17534   1.17961  234.872
 4379.00    1.17187   1.18744   -1.000
 4380.00    1.15007   1.16083  215.402
 4381.00    1.12757   1.09702   -1.000
 4382.00    1.07117   1.00713   -1.000
 4383.00    0.95943   0.92420   -1.000
 4384.00    0.86343   0.89216   -1.000
 4385.00    0.89677   0.92929   -1.000
 4386.00    1.00080   1.00410  285.968
 4387.00    1.07526   1.06723  276.110
 4388.00    1.11528   1.09524   -1.000
 4389.00    1.11497   1.09933   -1.000
 4390.00    1.10429   1.10126  227.592
 4391.00    1.09568   1.11213   -1.000
 4392.00    1.10168   1.12918   -1.000
 4393.00    1.14768   1.14146  229.538
 4394.00    1.15601   1.14666  224.586
 4395.00    1.12227   1.15703   -1.000
 4396.00    1.13201   1.18151   -1.000
 4397.00    1.18012   1.20782   -1.000
 4398.00    1.22981   1.21338   -1.000
 4399.00    1.18081   1.19528   -1.000
 4400.00    1.12601   1.17166   -1.000
 4401.00    1.10473   1.15579   -1.000
 4402.00    1.14377   1.14164  224.142
 4403.00    1.15438   1.11309   -1.000
 4404.00    1.08042   1.07253  223.677
 4405.00    1.02310   1.04622   -1.000
 4406.00    1.02964   1.05107   -1.000
 4407.00    1.07631   1.07869  243.915
 4408.00    1.09721   1.11468   -1.000
 4409.00    1.12911   1.15805   -1.000
 4410.00    1.17402   1.21118   -1.000
 4411.00    1.22978   1.25765   -1.000
 4412.00    1.24663   1.27188   -1.000
 4413.00    1.25080   1.24659  209.357
 4414.00    1.22387   1.19721   -1.000
 4415.00    1.14609   1.15275  204.608
 4416.00    1.09224   1.14246   -1.000
 4417.00    1.14272   1.17444   -1.000
 4418.00    1.21914   1.22847  228.243
 4419.00    1.24486   1.27489   -1.000
 4420.00    1.23705   1.29235   -1.000
 4421.00    1.23339   1.27905   -1.000
 4422.00    1.21386   1.25313   -1.000
 4423.00    1.21206   1.23490   -1.000
 4424.00    1.18852   1.23152   -1.000
 4425.00    1.17574   1.23444   -1.000
 4426.00    1.18369   1.23512   -1.000
 4427.00    1.18552   1.23681   -1.000
 4428.00    1.21032   1.24134   -1.000
 4429.00    1.23589   1.24443  213.587
 4430.00    1.21645   1.24485   -1.000
 4431.00    1.19981   1.24373   -1.000
 4432.00    1.19685   1.23809   -1.000
 4433.00    1.20830   1.21890  213.725
 4434.00    1.16314   1.18703   -1.000
 4435.00    1.11865   1.16671   -1.000
 4436.00    1.12969   1.18323   -1.000
 4437.00    1.18284   1.23427   -1.000
 4438.00    1.24145   1.28955   -1.000
 4439.00    1.25623   1.31655   -1.000
 4440.00    1.27157   1.30330   -1.000
 4441.00    1.25790   1.26186  198.437
 4442.00    1.21533   1.22163  200.541
 4443.00    1.17203   1.21110   -1.000
 4444.00    1.15375   1.23829   -1.000
 4445.00    1.18813   1.28392   -1.000
 4446.00    1.25047   1.32060   -1.000
 4447.00    1.26987   1.33655   -1.000
 4448.00    1.28620   1.33781   -1.000
 4449.00    1.31165   1.33466   -1.000
 4450.00    1.30157   1.32923   -1.000
 4451.00    1.28031   1.31773   -1.000
 4452.00    1.28002   1.29475   -1.000
 4453.00    1.26640   1.25476  207.292
 4454.00    1.21219   1.20380  206.529
 4455.00    1.14523   1.16291   -1.000
 4456.00    1.13406   1.14859   -1.000
 4457.00    1.16276   1.15637  227.268
 4458.00    1.16462   1.16866  228.827
 4459.00    1.15244   1.17442   -1.000
 4460.00    1.14027   1.17663   -1.000
 4461.00    1.14239   1.18386   -1.000
 4462.00    1.17191   1.20217   -1.000
 4463.00    1.22515   1.23143  226.415
 4464.00    1.25507   1.26186  226.262
 4465.00    1.24196   1.28072   -1.000
 4466.00    1.23391   1.28346   -1.000
 4467.00    1.24971   1.27491   -1.000
 4468.00    1.25975   1.26364  209.014
 4469.00    1.22595   1.25888   -1.000
 4470.00    1.22676   1.26960   -1.000
 4471.00    1.26999   1.29860   -1.000
 4472.00    1.31160   1.33714   -1.000
 4473.00    1.34947   1.37102   -1.000
 4474.00    1.32728   1.39129   -1.000
 4475.00    1.33717   1.40045   -1.000
 4476.00    1.36695   1.40628   -1.000
 4477.00    1.38017   1.40819   -1.000
 4478.00    1.37879   1.39540   -1.000
 4479.00    1.31608   1.36090   -1.000
 4480.00    1.24870   1.31366   -1.000
 4481.00    1.20547   1.27827   -1.000
 4482.00    1.21614   1.27563   -1.000
 4483.00    1.26379   1.30648   -1.000
 4484.00    1.32197   1.35491   -1.000
 4485.00    1.37362   1.39789   -1.000
 4486.00    1.37870   1.41550   -1.000
 4487.00    1.37858   1.40162   -1.000
 4488.00    1.33576   1.36769   -1.000
 4489.00    1.29050   1.33555   -1.000
 4490.00    1.24969   1.32413   -1.000
 4491.00    1.27466   1.33533   -1.000
 4492.00    1.30715   1.35195   -1.000
 4493.00    1.33252   1.35358   -1.000
 4494.00    1.32227   1.33707   -1.000
 4495.00    1.30351   1.32060   -1.000
 4496.00    1.29538   1.32277   -1.000
 4497.00    1.26934   1.34382   -1.000
 4498.00    1.32207   1.36991   -1.000
 4499.00    1.36218   1.38817   -1.000
 4500.00    1.36274   1.39521   -1.000
 4501.00    1.34157   1.39965   -1.000
 4502.00    1.33530   1.41451   -1.000
 4503.00    1.35595   1.44159   -1.000
 4504.00    1.40049   1.47111   -1.000
 4505.00    1.39976   1.48987   -1.000
 4506.00    1.40615   1.49073   -1.000
 4507.00    1.40767   1.47956   -1.000
 4508.00    1.41031   1.46890   -1.000
 4509.00    1.43774   1.46565   -1.000
 4510.00    1.44673   1.46652   -1.000
 4511.00    1.43326   1.46291   -1.000
 4512.00    1.41719   1.44913   -1.000
 4513.00    1.39619   1.42891   -1.000
 4514.00    1.36462   1.41109   -1.000
 4515.00    1.36051   1.40119   -1.000
 4516.00    1.33965   1.39885   -1.000
 4517.00    1.32251   1.39884   -1.000
 4518.00    1.31081   1.39828   -1.000
 4519.00    1.30105   1.40202   -1.000
 4520.00    1.34545   1.41274   -1.000
 4521.00    1.38576   1.42251   -1.000
 4522.00    1.36672   1.42032   -1.000
 4523.00    1.34928   1.40311   -1.000
 4524.00    1.31911   1.37698   -1.000
 4525.00    1.27984   1.34704   -1.000
 4526.00    1.25281   1.31201   -1.000
 4527.00    1.21285   1.27296   -1.000
 4528.00    1.18580   1.24002   -1.000
 4529.00    1.18792   1.22610   -1.000
 4530.00    1.20628   1.23437   -1.000
 4531.00    1.22979   1.25470   -1.000
 4532.00    1.25633   1.27013   -1.000
 4533.00    1.25564   1.26935   -1.000
 4534.00    1.22139   1.25830   -1.000
 4535.00    1.19458   1.25683   -1.000
 4536.00    1.22042   1.28249   -1.000
 4537.00    1.29493   1.33310   -1.000
 4538.00    1.35868   1.38558   -1.000
 4539.00    1.38449   1.41494   -1.000
 4540.00    1.37842   1.41604   -1.000
 4541.00    1.38791   1.40488   -1.000
 4542.00    1.38843   1.39878  193.398
 4543.00    1.36017   1.39958   -1.000
 4544.00    1.34212   1.39728   -1.000
 4545.00    1.31520   1.38661   -1.000
 4546.00    1.33402   1.37261   -1.000
 4547.00    1.24613   1.35970   -1.000
 4548.00    0.52451   1.34595   -1.000
 4549.00   -0.27852   1.33271    0.000
 4550.00   -0.15328   1.32887    0.000
 4551.00    0.36058   1.33855   -1.000
 4552.00    0.63508   1.35083   -1.000
 4553.00    0.42125   1.35220   -1.000
 4554.00    1.29445   1.34463   -1.000
 4555.00    1.30678   1.34229   -1.000
 4556.00    1.33504   1.35803   -1.000
 4557.00    1.38435   1.39236  208.091
 4558.00    1.38970   1.43108   -1.000
 4559.00    1.42415   1.45937   -1.000
 4560.00    1.47876   1.47338  188.931
 4561.00    1.46010   1.47511   -1.000
 4562.00    1.43521   1.46507   -1.000
 4563.00    1.39676   1.44324   -1.000
 4564.00    1.33062   1.41613   -1.000
 4565.00    1.31008   1.39827   -1.000
 4566.00    1.34601   1.40221   -1.000
 4567.00    1.39876   1.42656   -1.000
 4568.00    1.45282   1.45402  196.768
 4569.00    1.42534   1.46517   -1.000
 4570.00    1.40233   1.45443   -1.000
 4571.00    1.39065   1.43257   -1.000
 4572.00    1.35351   1.41822   -1.000
 4573.00    1.35092   1.42404   -1.000
 4574.00    1.44405   1.44454  197.959
 4575.00    1.45292   1.46255  195.039
 4576.00    1.41962   1.46807   -1.000
 4577.00    1.39073   1.46109   -1.000
 4578.00    1.37313   1.44221   -1.000
 4579.00    1.36695   1.41263   -1.000
 4580.00    1.33782   1.38070   -1.000
 4581.00    1.31925   1.35911   -1.000
 4582.00    1.34659   1.35442  200.411
 4583.00    1.38701   1.36191   -1.000
 4584.00    1.37348   1.37030  201.939
 4585.00    1.33666   1.37342   -1.000
 4586.00    1.33454   1.37772   -1.000
 4587.00    1.37414   1.39311   -1.000
 4588.00    1.37785   1.41869   -1.000
 4589.00    1.40817   1.44201   -1.000
 4590.00    1.43390   1.44968   -1.000
 4591.00    1.43463   1.43846  187.884
 4592.00    1.37614   1.41712   -1.000
 4593.00    1.34718   1.39922   -1.000
 4594.00    1.34988   1.39232   -1.000
 4595.00    1.35631   1.39399   -1.000
 4596.00    1.38341   1.39925   -1.000
 4597.00    1.38685   1.40621   -1.000
 4598.00    1.37553   1.41278   -1.000
 4599.00    1.37355   1.41481   -1.000
 4600.00    1.37761   1.41085   -1.000
 4601.00    1.36202   1.40480   -1.000
 4602.00    1.35622   1.40212   -1.000
 4603.00    1.38268   1.40420   -1.000
 4604.00    1.39221   1.40861   -1.000
 4605.00    1.39610   1.41496   -1.000
 4606.00    1.38707   1.42659   -1.000
 4607.00    1.37973   1.44644   -1.000
 4608.00    1.42902   1.47279   -1.000
 4609.00    1.48817   1.49772  189.824
 4610.00    1.51533   1.50966  185.918
 4611.00    1.48580   1.50370   -1.000
 4612.00    1.44004   1.48858   -1.000
 4613.00    1.43969   1.47664   -1.000
 4614.00    1.43396   1.47348   -1.000
 4615.00    1.45133   1.47780   -1.000
 4616.00    1.47311   1.48368  187.274
 4617.00    1.44322   1.48590   -1.000
 4618.00    1.42747   1.48429   -1.000
 4619.00    1.43573   1.48284   -1.000
 4620.00    1.44647   1.48628   -1.000
 4621.00    1.47469   1.49557   -1.000
 4622.00    1.48630   1.50501   -1.000
 4623.00    1.46350   1.50757   -1.000
 4624.00    1.48934   1.50323   -1.000
 4625.00    1.48819   1.49696  181.850
 4626.00    1.45598   1.49155   -1.000
 4627.00    1.45988   1.48813   -1.000
 4628.00    1.45961   1.48764   -1.000
 4629.00    1.44712   1.48941   -1.000
 4630.00    1.45940   1.49272   -1.000
 4631.00    1.48514   1.49707  185.949
 4632.00    1.45439   1.49872   -1.000
 4633.00    1.43987   1.49211   -1.000
 4634.00    1.43577   1.47887   -1.000
 4635.00    1.43255   1.46598   -1.000
 4636.00    1.43331   1.45548   -1.000
 4637.00    1.41392   1.44464   -1.000
 4638.00    1.40645   1.43354   -1.000
 4639.00    1.42159   1.42705  190.667
 4640.00    1.40262   1.43048   -1.000
 4641.00    1.41905   1.44431   -1.000
 4642.00    1.44161   1.46107   -1.000
 4643.00    1.46845   1.46835  188.675
 4644.00    1.47234   1.45788  184.408
 4645.00    1.44481   1.43193  182.657
 4646.00    1.40128   1.39972  184.105
 4647.00    1.36706   1.37426  188.034
 4648.00    1.33586   1.36931   -1.000
 4649.00    1.36386   1.38795   -1.000
 4650.00    1.43262   1.41900  197.560
 4651.00    1.45444   1.44659  193.618
 4652.00    1.45135   1.46095  189.419
 4653.00    1.44552   1.46082   -1.000
 4654.00    1.43819   1.44931  187.146
 4655.00    1.41601   1.43474   -1.000
 4656.00    1.38306   1.43077   -1.000
 4657.00    1.37523   1.44745   -1.000
 4658.00    1.40716   1.48315   -1.000
 4659.00    1.48555   1.52363   -1.000
 4660.00    1.55203   1.54933  186.077
 4661.00    1.52799   1.54926   -1.000
 4662.00    1.46084   1.52791   -1.000
 4663.00    1.44270   1.49708   -1.000
 4664.00    1.47382   1.46463  179.548
 4665.00    1.43247   1.42998  183.914
 4666.00    1.34275   1.38994   -1.000
 4667.00    1.29576   1.35060   -1.000
 4668.00    1.26923   1.32952   -1.000
 4669.00    1.30736   1.34040   -1.000
 4670.00    1.39800   1.37755   -1.000
 4671.00    1.45247   1.42005   -1.000
 4672.00    1.45575   1.44985  198.505
 4673.00    1.43946   1.46349   -1.000
 4674.00    1.45245   1.46992   -1.000
 4675.00    1.47464   1.47878  185.728
 4676.00    1.46331   1.48912   -1.000
 4677.00    1.49032   1.48996  185.230
 4678.00    1.52325   1.47410   -1.000
 4679.00    1.46926   1.44756   -1.000
 4680.00    1.40727   1.42294  182.193
 4681.00    1.39765   1.40955  186.257
 4682.00    1.38973   1.41012   -1.000
 4683.00    1.41161   1.42267  192.676
 4684.00    1.45627   1.44061  193.684
 4685.00    1.48166   1.45492   -1.000
 4686.00    1.48766   1.46099   -1.000
 4687.00    1.47163   1.46024  184.309
 4688.00    1.44726   1.45637  184.996
 4689.00    1.44445   1.45237  185.208
 4690.00    1.45690   1.44961  186.138
 4691.00    1.44989   1.44818  186.090
 4692.00    1.46602   1.44974  186.345
 4693.00    1.47970   1.45751   -1.000
 4694.00    1.50300   1.47026   -1.000
 4695.00    1.51387   1.48205   -1.000
 4696.00    1.51064   1.48655   -1.000
 4697.00    1.50648   1.47858   -1.000
 4698.00    1.42687   1.45743   -1.000
 4699.00    1.40486   1.43082   -1.000
 4700.00    1.39910   1.40796  183.701
 4701.00    1.40231   1.39140  188.684
 4702.00    1.38582   1.37997  190.053
 4703.00    1.39014   1.37608  188.829
 4704.00    1.40043   1.38409  190.738
 4705.00    1.43705   1.39974   -1.000
 4706.00    1.42087   1.40948  193.897
 4707.00    1.42918   1.40528   -1.000
 4708.00    1.38794   1.39494  188.259
 4709.00    1.37062   1.39308   -1.000
 4710.00    1.39654   1.40564  194.956
 4711.00    1.43902   1.42628  196.243
 4712.00    1.49421   1.44413   -1.000
 4713.00    1.52092   1.45065   -1.000
 4714.00    1.48585   1.44684   -1.000
 4715.00    1.44273   1.44555  182.688
 4716.00    1.45315   1.45792  184.908
 4717.00    1.49073   1.48230  187.945
 4718.00    1.50790   1.50814  187.144
 4719.00    1.50311   1.52642   -1.000
 4720.00    1.53107   1.53490  180.120
 4721.00    1.53768   1.53544  179.211
 4722.00    1.48859   1.53223   -1.000
 4723.00    1.47868   1.53068   -1.000
 4724.00    1.52565   1.53235  179.927
 4725.00    1.54768   1.53041  180.822
 4726.00    1.50797   1.51447  179.492
 4727.00    1.46159   1.48159   -1.000
 4728.00    1.43722   1.44251  178.852
 4729.00    1.42259   1.41534  183.807
 4730.00    1.39201   1.40928   -1.000
 4731.00    1.39029   1.41951   -1.000
 4732.00    1.43682   1.43705  192.687
 4733.00    1.42946   1.45495   -1.000
 4734.00    1.45173   1.46753   -1.000
 4735.00    1.47687   1.47205  186.899
 4736.00    1.47798   1.47157  185.400
 4737.00    1.50131   1.47186   -1.000
 4738.00    1.49826   1.47701   -1.000
 4739.00    1.48567   1.48655  185.688
 4740.00    1.48075   1.49470  185.429
 4741.00    1.48903   1.49782  183.243
 4742.00    1.50029   1.49986  183.610
 4743.00    1.49896   1.50474  184.613
 4744.00    1.50671   1.51085  184.558
 4745.00    1.50114   1.51644   -1.000
 4746.00    1.50143   1.52246   -1.000
 4747.00    1.52795   1.53057  181.685
 4748.00    1.53213   1.54036  181.613
 4749.00    1.55359   1.54890  180.102
 4750.00    1.54113   1.55382  178.454
 4751.00    1.54255   1.55296  178.251
 4752.00    1.51588   1.54334   -1.000
 4753.00    1.49863   1.52588   -1.000
 4754.00    1.47155   1.50718   -1.000
 4755.00    1.49424   1.49533  182.296
 4756.00    1.45932   1.49381   -1.000
 4757.00    1.47267   1.50033   -1.000
 4758.00    1.46913   1.51135   -1.000
 4759.00    1.47406   1.52298   -1.000
 4760.00    1.47263   1.52866   -1.000
 4761.00    1.44883   1.52075   -1.000
 4762.00    1.46773   1.49740   -1.000
 4763.00    1.42001   1.46630   -1.000
 4764.00    1.39578   1.43991   -1.000
 4765.00    1.38693   1.42458   -1.000
 4766.00    1.39260   1.42013   -1.000
 4767.00    1.41606   1.42881  195.198
 4768.00    1.43815   1.45330   -1.000
 4769.00    1.48482   1.48645  193.040
 4770.00    1.50231   1.51205  190.074
 4771.00    1.49588   1.52069   -1.000
 4772.00    1.48289   1.51897   -1.000
 4773.00    1.46667   1.52107   -1.000
 4774.00    1.50440   1.53415   -1.000
 4775.00    1.52613   1.55266   -1.000
 4776.00    1.52301   1.56643   -1.000
 4777.00    1.54534   1.57178   -1.000
 4778.00    1.54158   1.57047   -1.000
 4779.00    1.51990   1.56431   -1.000
 4780.00    1.51725   1.55455   -1.000
 4781.00    1.51227   1.54277   -1.000
 4782.00    1.48112   1.52942   -1.000
 4783.00    1.47284   1.51507   -1.000
 4784.00    1.47579   1.50316   -1.000
 4785.00    1.45619   1.49558   -1.000
 4786.00    1.47147   1.49038   -1.000
 4787.00    1.46621   1.48652   -1.000
 4788.00    1.44219   1.48539   -1.000
 4789.00    1.45579   1.48841   -1.000
 4790.00    1.48606   1.49659  191.436
 4791.00    1.46893   1.51155   -1.000
 4792.00    1.47888   1.53417   -1.000
 4793.00    1.49803   1.56272   -1.000
 4794.00    1.56373   1.59225   -1.000
 4795.00    1.56421   1.61497   -1.000
 4796.00    1.57365   1.62215   -1.000
 4797.00    1.54418   1.61025   -1.000
 4798.00    1.51082   1.58547   -1.000
 4799.00    1.50663   1.55994   -1.000
 4800.00    1.47995   1.54599   -1.000
 4801.00    1.49938   1.55073   -1.000
 4802.00    1.53629   1.56991   -1.000
 4803.00    1.56418   1.58861   -1.000
 4804.00    1.55658   1.59327   -1.000
 4805.00    1.52731   1.58255   -1.000
 4806.00    1.51290   1.56553   -1.000
 4807.00    1.54086   1.55129  182.208
 4808.00    1.51487   1.54403   -1.000
 4809.00    1.50531   1.54605   -1.000
 4810.00    1.52459   1.55637   -1.000
 4811.00    1.54492   1.56880   -1.000
 4812.00    1.56746   1.57739  184.283
 4813.00    1.53228   1.58178   -1.000
 4814.00    1.53120   1.58585   -1.000
 4815.00    1.54518   1.59350   -1.000
 4816.00    1.55032   1.60551   -1.000
 4817.00    1.56646   1.61888   -1.000
 4818.00    1.59037   1.62941   -1.000
 4819.00    1.59201   1.63501   -1.000
 4820.00    1.57805   1.63491   -1.000
 4821.00    1.53715   1.62542   -1.000
 4822.00    1.51907   1.60266   -1.000
 4823.00    1.51399   1.57097   -1.000
 4824.00    1.46923   1.54476   -1.000
 4825.00    1.47885   1.53884   -1.000
 4826.00    1.52141   1.55284   -1.000
 4827.00    1.52246   1.56992   -1.000
 4828.00    1.53533   1.57618   -1.000
 4829.00    1.51588   1.57206   -1.000
 4830.00    1.49558   1.56420   -1.000
 4831.00    1.50212   1.55436   -1.000
 4832.00    1.49200   1.54327   -1.000
 4833.00    1.50309   1.53842   -1.000
 4834.00    1.51688   1.54559   -1.000
 4835.00    1.56859   1.56059  185.358
 4836.00    1.58792   1.57340  182.258
 4837.00    1.52368   1.57623   -1.000
 4838.00    1.49295   1.56773   -1.000
 4839.00    1.49967   1.55118   -1.000
 4840.00    1.47527   1.53309   -1.000
 4841.00    1.47147   1.52090   -1.000
 4842.00    1.50634   1.51760  186.639
 4843.00    1.55765   1.52138   -1.000
 4844.00    1.51659   1.53067  186.078
 4845.00    1.52634   1.54600   -1.000
 4846.00    1.54382   1.56268   -1.000
 4847.00    1.55851   1.56935  181.694
 4848.00    1.53159   1.56180   -1.000
 4849.00    1.52279   1.55079   -1.000
 4850.00    1.52838   1.54826   -1.000
 4851.00    1.51872   1.55308   -1.000
 4852.00    1.52031   1.55431   -1.000
 4853.00    1.53629   1.54208  181.799
 4854.00    1.51409   1.51368  181.593
 4855.00    1.46367   1.47618  182.741
 4856.00    1.41003   1.44418   -1.000
 4857.00    1.39467   1.42498   -1.000
 4858.00    1.42042   1.40431   -1.000
 4859.00    1.38475   1.35429   -1.000
 4860.00    1.24906   1.26831   -1.000
 4861.00    1.17238   1.18182  199.272
 4862.00    1.22807   1.14532   -1.000
 4863.00    1.37698   1.17935   -1.000
 4864.00    1.46356   1.25835   -1.000
 4865.00    1.39855   1.34130   -1.000
 4866.00    1.36764   1.40628   -1.000
 4867.00    1.41700   1.44956   -1.000
 4868.00    1.46412   1.47359  195.184
 4869.00    1.47267   1.47695  191.326
 4870.00    1.45374   1.45684  189.743
 4871.00    1.39138   1.41994   -1.000
 4872.00    1.36765   1.38955   -1.000
 4873.00    1.38854   1.39107  196.650
 4874.00    1.40958   1.42507   -1.000
 4875.00    1.44808   1.46682   -1.000
 4876.00    1.48194   1.49517  193.059
 4877.00    1.49141   1.50983   -1.000
 4878.00    1.49182   1.52360   -1.000
 4879.00    1.49595   1.54266   -1.000
 4880.00    1.49737   1.55995   -1.000
 4881.00    1.50065   1.56487   -1.000
 4882.00    1.47333   1.55629   -1.000
 4883.00    1.46909   1.54317   -1.000
 4884.00    1.52113   1.52957  187.199
 4885.00    1.49829   1.51136  188.134
 4886.00    1.47434   1.49059   -1.000
 4887.00    1.46323   1.47581  188.685
 4888.00    1.44502   1.46846   -1.000
 4889.00    1.43780   1.45866   -1.000
 4890.00    1.40532   1.43888   -1.000
 4891.00    1.34587   1.42066   -1.000
 4892.00    1.41609   1.42905  194.321
 4893.00    1.46561   1.47784  198.453
 4894.00    1.54922   1.55271  196.576
 4895.00    1.59458   1.62123   -1.000
 4896.00    1.62706   1.66132   -1.000
 4897.00    1.61126   1.67307   -1.000
 4898.00    1.62350   1.66557   -1.000
 4899.00    1.62030   1.64767   -1.000
 4900.00    1.56518   1.62760   -1.000
 4901.00    1.55424   1.61163   -1.000
 4902.00    1.52536   1.59938   -1.000
 4903.00    1.52434   1.58787   -1.000
 4904.00    1.50906   1.58164   -1.000
 4905.00    1.53574   1.59073   -1.000
 4906.00    1.55113   1.61253   -1.000
 4907.00    1.59985   1.62712   -1.000
 4908.00    1.56358   1.61776   -1.000
 4909.00    1.51301   1.58628   -1.000
 4910.00    1.50194   1.54955   -1.000
 4911.00    1.47327   1.52780   -1.000
 4912.00    1.48017   1.53145   -1.000
 4913.00    1.50228   1.55572   -1.000
 4914.00    1.54716   1.58664   -1.000
 4915.00    1.56729   1.61140   -1.000
 4916.00    1.58140   1.61767   -1.000
 4917.00    1.56680   1.59201   -1.000
 4918.00    1.49539   1.53014   -1.000
 4919.00    1.42928   1.44896   -1.000
 4920.00    1.37435   1.38265  184.281
 4921.00    1.36865   1.36091  194.543
 4922.00    1.39938   1.38599  203.590
 4923.00    1.46387   1.43326   -1.000
 4924.00    1.48899   1.47521  198.385
 4925.00    1.46530   1.50519   -1.000
 4926.00    1.46942   1.53431   -1.000
 4927.00    1.52043   1.56979   -1.000
 4928.00    1.57022   1.60715   -1.000
 4929.00    1.58336   1.63789   -1.000
 4930.00    1.62572   1.65554   -1.000
 4931.00    1.62639   1.65519   -1.000
 4932.00    1.56774   1.63361   -1.000
 4933.00    1.51967   1.59672   -1.000
 4934.00    1.49478   1.56208   -1.000
 4935.00    1.49168   1.54483   -1.000
 4936.00    1.51482   1.54046   -1.000
 4937.00    1.53103   1.52871  187.653
 4938.00    1.44866   1.50090   -1.000
 4939.00    1.42158   1.47727   -1.000
 4940.00    1.46593   1.48487   -1.000
 4941.00    1.53835   1.52707  195.069
 4942.00    1.56987   1.58205  193.050
 4943.00    1.57760   1.62394   -1.000
 4944.00    1.59682   1.64237   -1.000
 4945.00    1.62800   1.64213  177.135
 4946.00    1.60174   1.63508   -1.000
 4947.00    1.59919   1.63388   -1.000
 4948.00    1.61209   1.64432   -1.000
 4949.00    1.65552   1.66105  177.416
 4950.00    1.67263   1.67364  175.738
 4951.00    1.63272   1.67673   -1.000
 4952.00    1.62160   1.67137   -1.000
 4953.00    1.62409   1.65999   -1.000
 4954.00    1.60412   1.64171   -1.000
 4955.00    1.58742   1.60846   -1.000
 4956.00    1.52806   1.55092   -1.000
 4957.00    1.44678   1.48037   -1.000
 4958.00    1.41476   1.43548   -1.000
 4959.00    1.46301   1.44842  193.511
 4960.00    1.56646   1.50949   -1.000
 4961.00    1.62548   1.57701   -1.000
 4962.00    1.61858   1.61767  185.202
 4963.00    1.59129   1.62748   -1.000
 4964.00    1.57123   1.61562   -1.000
 4965.00    1.57645   1.59084  178.663
 4966.00    1.54515   1.56335   -1.000
 4967.00    1.51907   1.54348   -1.000
 4968.00    1.49982   1.53544   -1.000
 4969.00    1.50637   1.53828   -1.000
 4970.00    1.54102   1.54993  188.555
 4971.00    1.56558   1.56828  187.985
 4972.00    1.58614   1.59034  186.567
 4973.00    1.58639   1.61176   -1.000
 4974.00    1.60320   1.62730   -1.000
 4975.00    1.59897   1.63302   -1.000
 4976.00    1.59185   1.62761   -1.000
 4977.00    1.60498   1.61219  177.988
 4978.00    1.56300   1.59001   -1.000
 4979.00    1.52662   1.56525   -1.000
 4980.00    1.49492   1.53797   -1.000
 4981.00    1.49505   1.50175  186.691
 4982.00    1.43120   1.45360   -1.000
 4983.00    1.36623   1.40715   -1.000
 4984.00    1.39527   1.38633  198.083
 4985.00    1.42505   1.40378   -1.000
 4986.00    1.47099   1.45055   -1.000
 4987.00    1.50403   1.50477  200.463
 4988.00    1.54707   1.54579  194.789
 4989.00    1.54644   1.56229   -1.000
 4990.00    1.52774   1.55715   -1.000
 4991.00    1.53659   1.54530  184.176
 4992.00    1.53025   1.54062  186.951
 4993.00    1.56255   1.54561  188.864
 4994.00    1.52726   1.55437   -1.000
 4995.00    1.54085   1.56295   -1.000
 4996.00    1.58353   1.57096  186.420
 4997.00    1.56294   1.57471  186.345
 4998.00    1.54990   1.56594   -1.000
 4999.00    1.53763   1.54071  184.446
 5000.00    1.50016   1.50634  185.594
 5001.00    1.45632   1.47748   -1.000
 5002.00    1.49237   1.46473   -1.000
 5003.00    1.51628   1.46515   -1.000
 5004.00    1.52299   1.46407   -1.000
 5005.00    1.47670   1.44935   -1.000
 5006.00    1.43570   1.42667  191.304
 5007.00    1.44858   1.41810   -1.000
 5008.00    1.46068   1.43861   -1.000
 5009.00    1.53130   1.47682   -1.000
 5010.00    1.50569   1.50523  195.232
 5011.00    1.48072   1.50351   -1.000
 5012.00    1.45833   1.47160  187.251
 5013.00    1.41644   1.42790  189.727
 5014.00    1.42547   1.39607   -1.000
 5015.00    1.42359   1.38864   -1.000
 5016.00    1.43001   1.39985   -1.000
 5017.00    1.46833   1.41572   -1.000
 5018.00    1.46579   1.42891   -1.000
 5019.00    1.45595   1.44214  197.721
 5020.00    1.48679   1.45686   -1.000
 5021.00    1.51184   1.46736   -1.000
 5022.00    1.49663   1.47050   -1.000
 5023.00    1.48761   1.47318  193.097
 5024.00    1.50974   1.48531   -1.000
 5025.00    1.49457   1.50482  194.384
 5026.00    1.50629   1.51672  193.275
 5027.00    1.51264   1.51393  191.226
 5028.00    1.50704   1.50739  189.939
 5029.00    1.51304   1.51163  190.839
 5030.00    1.55379   1.53113   -1.000
 5031.00    1.60728   1.56032   -1.000
 5032.00    1.61022   1.58962   -1.000
 5033.00    1.62107   1.60841  183.774
 5034.00    1.62884   1.60539   -1.000
 5035.00    1.57137   1.57718  178.696
 5036.00    1.47765   1.53705   -1.000
 5037.00    1.47909   1.50390   -1.000
 5038.00    1.46411   1.48073   -1.000
 5039.00    1.45010   1.45177  195.275
 5040.00    1.37967   1.40735   -1.000
 5041.00    1.32654   1.36752   -1.000
 5042.00    1.38034   1.36600  206.157
 5043.00    1.44932   1.41488   -1.000
 5044.00    1.51541   1.49348   -1.000
 5045.00    1.54394   1.56700   -1.000
 5046.00    1.59203   1.61107   -1.000
 5047.00    1.62478   1.61857  183.988
 5048.00    1.59218   1.59405  180.073
 5049.00    1.58766   1.55158   -1.000
 5050.00    0.43669   1.51123   -1.000
 5051.00   -0.12447   1.48978    0.000
 5052.00   -0.08032   1.49316    0.000
 5053.00    1.00683   1.51776   -1.000
 5054.00    1.68281   1.55279   -1.000
 5055.00    1.62871   1.58421   -1.000
 5056.00    1.62781   1.60468   -1.000
 5057.00    1.63827   1.61687   -1.000
 5058.00    1.64646   1.62592   -1.000
 5059.00    1.63084   1.63525  178.177
 5060.00    1.62180   1.64523   -1.000
 5061.00    1.64483   1.65282  178.822
 5062.00    1.63620   1.65102   -1.000
 5063.00    1.59684   1.63011   -1.000
 5064.00    1.53978   1.58952   -1.000
 5065.00    1.49125   1.54582   -1.000
 5066.00    1.49260   1.51902   -1.000
 5067.00    1.49447   1.51436   -1.000
 5068.00    1.51597   1.52259  194.109
 5069.00    1.56620   1.53350   -1.000
 5070.00    1.58278   1.54315   -1.000
 5071.00    1.59773   1.54781   -1.000
 5072.00    1.56884   1.54389   -1.000
 5073.00    1.54008   1.53645  186.173
 5074.00    1.55130   1.53564  187.613
 5075.00    1.56540   1.54326   -1.000
 5076.00    1.56967   1.55077   -1.000
 5077.00    1.58073   1.54738   -1.000
 5078.00    1.55947   1.52490   -1.000
 5079.00    1.52481   1.48449   -1.000
 5080.00    1.46569   1.44372   -1.000
 5081.00    1.45154   1.42449   -1.000
 5082.00    1.45795   1.43180   -1.000
 5083.00    1.50661   1.45450   -1.000
 5084.00    1.51607   1.48186   -1.000
 5085.00    1.57016   1.51072   -1.000
 5086.00    1.57601   1.53915   -1.000
 5087.00    1.58795   1.56156   -1.000
 5088.00    1.59637   1.57489   -1.000
 5089.00    1.57090   1.58242  185.430
 5090.00    1.61226   1.58932   -1.000
 5091.00    1.61128   1.59904  184.235
 5092.00    1.61468   1.61281  182.912
 5093.00    1.62037   1.62756  181.893
 5094.00    1.63556   1.63423  180.949
 5095.00    1.62505   1.62235  178.897
 5096.00    1.59018   1.58953  177.270
 5097.00    1.54261   1.54485  178.775
 5098.00    1.50731   1.50316  182.448
 5099.00    1.49073   1.47917  186.392
 5100.00    1.51201   1.48273   -1.000
 5101.00    1.53740   1.51085   -1.000
 5102.00    1.55585   1.54541  195.686
 5103.00    1.57086   1.56622  191.077
 5104.00    1.55924   1.56711  185.550
 5105.00    1.55063   1.55444  183.768
 5106.00    1.53682   1.53533  184.749
 5107.00    1.52687   1.51420  187.142
 5108.00    1.53242   1.49591   -1.000
 5109.00    1.51705   1.48674   -1.000
 5110.00    1.51899   1.49131   -1.000
 5111.00    1.52233   1.50970  194.073
 5112.00    1.52804   1.53628  192.861
 5113.00    1.57657   1.56243  191.480
 5114.00    1.58582   1.58350  188.783
 5115.00    1.60233   1.60114  186.450
 5116.00    1.63110   1.61757  184.177
 5117.00    1.65019   1.63147   -1.000
 5118.00    1.61785   1.63892   -1.000
 5119.00    1.59938   1.63573   -1.000
 5120.00    1.63413   1.62002  178.087
 5121.00    1.59817   1.59374  178.518
 5122.00    1.54365   1.56095   -1.000
 5123.00    1.48703   1.52574   -1.000
 5124.00    1.46349   1.49410   -1.000
 5125.00    1.47304   1.47426  191.232
 5126.00    1.49439   1.47006   -1.000
 5127.00    1.48209   1.47565  198.590
 5128.00    1.48693   1.48201  196.969
 5129.00    1.45416   1.48678   -1.000
 5130.00    1.48841   1.49416  194.798
 5131.00    1.54270   1.50775   -1.000
 5132.00    1.54947   1.52598   -1.000
 5133.00    1.56454   1.54405   -1.000
 5134.00    1.57927   1.55860   -1.000
 5135.00    1.58134   1.56768  187.551
 5136.00    1.58656   1.56654   -1.000
 5137.00    1.55253   1.55054  184.138
 5138.00    1.51280   1.52397  183.599
 5139.00    1.50586   1.49984  186.698
 5140.00    1.50864   1.48784   -1.000
 5141.00    1.51406   1.48633   -1.000
 5142.00    1.50085   1.48802  194.780
 5143.00    1.48578   1.49072  193.134
 5144.00    1.48051   1.49656   -1.000
 5145.00    1.53471   1.50263   -1.000
 5146.00    1.54737   1.50139   -1.000
 5147.00    1.50734   1.49292  193.374
 5148.00    1.50178   1.48831  192.538
 5149.00    1.54412   1.49392   -1.000
 5150.00    1.54607   1.50096   -1.000
 5151.00    1.49706   1.49877  192.553
 5152.00    1.49988   1.48844  191.376
 5153.00    1.49531   1.47872   -1.000
 5154.00    1.49430   1.47842  197.020
 5155.00    1.52728   1.49353   -1.000
 5156.00    1.56045   1.52368   -1.000
 5157.00    1.59819   1.55999   -1.000
 5158.00    1.62583   1.59066   -1.000
 5159.00    1.62678   1.60930   -1.000
 5160.00    1.63544   1.61536   -1.000
 5161.00    1.64750   1.60969   -1.000
 5162.00    1.62954   1.59189   -1.000
 5163.00    1.61725   1.56156   -1.000
 5164.00    1.58050   1.51735   -1.000
 5165.00    1.48672   1.45135   -1.000
 5166.00    1.37212   1.35812  185.543
 5167.00    1.22198   1.25750   -1.000
 5168.00    1.16934   1.19296   -1.000
 5169.00    1.24399   1.18979   -1.000
 5170.00    1.31750   1.21847   -1.000
 5171.00    1.28745   1.22327   -1.000
 5172.00    1.20430   1.19034   -1.000
 5173.00    1.15671   1.16471  224.503
 5174.00    1.22979   1.19856   -1.000
 5175.00    1.35795   1.29353   -1.000
 5176.00    1.47927   1.40161   -1.000
 5177.00    1.52174   1.47860   -1.000
 5178.00    1.54793   1.51521   -1.000
 5179.00    1.56653   1.52028   -1.000
 5180.00    1.55043   1.49504   -1.000
 5181.00    1.48378   1.43045   -1.000
 5182.00    1.36348   1.32781   -1.000
 5183.00    1.21985   1.21951  198.050
 5184.00    1.13282   1.16169   -1.000
 5185.00    1.19757   1.19113  235.737
 5186.00    1.38326   1.28988   -1.000
 5187.00    1.52294   1.40182   -1.000
 5188.00    1.57059   1.48101   -1.000
 5189.00    1.58073   1.51826   -1.000
 5190.00    1.58438   1.52418   -1.000
 5191.00    1.54994   1.50569   -1.000
 5192.00    1.50842   1.47293   -1.000
 5193.00    1.49118   1.44674   -1.000
 5194.00    1.48831   1.44250   -1.000
 5195.00    1.52023   1.45748   -1.000
 5196.00    1.55099   1.48105   -1.000
 5197.00    1.59557   1.50861   -1.000
 5198.00    1.63043   1.53990   -1.000
 5199.00    1.63714   1.57024   -1.000
 5200.00    1.66281   1.59112   -1.000
 5201.00    1.63770   1.59608   -1.000
 5202.00    1.61857   1.58222   -1.000
 5203.00    1.60755   1.54895   -1.000
 5204.00    1.54232   1.49938   -1.000
 5205.00    1.46999   1.44362   -1.000
 5206.00    1.43377   1.39669   -1.000
 5207.00    1.42763   1.36868   -1.000
 5208.00    1.44555   1.36000   -1.000
 5209.00    1.43353   1.36960   -1.000
 5210.00    1.46194   1.40077   -1.000
 5211.00    1.54179   1.45458   -1.000
 5212.00    1.62496   1.52006   -1.000
 5213.00    1.67259   1.57501   -1.000
 5214.00    1.64788   1.59920   -1.000
 5215.00    1.64594   1.59003   -1.000
 5216.00    1.58742   1.56633   -1.000
 5217.00    1.57132   1.55462   -1.000
 5218.00    1.61281   1.56907   -1.000
 5219.00    1.65307   1.60323   -1.000
 5220.00    1.66962   1.63953   -1.000
 5221.00    1.68970   1.66313   -1.000
 5222.00    1.69667   1.66618   -1.000
 5223.00    1.67137   1.64495   -1.000
 5224.00    1.60187   1.59851  177.447
 5225.00    1.52471   1.53140  179.449
 5226.00    1.46667   1.46202  184.645
 5227.00    1.46678   1.42121   -1.000
 5228.00    1.49217   1.43221   -1.000
 5229.00    1.57557   1.48794   -1.000
 5230.00    1.66485   1.55247   -1.000
 5231.00    1.67564   1.58965   -1.000
 5232.00    1.63793   1.58955   -1.000
 5233.00    1.59849   1.56855   -1.000
 5234.00    1.58233   1.55351   -1.000
 5235.00    1.60799   1.56352   -1.000
 5236.00    1.64414   1.59810   -1.000
 5237.00    1.66795   1.64088   -1.000
 5238.00    1.68791   1.67399  183.060
 5239.00    1.71764   1.68971   -1.000
 5240.00    1.73290   1.69124   -1.000
 5241.00    1.69874   1.68594  176.089
 5242.00    1.71501   1.68042   -1.000
 5243.00    1.73615   1.67999   -1.000
 5244.00    1.70497   1.68456   -1.000
 5245.00    1.70899   1.68411   -1.000
 5246.00    1.67776   1.66714  175.240
 5247.00    1.61603   1.63514   -1.000
 5248.00    1.59635   1.60269  178.040
 5249.00    1.61621   1.58230   -1.000
 5250.00    1.63836   1.57508   -1.000
 5251.00    1.61350   1.57691   -1.000
 5252.00    1.60481   1.58523   -1.000
 5253.00    1.65003   1.59578   -1.000
 5254.00    1.65383   1.60306   -1.000
 5255.00    1.63842   1.61001   -1.000
 5256.00    1.65575   1.62754   -1.000
 5257.00    1.72457   1.65934   -1.000
 5258.00    1.75682   1.69306   -1.000
 5259.00    1.73982   1.70918   -1.000
 5260.00    1.72573   1.69475   -1.000
 5261.00    1.69113   1.64904   -1.000
 5262.00    1.61241   1.58115   -1.000
 5263.00    1.53041   1.50596   -1.000
 5264.00    1.45502   1.43966   -1.000
 5265.00    1.41626   1.39600   -1.000
 5266.00    1.45559   1.38160   -1.000
 5267.00    1.49187   1.38699   -1.000
 5268.00    1.49556   1.38854   -1.000
 5269.00    1.44714   1.37128   -1.000
 5270.00    1.40268   1.35170   -1.000
 5271.00    1.45288   1.36471   -1.000
 5272.00    1.56481   1.41967   -1.000
 5273.00    1.61613   1.48587   -1.000
 5274.00    1.61284   1.53110   -1.000
 5275.00    1.62188   1.55501   -1.000
 5276.00    1.64258   1.57875   -1.000
 5277.00    1.67542   1.61632   -1.000
 5278.00    1.73025   1.65992   -1.000
 5279.00    1.77967   1.68741   -1.000
 5280.00    1.74196   1.68334   -1.000
 5281.00    1.65864   1.65215  173.361
 5282.00    1.62707   1.61213  173.885
 5283.00    1.60711   1.58310   -1.000
 5284.00    1.62325   1.58146   -1.000
 5285.00    1.67617   1.61347   -1.000
 5286.00    1.73109   1.66698   -1.000
 5287.00    1.77028   1.71713   -1.000
 5288.00    1.78136   1.74675   -1.000
 5289.00    1.75510   1.75799  172.836
 5290.00    1.76681   1.76214  170.980
 5291.00    1.79776   1.76398   -1.000
 5292.00    1.77914   1.76163  171.760
 5293.00    1.75734   1.75389  170.873
 5294.00    1.74602   1.73960  170.413
 5295.00    1.72700   1.71321  171.237
 5296.00    1.70202   1.66902   -1.000
 5297.00    1.61185   1.61410  175.003
 5298.00    1.56008   1.57178  179.423
 5299.00    1.61311   1.56238   -1.000
 5300.00    1.62144   1.58297   -1.000
 5301.00    1.65563   1.61410   -1.000
 5302.00    1.67781   1.64308   -1.000
 5303.00    1.71362   1.67304   -1.000
 5304.00    1.75822   1.70803   -1.000
 5305.00    1.78906   1.73904   -1.000
 5306.00    1.79045   1.75367   -1.000
 5307.00    1.79126   1.75237   -1.000
 5308.00    1.75119   1.74845  170.673
 5309.00    1.77738   1.75379   -1.000
 5310.00    1.81483   1.76725   -1.000
 5311.00    1.80007   1.77829   -1.000
 5312.00    1.76511   1.77899  171.109
 5313.00    1.75880   1.76923  169.908
 5314.00    1.75342   1.75301  169.900
 5315.00    1.74573   1.73379  170.758
 5316.00    1.74940   1.71516   -1.000
 5317.00    1.72895   1.70342   -1.000
 5318.00    1.74019   1.70392   -1.000
 5319.00    1.75642   1.71374   -1.000
 5320.00    1.77112   1.72242   -1.000
 5321.00    1.78273   1.72059   -1.000
 5322.00    1.73333   1.70446   -1.000
 5323.00    1.71074   1.67609   -1.000
 5324.00    1.67720   1.64300   -1.000
 5325.00    1.63540   1.61124   -1.000
 5326.00    1.63661   1.57514   -1.000
 5327.00    1.58456   1.52413   -1.000
 5328.00    1.52247   1.46861   -1.000
 5329.00    1.50766   1.44421   -1.000
 5330.00    1.57423   1.47603   -1.000
 5331.00    1.64683   1.54715   -1.000
 5332.00    1.71830   1.61654   -1.000
 5333.00    1.75797   1.66128   -1.000
 5334.00    1.74611   1.68823   -1.000
 5335.00    1.75594   1.70928   -1.000
 5336.00    1.77063   1.72340   -1.000
 5337.00    1.75731   1.72346   -1.000
 5338.00    1.74850   1.70612   -1.000
 5339.00    1.71414   1.67311   -1.000
 5340.00    1.68473   1.63439   -1.000
 5341.00    1.63065   1.60955   -1.000
 5342.00    1.62322   1.61448  182.129
 5343.00    1.69666   1.64351   -1.000
 5344.00    1.75031   1.67303   -1.000
 5345.00    1.71660   1.68455   -1.000
 5346.00    1.71643   1.67778   -1.000
 5347.00    1.71802   1.66297   -1.000
 5348.00    1.70363   1.64944   -1.000
 5349.00    1.68983   1.64402   -1.000
 5350.00    1.69715   1.65255   -1.000
 5351.00    1.72898   1.67645   -1.000
 5352.00    1.75016   1.70836   -1.000
 5353.00    1.76616   1.73700   -1.000
 5354.00    1.78860   1.75874   -1.000
 5355.00    1.79228   1.77781  172.696
 5356.00    1.80748   1.79577  171.902
 5357.00    1.83027   1.80841   -1.000
 5358.00    1.84215   1.81249   -1.000
 5359.00    1.84843   1.80856   -1.000
 5360.00    1.84252   1.79741   -1.000
 5361.00    1.80575   1.77910   -1.000
 5362.00    1.78395   1.75572   -1.000
 5363.00    1.78014   1.73109   -1.000
 5364.00    1.74304   1.70829   -1.000
 5365.00    1.73704   1.68994   -1.000
 5366.00    1.74048   1.67893   -1.000
 5367.00    1.70897   1.67387   -1.000
 5368.00    1.70912   1.66488   -1.000
 5369.00    1.70935   1.63994   -1.000
 5370.00    1.66491   1.59916   -1.000
 5371.00    1.60747   1.56203   -1.000
 5372.00    1.63798   1.55526   -1.000
 5373.00    1.70195   1.59068   -1.000
 5374.00    1.73756   1.65325   -1.000
 5375.00    1.77490   1.71269   -1.000
 5376.00    1.81753   1.74811   -1.000
 5377.00    1.80886   1.75984   -1.000
 5378.00    1.81068   1.75981   -1.000
 5379.00    1.80230   1.75646   -1.000
 5380.00    1.77542   1.75014   -1.000
 5381.00    1.77594   1.73872   -1.000
 5382.00    1.77438   1.72391   -1.000
 5383.00    1.78217   1.71213   -1.000
 5384.00    1.73579   1.71059   -1.000
 5385.00    1.75799   1.72159   -1.000
 5386.00    1.78851   1.73849   -1.000
 5387.00    1.80364   1.74924   -1.000
 5388.00    1.78015   1.74535   -1.000
 5389.00    1.74010   1.72729  172.717
 5390.00    1.70391   1.70246  173.316
 5391.00    1.69420   1.67950  174.849
 5392.00    1.69937   1.66338   -1.000
 5393.00    1.71918   1.65438   -1.000
 5394.00    1.70580   1.64851   -1.000
 5395.00    1.67665   1.63799   -1.000
 5396.00    1.63538   1.61821   -1.000
 5397.00    1.62828   1.59642   -1.000
 5398.00    1.67552   1.58982   -1.000
 5399.00    1.69600   1.60857   -1.000
 5400.00    1.71122   1.64307   -1.000
 5401.00    1.74466   1.67276   -1.000
 5402.00    1.75014   1.68190   -1.000
 5403.00    1.71962   1.66346   -1.000
 5404.00    1.65977   1.61992   -1.000
 5405.00    1.60494   1.56952   -1.000
 5406.00    1.59517   1.53960   -1.000
 5407.00    1.61413   1.54360   -1.000
 5408.00    1.65174   1.56799   -1.000
 5409.00    1.66871   1.58838   -1.000
 5410.00    1.64723   1.59841   -1.000
 5411.00    1.66126   1.61276   -1.000
 5412.00    1.70458   1.64205   -1.000
 5413.00    1.76828   1.67719   -1.000
 5414.00    1.79426   1.70276   -1.000
 5415.00    1.75523   1.71687   -1.000
 5416.00    1.76061   1.72927   -1.000
 5417.00    1.79755   1.74422   -1.000
 5418.00    1.79334   1.75515   -1.000
 5419.00    1.79054   1.75561   -1.000
 5420.00    1.77365   1.74752   -1.000
 5421.00    1.77895   1.73747   -1.000
 5422.00    1.74989   1.72783   -1.000
 5423.00    1.74045   1.71636   -1.000
 5424.00    1.75738   1.70552   -1.000
 5425.00    1.71931   1.70569  175.004
 5426.00    1.77037   1.72195   -1.000
 5427.00    1.78702   1.73875   -1.000
 5428.00    1.79486   1.73110   -1.000
 5429.00    1.94031   1.69471   -1.000
 5430.00    1.79973   1.65442   -1.000
 5431.00    1.68148   1.63692   -1.000
 5432.00    1.70090   1.64112   -1.000
 5433.00    1.71721   1.64461   -1.000
 5434.00    1.65948   1.63517   -1.000
 5435.00    1.65764   1.62452   -1.000
 5436.00    1.68940   1.63259   -1.000
 5437.00    1.70690   1.66656   -1.000
 5438.00    1.77086   1.71583   -1.000
 5439.00    1.82395   1.76199   -1.000
 5440.00    1.84872   1.79337   -1.000
 5441.00    1.84277   1.80990   -1.000
 5442.00    1.82536   1.81539  171.736
 5443.00    1.81589   1.80835  170.128
 5444.00    1.78747   1.78160  169.618
 5445.00    1.75107   1.73240   -1.000
 5446.00    1.69702   1.67354   -1.000
 5447.00    1.65684   1.63116   -1.000
 5448.00    1.68068   1.62721   -1.000
 5449.00    1.73999   1.66012   -1.000
 5450.00    1.78419   1.70528   -1.000
 5451.00    1.80567   1.73665   -1.000
 5452.00    1.81639   1.74314   -1.000
 5453.00    1.78839   1.72481   -1.000
 5454.00    1.73070   1.68708   -1.000
 5455.00    1.67277   1.64466   -1.000
 5456.00    1.66120   1.62254   -1.000
 5457.00    1.70652   1.63876   -1.000
 5458.00    1.78229   1.68432   -1.000
 5459.00    1.80777   1.72867   -1.000
 5460.00    1.79666   1.74640   -1.000
 5461.00    1.77097   1.73386   -1.000
 5462.00    1.73775   1.70526   -1.000
 5463.00    1.73783   1.68047   -1.000
 5464.00    1.74647   1.67344   -1.000
 5465.00    1.75012   1.68530   -1.000
 5466.00    1.76496   1.70650   -1.000
 5467.00    1.75929   1.72617   -1.000
 5468.00    1.75512   1.73900   -1.000
 5469.00    1.76828   1.74383   -1.000
 5470.00    1.76445   1.74065   -1.000
 5471.00    1.73613   1.73150  175.818
 5472.00    1.75310   1.71990   -1.000
 5473.00    1.73170   1.70639   -1.000
 5474.00    1.73608   1.68708   -1.000
 5475.00    1.71102   1.65872   -1.000
 5476.00    1.67855   1.62693   -1.000
 5477.00    1.66387   1.60794   -1.000
 5478.00    1.68331   1.61534   -1.000
 5479.00    1.73364   1.64304   -1.000
 5480.00    1.76604   1.66804   -1.000
 5481.00    1.74439   1.67514   -1.000
 5482.00    1.68646   1.67333  181.734
 5483.00    1.69306   1.68207  182.033
 5484.00    1.74975   1.70686   -1.000
 5485.00    1.80131   1.73385   -1.000
 5486.00    1.80839   1.74537   -1.000
 5487.00    1.78244   1.73696   -1.000
 5488.00    1.75533   1.72005   -1.000
 5489.00    1.75059   1.71054   -1.000
 5490.00    1.75721   1.71450   -1.000
 5491.00    1.75069   1.72552   -1.000
 5492.00    1.75118   1.73430   -1.000
 5493.00    1.75531   1.73757   -1.000
 5494.00    1.74773   1.73753  178.917
 5495.00    1.76101   1.73553   -1.000
 5496.00    1.78647   1.73010   -1.000
 5497.00    1.79296   1.72222   -1.000
 5498.00    1.79196   1.71780   -1.000
 5499.00    1.78119   1.71994   -1.000
 5500.00    1.79319   1.72169   -1.000
 5501.00    1.77767   1.71338   -1.000
 5502.00    1.75699   1.69753   -1.000
 5503.00    1.74569   1.68642   -1.000
 5504.00    1.77711   1.68425   -1.000
 5505.00    1.77549   1.68275   -1.000
 5506.00    1.71968   1.67570   -1.000
 5507.00    1.72901   1.66969   -1.000
 5508.00    1.77053   1.67527   -1.000
 5509.00    1.79626   1.69077   -1.000
 5510.00    1.78202   1.70162   -1.000
 5511.00    1.74899   1.69554   -1.000
 5512.00    1.71115   1.67438   -1.000
 5513.00    1.68276   1.65182   -1.000
 5514.00    1.68692   1.64211   -1.000
 5515.00    1.72451   1.65013   -1.000
 5516.00    1.73125   1.67154   -1.000
 5517.00    1.74745   1.69959   -1.000
 5518.00    1.79561   1.72897   -1.000
 5519.00    1.83462   1.75424   -1.000
 5520.00    1.85316   1.76999   -1.000
 5521.00    1.85018   1.77506   -1.000
 5522.00    1.82879   1.77403   -1.000
 5523.00    1.81594   1.77161   -1.000
 5524.00    1.80045   1.76641   -1.000
 5525.00    1.79134   1.75200   -1.000
 5526.00    1.77195   1.72374   -1.000
 5527.00    1.73413   1.68591   -1.000
 5528.00    1.71555   1.65388   -1.000
 5529.00    1.71492   1.64616   -1.000
 5530.00    1.72047   1.66836   -1.000
 5531.00    1.75102   1.70524   -1.000
 5532.00    1.79613   1.73373   -1.000
 5533.00    1.82723   1.74267   -1.000
 5534.00    1.80162   1.73692   -1.000
 5535.00    1.77740   1.72765   -1.000
 5536.00    1.79764   1.72363   -1.000
 5537.00    1.78914   1.72768   -1.000
 5538.00    1.78600   1.73702   -1.000
 5539.00    1.80672   1.74833   -1.000
 5540.00    1.83627   1.76053   -1.000
 5541.00    1.86819   1.77048   -1.000
 5542.00    1.85505   1.77214   -1.000
 5543.00    1.83855   1.76412   -1.000
 5544.00    1.80527   1.75309   -1.000
 5545.00    1.77922   1.74732   -1.000
 5546.00    1.80022   1.74962   -1.000
 5547.00    1.81797   1.75862   -1.000
 5548.00    1.82870   1.77273   -1.000
 5549.00    1.85007   1.78886   -1.000
 5550.00    1.83837   1.80114   -1.000
 5551.00    1.84745   1.80476   -1.000
 5552.00    1.85335   1.79870   -1.000
 5553.00    1.83345   1.78560   -1.000
 5554.00    1.81861   1.77161   -1.000
 5555.00    1.80782   1.76341   -1.000
 5556.00    1.82566   1.76275   -1.000
 5557.00    1.82463   1.76577   -1.000
 5558.00    1.82169   1.76885   -1.000
 5559.00    1.83073   1.77145   -1.000
 5560.00    1.81858   1.77208   -1.000
 5561.00    1.82184   1.76704   -1.000
 5562.00    1.81147   1.75566   -1.000
 5563.00    1.75850   1.74270   -1.000
 5564.00    1.74916   1.73306   -1.000
 5565.00    1.75846   1.72697   -1.000
 5566.00    1.76705   1.72201   -1.000
 5567.00    1.77050   1.71736   -1.000
 5568.00    1.76294   1.71417   -1.000
 5569.00    1.74940   1.71338   -1.000
 5570.00    1.75981   1.71426   -1.000
 5571.00    1.79608   1.71453   -1.000
 5572.00    1.79594   1.71202   -1.000
 5573.00    1.77793   1.70863   -1.000
 5574.00    1.78233   1.71091   -1.000
 5575.00    1.82349   1.72161   -1.000
 5576.00    1.92561   1.73476   -1.000
 5577.00    2.19788   1.74498   -1.000
 5578.00    3.63912   1.75367   -1.000
 5579.00    7.12076   1.76210   -1.000
 5580.00    8.88904   1.76746   -1.000
 5581.00    4.88348   1.76756   -1.000
 5582.00   -1.15731   1.76378    0.000
 5583.00   -3.27419   1.75818    0.000
 5584.00   -1.65607   1.74863    0.000
 5585.00    0.23794   1.72802   -1.000
 5586.00    1.26606   1.69139   -1.000
 5587.00    1.59194   1.64578   -1.000
 5588.00    1.61961   1.60892  182.594
 5589.00    1.65638   1.59571   -1.000
 5590.00    1.69238   1.60758   -1.000
 5591.00    1.70945   1.63397   -1.000
 5592.00    1.74276   1.66029   -1.000
 5593.00    1.75357   1.67759   -1.000
 5594.00    1.74579   1.68834   -1.000
 5595.00    1.75161   1.70076   -1.000
 5596.00    1.77780   1.71605   -1.000
 5597.00    1.79880   1.72446   -1.000
 5598.00    1.76807   1.71654   -1.000
 5599.00    1.73856   1.69564   -1.000
 5600.00    1.72901   1.67331   -1.000
 5601.00    1.71325   1.65642   -1.000
 5602.00    1.69349   1.64838   -1.000
 5603.00    1.71161   1.65662   -1.000
 5604.00    1.77456   1.68657   -1.000
 5605.00    1.81751   1.73135   -1.000
 5606.00    1.84060   1.77488   -1.000
 5607.00    1.86555   1.80433   -1.000
 5608.00    1.89249   1.81763   -1.000
 5609.00    1.87422   1.82092   -1.000
 5610.00    1.84168   1.82183   -1.000
 5611.00    1.83702   1.82362  174.687
 5612.00    1.85584   1.82096   -1.000
 5613.00    1.87491   1.80176   -1.000
 5614.00    1.82403   1.75925   -1.000
 5615.00    1.73915   1.70481   -1.000
 5616.00    1.70389   1.66531   -1.000
 5617.00    1.73612   1.66098   -1.000
 5618.00    1.79881   1.68572   -1.000
 5619.00    1.81833   1.71663   -1.000
 5620.00    1.80770   1.73947   -1.000
 5621.00    1.81495   1.75348   -1.000
 5622.00    1.81886   1.75778   -1.000
 5623.00    1.80565   1.74771   -1.000
 5624.00    1.77335   1.72546   -1.000
 5625.00    1.74056   1.70538   -1.000
 5626.00    1.75099   1.70295   -1.000
 5627.00    1.79173   1.72033   -1.000
 5628.00    1.81188   1.74675   -1.000
 5629.00    1.80815   1.77040   -1.000
 5630.00    1.83161   1.78638   -1.000
 5631.00    1.85551   1.79482   -1.000
 5632.00    1.83538   1.79651   -1.000
 5633.00    1.83387   1.79200   -1.000
 5634.00    1.82920   1.78200   -1.000
 5635.00    1.80674   1.76792   -1.000
 5636.00    1.80791   1.75291   -1.000
 5637.00    1.79983   1.74111   -1.000
 5638.00    1.77964   1.73539   -1.000
 5639.00    1.80607   1.73508   -1.000
 5640.00    1.82757   1.73567   -1.000
 5641.00    1.81662   1.73346   -1.000
 5642.00    1.79790   1.73095   -1.000
 5643.00    1.79737   1.73308   -1.000
 5644.00    1.82568   1.74003   -1.000
 5645.00    1.83308   1.74864   -1.000
 5646.00    1.83846   1.75661   -1.000
 5647.00    1.82816   1.76205   -1.000
 5648.00    1.83793   1.76333   -1.000
 5649.00    1.85699   1.76136   -1.000
 5650.00    1.84382   1.76038   -1.000
 5651.00    1.84637   1.76417   -1.000
 5652.00    1.85183   1.77046   -1.000
 5653.00    1.87020   1.77215   -1.000
 5654.00    1.85557   1.76537   -1.000
 5655.00    1.80527   1.75216   -1.000
 5656.00    1.79304   1.73406   -1.000
 5657.00    1.75980   1.70927   -1.000
 5658.00    1.69897   1.68085   -1.000
 5659.00    1.68079   1.66212   -1.000
 5660.00    1.72191   1.66375   -1.000
 5661.00    1.76205   1.67955   -1.000
 5662.00    1.76145   1.69579   -1.000
 5663.00    1.75823   1.70879   -1.000
 5664.00    1.78900   1.72362   -1.000
 5665.00    1.81036   1.74050   -1.000
 5666.00    1.80331   1.75175   -1.000
 5667.00    1.79454   1.75253   -1.000
 5668.00    1.79461   1.74760   -1.000
 5669.00    1.79824   1.74529   -1.000
 5670.00    1.80021   1.74969   -1.000
 5671.00    1.80618   1.76041   -1.000
 5672.00    1.82354   1.77511   -1.000
 5673.00    1.85664   1.78986   -1.000
 5674.00    1.88125   1.80014   -1.000
 5675.00    1.88492   1.80418   -1.000
 5676.00    1.88126   1.80455   -1.000
 5677.00    1.87776   1.80475   -1.000
 5678.00    1.86571   1.80434   -1.000
 5679.00    1.83696   1.79979   -1.000
 5680.00    1.83776   1.78877   -1.000
 5681.00    1.84316   1.77127   -1.000
 5682.00    1.82227   1.75013   -1.000
 5683.00    1.80307   1.73254   -1.000
 5684.00    1.79512   1.72590   -1.000
 5685.00    1.79844   1.72947   -1.000
 5686.00    1.80225   1.73414   -1.000
 5687.00    1.78748   1.73275   -1.000
 5688.00    1.76941   1.72813   -1.000
 5689.00    1.78580   1.72929   -1.000
 5690.00    1.82293   1.74178   -1.000
 5691.00    1.84405   1.76278   -1.000
 5692.00    1.84503   1.78408   -1.000
 5693.00    1.85799   1.79863   -1.000
 5694.00    1.87801   1.80471   -1.000
 5695.00    1.87459   1.80468   -1.000
 5696.00    1.86409   1.80100   -1.000
 5697.00    1.85576   1.79382   -1.000
 5698.00    1.83586   1.78228   -1.000
 5699.00    1.79744   1.76689   -1.000
 5700.00    1.78879   1.75041   -1.000
 5701.00    1.78150   1.73693   -1.000
 5702.00    1.75391   1.73090   -1.000
 5703.00    1.76766   1.73397   -1.000
 5704.00    1.80983   1.74124   -1.000
 5705.00    1.80870   1.74331   -1.000
 5706.00    1.76868   1.73375   -1.000
 5707.00    1.75692   1.71378   -1.000
 5708.00    1.72498   1.68952   -1.000
 5709.00    1.67615   1.66772  183.883
 5710.00    1.66881   1.65526   -1.000
 5711.00    1.69358   1.65738   -1.000
 5712.00    1.74076   1.67530   -1.000
 5713.00    1.78987   1.70574   -1.000
 5714.00    1.83450   1.74053   -1.000
 5715.00    1.85777   1.76949   -1.000
 5716.00    1.87408   1.78769   -1.000
 5717.00    1.86534   1.79760   -1.000
 5718.00    1.84287   1.80455   -1.000
 5719.00    1.86828   1.81253   -1.000
 5720.00    1.88562   1.82290   -1.000
 5721.00    1.87788   1.83437   -1.000
 5722.00    1.87532   1.84450   -1.000
 5723.00    1.88145   1.85128   -1.000
 5724.00    1.89798   1.85281   -1.000
 5725.00    1.88629   1.84693   -1.000
 5726.00    1.85295   1.83396   -1.000
 5727.00    1.83734   1.81981   -1.000
 5728.00    1.86129   1.81243   -1.000
 5729.00    1.88100   1.81332   -1.000
 5730.00    1.85635   1.81606   -1.000
 5731.00    1.84441   1.81502   -1.000
 5732.00    1.84193   1.81310   -1.000
 5733.00    1.84355   1.81749   -1.000
 5734.00    1.87820   1.82901   -1.000
 5735.00    1.89223   1.84013   -1.000
 5736.00    1.88525   1.84387   -1.000
 5737.00    1.89281   1.84064   -1.000
 5738.00    1.88857   1.83589   -1.000
 5739.00    1.87259   1.83380   -1.000
 5740.00    1.86527   1.83394   -1.000
 5741.00    1.85443   1.83342   -1.000
 5742.00    1.85784   1.83144   -1.000
 5743.00    1.87309   1.83095   -1.000
 5744.00    1.87765   1.83500   -1.000
 5745.00    1.88521   1.84148   -1.000
 5746.00    1.87072   1.84356   -1.000
 5747.00    1.86683   1.83748   -1.000
 5748.00    1.87395   1.82880   -1.000
 5749.00    1.86340   1.82622   -1.000
 5750.00    1.84478   1.82947   -1.000
 5751.00    1.85451   1.82797   -1.000
 5752.00    1.85856   1.81338   -1.000
 5753.00    1.83387   1.79098   -1.000
 5754.00    1.81997   1.77643   -1.000
 5755.00    1.82777   1.78190   -1.000
 5756.00    1.84961   1.80549   -1.000
 5757.00    1.86986   1.83316   -1.000
 5758.00    1.88650   1.85024   -1.000
 5759.00    1.89445   1.84999   -1.000
 5760.00    1.88727   1.83396   -1.000
 5761.00    1.85835   1.80954   -1.000
 5762.00    1.83898   1.78808   -1.000
 5763.00    1.84412   1.78161   -1.000
 5764.00    1.85283   1.79551   -1.000
 5765.00    1.86560   1.82294   -1.000
 5766.00    1.89763   1.84973   -1.000
 5767.00    1.91801   1.86595   -1.000
 5768.00    1.89838   1.87087   -1.000
 5769.00    1.89142   1.86884   -1.000
 5770.00    1.90765   1.86375   -1.000
 5771.00    1.89316   1.85687   -1.000
 5772.00    1.87271   1.84810   -1.000
 5773.00    1.87321   1.83873   -1.000
 5774.00    1.86141   1.83195   -1.000
 5775.00    1.86883   1.83035   -1.000
 5776.00    1.89433   1.83386   -1.000
 5777.00    1.89530   1.83830   -1.000
 5778.00    1.88566   1.83569   -1.000
 5779.00    1.85622   1.81957   -1.000
 5780.00    1.80107   1.79096  174.902
 5781.00    1.75219   1.75902  175.203
 5782.00    1.70997   1.73567   -1.000
 5783.00    1.69945   1.72654   -1.000
 5784.00    1.71862   1.72759  183.652
 5785.00    1.75586   1.73325   -1.000
 5786.00    1.81058   1.74435   -1.000
 5787.00    1.84007   1.76354   -1.000
 5788.00    1.86720   1.78644   -1.000
 5789.00    1.87133   1.80321   -1.000
 5790.00    1.85701   1.80845   -1.000
 5791.00    1.85511   1.80685   -1.000
 5792.00    1.84697   1.80883   -1.000
 5793.00    1.84700   1.82053   -1.000
 5794.00    1.85387   1.83830   -1.000
 5795.00    1.86459   1.85281  176.121
 5796.00    1.87220   1.85677   -1.000
 5797.00    1.86306   1.85054  173.655
 5798.00    1.85085   1.84322  173.140
 5799.00    1.84740   1.84573  173.733
 5800.00    1.87249   1.86003  174.881
 5801.00    1.91283   1.87695   -1.000
 5802.00    1.91018   1.88534   -1.000
 5803.00    1.90534   1.88078   -1.000
 5804.00    1.91780   1.86684   -1.000
 5805.00    1.88337   1.85196   -1.000
 5806.00    1.86001   1.84389   -1.000
 5807.00    1.86836   1.84460   -1.000
 5808.00    1.87833   1.85051   -1.000
 5809.00    1.89554   1.85755   -1.000
 5810.00    1.91217   1.86397   -1.000
 5811.00    1.92407   1.86866   -1.000
 5812.00    1.90660   1.86972   -1.000
 5813.00    1.89614   1.86541   -1.000
 5814.00    1.90816   1.85531   -1.000
 5815.00    1.88902   1.84175   -1.000
 5816.00    1.87330   1.83150   -1.000
 5817.00    1.89351   1.83276   -1.000
 5818.00    1.91457   1.84698   -1.000
 5819.00    1.93942   1.86586   -1.000
 5820.00    1.94630   1.87895   -1.000
 5821.00    1.94751   1.88254   -1.000
 5822.00    1.95772   1.87995   -1.000
 5823.00    1.94890   1.87626   -1.000
 5824.00    1.92428   1.87439   -1.000
 5825.00    1.91296   1.87476   -1.000
 5826.00    1.91710   1.87674   -1.000
 5827.00    1.92170   1.87964   -1.000
 5828.00    1.92614   1.88275   -1.000
 5829.00    1.91541   1.88536   -1.000
 5830.00    1.89615   1.88670  169.504
 5831.00    1.90051   1.88626  169.725
 5832.00    1.91665   1.88374   -1.000
 5833.00    1.93004   1.87907   -1.000
 5834.00    1.93785   1.87310   -1.000
 5835.00    1.92628   1.86836   -1.000
 5836.00    1.92836   1.86728   -1.000
 5837.00    1.93363   1.86924   -1.000
 5838.00    1.91880   1.87174   -1.000
 5839.00    1.91143   1.87461   -1.000
 5840.00    1.91454   1.87985   -1.000
 5841.00    1.92064   1.88720   -1.000
 5842.00    1.93233   1.89296   -1.000
 5843.00    1.94807   1.89359   -1.000
 5844.00    1.93770   1.88847   -1.000
 5845.00    1.92142   1.87886   -1.000
 5846.00    1.90311   1.86680   -1.000
 5847.00    1.87766   1.85564   -1.000
 5848.00    1.86937   1.84896   -1.000
 5849.00    1.89388   1.84697   -1.000
 5850.00    1.90955   1.84505   -1.000
 5851.00    1.89465   1.83783   -1.000
 5852.00    1.87998   1.82473   -1.000
 5853.00    1.85901   1.81069   -1.000
 5854.00    1.85155   1.80039   -1.000
 5855.00    1.85288   1.79187   -1.000
 5856.00    1.83612   1.77820   -1.000
 5857.00    1.80573   1.75796   -1.000
 5858.00    1.80186   1.74192   -1.000
 5859.00    1.82884   1.74324   -1.000
 5860.00    1.85272   1.76194   -1.000
 5861.00    1.86686   1.78548   -1.000
 5862.00    1.86712   1.80281   -1.000
 5863.00    1.88815   1.81231   -1.000
 5864.00    1.89647   1.81713   -1.000
 5865.00    1.88296   1.81768   -1.000
 5866.00    1.89413   1.81335   -1.000
 5867.00    1.90149   1.80868   -1.000
 5868.00    1.91280   1.81112   -1.000
 5869.00    1.94249   1.82267   -1.000
 5870.00    1.93972   1.83750   -1.000
 5871.00    1.91357   1.84778   -1.000
 5872.00    1.89557   1.85015   -1.000
 5873.00    1.88362   1.84719   -1.000
 5874.00    1.89932   1.84355   -1.000
 5875.00    1.90599   1.84111   -1.000
 5876.00    1.89534   1.83792   -1.000
 5877.00    1.90317   1.83133   -1.000
 5878.00    1.90870   1.82092   -1.000
 5879.00    1.88758   1.80868   -1.000
 5880.00    1.86992   1.79787   -1.000
 5881.00    1.86619   1.79089   -1.000
 5882.00    1.84968   1.78680   -1.000
 5883.00    1.83262   1.78218   -1.000
 5884.00    1.83933   1.77522   -1.000
 5885.00    1.86423   1.76518   -1.000
 5886.00    1.87880   1.74494   -1.000
 5887.00    1.85424   1.69808   -1.000
 5888.00    1.76356   1.61240   -1.000
 5889.00    1.64208   1.50124   -1.000
 5890.00    1.60608   1.40780   -1.000
 5891.00    1.74871   1.37606   -1.000
 5892.00    2.09059   1.40784   -1.000
 5893.00    2.20454   1.45907   -1.000
 5894.00    1.62183   1.48343   -1.000
 5895.00    0.79484   1.47103   -1.000
 5896.00    0.54625   1.45109   -1.000
 5897.00    0.98836   1.46182   -1.000
 5898.00    1.57642   1.51399   -1.000
 5899.00    1.86230   1.58625   -1.000
 5900.00    1.67523   1.65304   -1.000
 5901.00    1.36441   1.70450   -1.000
 5902.00    1.29737   1.74097   -1.000
 5903.00    1.48507   1.76407   -1.000
 5904.00    1.70430   1.77616   -1.000
 5905.00    1.80680   1.78135   -1.000
 5906.00    1.84628   1.78453   -1.000
 5907.00    1.88020   1.78916   -1.000
 5908.00    1.90452   1.79569   -1.000
 5909.00    1.89796   1.80277   -1.000
 5910.00    1.88079   1.80872   -1.000
 5911.00    1.85713   1.81113   -1.000
 5912.00    1.83682   1.80649   -1.000
 5913.00    1.83789   1.79290   -1.000
 5914.00    1.83242   1.77436   -1.000
 5915.00    1.82836   1.76016   -1.000
 5916.00    1.82141   1.75752   -1.000
 5917.00    1.84303   1.76651   -1.000
 5918.00    1.86868   1.78208   -1.000
 5919.00    1.88665   1.79765   -1.000
 5920.00    1.86161   1.80787   -1.000
 5921.00    1.82510   1.81103  180.203
 5922.00    1.82987   1.80952   -1.000
 5923.00    1.85224   1.80799   -1.000
 5924.00    1.86388   1.81031   -1.000
 5925.00    1.87288   1.81647   -1.000
 5926.00    1.86791   1.82231   -1.000
 5927.00    1.87699   1.82213   -1.000
 5928.00    1.89171   1.81338   -1.000
 5929.00    1.88029   1.80001   -1.000
 5930.00    1.85337   1.79067   -1.000
 5931.00    1.84292   1.79130   -1.000
 5932.00    1.85196   1.79892   -1.000
 5933.00    1.87196   1.80483   -1.000
 5934.00    1.89049   1.80509   -1.000
 5935.00    1.89068   1.80491   -1.000
 5936.00    1.88803   1.81066   -1.000
 5937.00    1.88378   1.82108   -1.000
 5938.00    1.87137   1.82926   -1.000
 5939.00    1.84959   1.82993   -1.000
 5940.00    1.84175   1.82262   -1.000
 5941.00    1.86411   1.81150   -1.000
 5942.00    1.87418   1.80363   -1.000
 5943.00    1.86117   1.80411   -1.000
 5944.00    1.85775   1.81188   -1.000
 5945.00    1.86157   1.82088   -1.000
 5946.00    1.86944   1.82452   -1.000
 5947.00    1.87385   1.81970   -1.000
 5948.00    1.84987   1.80933   -1.000
 5949.00    1.84012   1.80090   -1.000
 5950.00    1.85757   1.79929   -1.000
 5951.00    1.87473   1.80146   -1.000
 5952.00    1.85867   1.80120   -1.000
 5953.00    1.83940   1.79806   -1.000
 5954.00    1.85578   1.79682   -1.000
 5955.00    1.87069   1.79827   -1.000
 5956.00    1.87394   1.79784   -1.000
 5957.00    1.86532   1.79494   -1.000
 5958.00    1.84671   1.79543   -1.000
 5959.00    1.82993   1.80378   -1.000
 5960.00    1.83553   1.81804   -1.000
 5961.00    1.86639   1.83216   -1.000
 5962.00    1.88527   1.84106   -1.000
 5963.00    1.90025   1.84313   -1.000
 5964.00    1.89367   1.83936   -1.000
 5965.00    1.87303   1.83258   -1.000
 5966.00    1.86597   1.82730   -1.000
 5967.00    1.85583   1.82721   -1.000
 5968.00    1.86854   1.83230   -1.000
 5969.00    1.89797   1.83985   -1.000
 5970.00    1.89168   1.84749   -1.000
 5971.00    1.91544   1.85353   -1.000
 5972.00    1.93662   1.85607   -1.000
 5973.00    1.92273   1.85345   -1.000
 5974.00    1.90099   1.84446   -1.000
 5975.00    1.87656   1.82947   -1.000
 5976.00    1.85112   1.81242   -1.000
 5977.00    1.83755   1.80013   -1.000
 5978.00    1.85336   1.79796   -1.000
 5979.00    1.87206   1.80607   -1.000
 5980.00    1.88317   1.81869   -1.000
 5981.00    1.89526   1.82659   -1.000
 5982.00    1.86127   1.82248   -1.000
 5983.00    1.82953   1.80682   -1.000
 5984.00    1.82558   1.78905   -1.000
 5985.00    1.82037   1.78089   -1.000
 5986.00    1.83743   1.78634   -1.000
 5987.00    1.84468   1.79968   -1.000
 5988.00    1.87144   1.81327   -1.000
 5989.00    1.90013   1.82333   -1.000
 5990.00    1.88667   1.82916   -1.000
 5991.00    1.87608   1.83235   -1.000
 5992.00    1.88435   1.83681   -1.000
 5993.00    1.90519   1.84530   -1.000
 5994.00    1.91341   1.85451   -1.000
 5995.00    1.90902   1.85678   -1.000
 5996.00    1.88998   1.84873   -1.000
 5997.00    1.87441   1.83528   -1.000
 5998.00    1.86715   1.82507   -1.000
 5999.00    1.87766   1.82289   -1.000
 6000.00    1.88924   1.82611   -1.000
 6001.00    1.89035   1.82825   -1.000
 6002.00    1.89066   1.82576   -1.000
 6003.00    1.86387   1.82117   -1.000
 6004.00    1.84065   1.81875   -1.000
 6005.00    1.84088   1.81700   -1.000
 6006.00    1.83822   1.80973   -1.000
 6007.00    1.85122   1.79604   -1.000
 6008.00    1.84980   1.78509   -1.000
 6009.00    1.82526   1.78723   -1.000
 6010.00    1.83881   1.80150   -1.000
 6011.00    1.85085   1.81564   -1.000
 6012.00    1.84940   1.81934   -1.000
 6013.00    1.84127   1.81390   -1.000
 6014.00    1.82824   1.80722   -1.000
 6015.00    1.84100   1.80385   -1.000
 6016.00    1.83926   1.80258   -1.000
 6017.00    1.84341   1.80132   -1.000
 6018.00    1.86341   1.79902   -1.000
 6019.00    1.83575   1.79434   -1.000
 6020.00    1.82541   1.78756   -1.000
 6021.00    1.82110   1.78285   -1.000
 6022.00    1.82492   1.78423   -1.000
 6023.00    1.84159   1.79134   -1.000
 6024.00    1.84625   1.80163   -1.000
 6025.00    1.83541   1.81386   -1.000
 6026.00    1.84420   1.82697   -1.000
 6027.00    1.85873   1.83896   -1.000
 6028.00    1.86579   1.84928   -1.000
 6029.00    1.87129   1.85855  179.417
 6030.00    1.87974   1.86623  178.699
 6031.00    1.89695   1.87172   -1.000
 6032.00    1.90545   1.87643   -1.000
 6033.00    1.90206   1.88255   -1.000
 6034.00    1.88961   1.89012  177.285
 6035.00    1.88736   1.89620  177.426
 6036.00    1.90478   1.89759  176.826
 6037.00    1.90481   1.89387  176.146
 6038.00    1.88803   1.88675  175.894
 6039.00    1.87335   1.87836  175.741
 6040.00    1.85719   1.87122  175.597
 6041.00    1.85479   1.86809  176.185
 6042.00    1.86761   1.87030  176.999
 6043.00    1.86910   1.87660  177.362
 6044.00    1.88004   1.88402  177.573
 6045.00    1.90039   1.89004  177.147
 6046.00    1.91678   1.89425   -1.000
 6047.00    1.90849   1.89761  175.474
 6048.00    1.89199   1.90077  174.649
 6049.00    1.88964   1.90332  174.885
 6050.00    1.92003   1.90416   -1.000
 6051.00    1.93438   1.90198   -1.000
 6052.00    1.91200   1.89586   -1.000
 6053.00    1.88332   1.88601  175.596
 6054.00    1.86684   1.87405  175.864
 6055.00    1.86397   1.86265  176.076
 6056.00    1.87030   1.85524   -1.000
 6057.00    1.85816   1.85472  177.276
 6058.00    1.84101   1.86106   -1.000
 6059.00    1.86341   1.87055  178.833
 6060.00    1.89203   1.87805  178.981
 6061.00    1.88413   1.87942  178.343
 6062.00    1.86597   1.87246  177.355
 6063.00    1.85969   1.85754  176.900
 6064.00    1.84976   1.83884  177.297
 6065.00    1.86997   1.82518   -1.000
 6066.00    2.00656   1.82604   -1.000
 6067.00    2.21653   1.84285   -1.000
 6068.00    1.95630   1.86653   -1.000
 6069.00    0.71076   1.88663   -1.000
 6070.00    0.19440   1.89929   -1.000
 6071.00    1.20453   1.90602   -1.000
 6072.00    2.00663   1.90922   -1.000
 6073.00    2.13832   1.91013   -1.000
 6074.00    1.75431   1.90878   -1.000
 6075.00    0.77890   1.90413   -1.000
 6076.00    1.05880   1.89508   -1.000
 6077.00    1.97484   1.88212   -1.000
 6078.00    1.85386   1.86809  175.795
 6079.00    1.84787   1.85662  176.561
 6080.00    1.85584   1.84907  177.539
 6081.00    1.85648   1.84394  178.701
 6082.00    1.83961   1.83993  180.016
 6083.00    1.80872   1.83772   -1.000
 6084.00    1.81688   1.83793   -1.000
 6085.00    1.84145   1.84036  181.051
 6086.00    1.84669   1.84490  181.404
 6087.00    1.85457   1.85032  181.287
 6088.00    1.87504   1.85318   -1.000
 6089.00    1.87953   1.85072   -1.000
 6090.00    1.86893   1.84427   -1.000
 6091.00    1.85538   1.83854   -1.000
 6092.00    1.83787   1.83802  180.570
 6093.00    1.82790   1.84406  181.602
 6094.00    1.83877   1.85440  182.010
 6095.00    1.86972   1.86472  181.439
 6096.00    1.89620   1.87189   -1.000
 6097.00    1.89530   1.87615   -1.000
 6098.00    1.88404   1.87851  178.425
 6099.00    1.87471   1.87594  177.986
 6100.00    1.87590   1.86144   -1.000
 6101.00    1.84040   1.83186  178.620
 6102.00    1.79522   1.79627  178.660
 6103.00    1.78453   1.77364  179.435
 6104.00    1.80304   1.77719   -1.000
 6105.00    1.80549   1.80151  186.748
 6106.00    1.82511   1.82972  187.986
 6107.00    1.83316   1.85047  185.423
 6108.00    1.86233   1.86332  181.994
 6109.00    1.88139   1.87169  180.103
 6110.00    1.86379   1.87662  180.138
 6111.00    1.85531   1.87844   -1.000
 6112.00    1.85160   1.87992   -1.000
 6113.00    1.84757   1.88358   -1.000
 6114.00    1.86240   1.88804   -1.000
 6115.00    1.84892   1.88971   -1.000
 6116.00    1.85865   1.88717   -1.000
 6117.00    1.85837   1.88176   -1.000
 6118.00    1.83626   1.87314   -1.000
 6119.00    1.80100   1.85738   -1.000
 6120.00    1.78774   1.83168   -1.000
 6121.00    1.78010   1.80091   -1.000
 6122.00    1.77109   1.77776  182.372
 6123.00    1.76488   1.77352  185.093
 6124.00    1.78274   1.78763  187.221
 6125.00    1.81430   1.80887  188.384
 6126.00    1.81782   1.82621  187.261
 6127.00    1.83555   1.83646  184.156
 6128.00    1.83982   1.84340  182.684
 6129.00    1.82593   1.85240   -1.000
 6130.00    1.83163   1.86515   -1.000
 6131.00    1.82999   1.87836   -1.000
 6132.00    1.83670   1.88604   -1.000
 6133.00    1.85016   1.88130   -1.000
 6134.00    1.82402   1.85785   -1.000
 6135.00    1.78829   1.81559   -1.000
 6136.00    1.74609   1.76731   -1.000
 6137.00    1.71667   1.73537  183.275
 6138.00    1.72214   1.73540  188.090
 6139.00    1.78007   1.76123   -1.000
 6140.00    1.81892   1.79185   -1.000
 6141.00    1.81552   1.81348  195.102
 6142.00    1.80095   1.82861   -1.000
 6143.00    1.79533   1.84492   -1.000
 6144.00    1.82193   1.86253   -1.000
 6145.00    1.83052   1.87481   -1.000
 6146.00    1.84824   1.87727   -1.000
 6147.00    1.85136   1.87101   -1.000
 6148.00    1.82330   1.86013   -1.000
 6149.00    1.81302   1.84904   -1.000
 6150.00    1.80217   1.84155   -1.000
 6151.00    1.79266   1.84006   -1.000
 6152.00    1.81238   1.84316   -1.000
 6153.00    1.81943   1.84524   -1.000
 6154.00    1.83728   1.84161  184.799
 6155.00    1.84720   1.83373   -1.000
 6156.00    1.81244   1.82644  182.867
 6157.00    1.79978   1.82061   -1.000
 6158.00    1.80483   1.81037  184.867
 6159.00    1.78740   1.78650  185.461
 6160.00    1.75470   1.74405  185.729
 6161.00    1.69652   1.69065  186.966
 6162.00    1.63841   1.64627  189.579
 6163.00    1.61969   1.62995  194.032
 6164.00    1.63703   1.64488  200.061
 6165.00    1.68528   1.67739  204.576
 6166.00    1.72720   1.70859   -1.000
 6167.00    1.74209   1.72468   -1.000
 6168.00    1.71854   1.72189  195.252
 6169.00    1.69624   1.70956  193.230
 6170.00    1.70205   1.70525  193.003
 6171.00    1.72359   1.71883  194.257
 6172.00    1.74858   1.74403  196.821
 6173.00    1.76673   1.76837  197.628
 6174.00    1.76267   1.78499   -1.000
 6175.00    1.75754   1.79386   -1.000
 6176.00    1.74428   1.79839   -1.000
 6177.00    1.74193   1.80269   -1.000
 6178.00    1.76990   1.80860   -1.000
 6179.00    1.77755   1.81516   -1.000
 6180.00    1.77149   1.82172   -1.000
 6181.00    1.77096   1.82898   -1.000
 6182.00    1.79353   1.83600   -1.000
 6183.00    1.81079   1.83942   -1.000
 6184.00    1.79163   1.83634   -1.000
 6185.00    1.78484   1.82661   -1.000
 6186.00    1.78263   1.81252   -1.000
 6187.00    1.75585   1.79726   -1.000
 6188.00    1.73874   1.78243   -1.000
 6189.00    1.72329   1.76623   -1.000
 6190.00    1.72131   1.74729   -1.000
 6191.00    1.70388   1.73160   -1.000
 6192.00    1.68217   1.73024   -1.000
 6193.00    1.71385   1.74697   -1.000
 6194.00    1.74569   1.77323   -1.000
 6195.00    1.76687   1.79734   -1.000
 6196.00    1.77589   1.81277   -1.000
 6197.00    1.78033   1.81748   -1.000
 6198.00    1.75998   1.81241   -1.000
 6199.00    1.72638   1.80269   -1.000
 6200.00    1.74093   1.79684   -1.000
 6201.00    1.75389   1.80083   -1.000
 6202.00    1.76285   1.81301   -1.000
 6203.00    1.76379   1.82702   -1.000
 6204.00    1.76818   1.83808   -1.000
 6205.00    1.78198   1.84522   -1.000
 6206.00    1.79890   1.84954   -1.000
 6207.00    1.79544   1.85202   -1.000
 6208.00    1.76831   1.85222   -1.000
 6209.00    1.76680   1.84834   -1.000
 6210.00    1.76864   1.83837   -1.000
 6211.00    1.76335   1.82106   -1.000
 6212.00    1.75658   1.79691   -1.000
 6213.00    1.72068   1.77001   -1.000
 6214.00    1.70376   1.74769   -1.000
 6215.00    1.67341   1.73612   -1.000
 6216.00    1.75269   1.73544   -1.000
 6217.00    1.98410   1.73962   -1.000
 6218.00    2.04614   1.74159   -1.000
 6219.00    2.03153   1.73971   -1.000
 6220.00    2.04441   1.73880   -1.000
 6221.00    2.04983   1.74366   -1.000
 6222.00    2.07057   1.75316   -1.000
 6223.00    2.09683   1.76237   -1.000
 6224.00    2.09314   1.76848   -1.000
 6225.00    2.00147   1.77199   -1.000
 6226.00    1.54539   1.77295   -1.000
 6227.00    0.87231   1.76846   -1.000
 6228.00    1.49265   1.75436   -1.000
 6229.00    1.74732   1.73039   -1.000
 6230.00    1.64909   1.70429   -1.000
 6231.00    1.63865   1.68887   -1.000
 6232.00    1.64959   1.69283   -1.000
 6233.00    1.68126   1.71462   -1.000
 6234.00    1.72602   1.74404  203.530
 6235.00    1.75641   1.76844  201.701
 6236.00    1.77968   1.77930  198.365
 6237.00    1.82417   1.77588   -1.000
 6238.00    1.82785   1.76368   -1.000
 6239.00    1.77532   1.74971   -1.000
 6240.00    1.71724   1.73824   -1.000
 6241.00    1.65347   1.72940   -1.000
 6242.00    1.59879   1.72079   -1.000
 6243.00    1.61591   1.71117   -1.000
 6244.00    1.64505   1.70257   -1.000
 6245.00    1.65674   1.69910   -1.000
 6246.00    1.66662   1.70468   -1.000
 6247.00    1.68068   1.72047   -1.000
 6248.00    1.72200   1.74197   -1.000
 6249.00    1.71736   1.75961   -1.000
 6250.00    1.68165   1.76413   -1.000
 6251.00    1.68149   1.75275   -1.000
 6252.00    1.68031   1.73114   -1.000
 6253.00    1.64988   1.70941   -1.000
 6254.00    1.62349   1.69475   -1.000
 6255.00    1.63968   1.68712   -1.000
 6256.00    1.66310   1.68217  203.045
 6257.00    1.62180   1.67794   -1.000
 6258.00    1.60136   1.67771   -1.000
 6259.00    1.66643   1.68636   -1.000
 6260.00    1.71982   1.70530   -1.000
 6261.00    1.73696   1.73087  207.993
 6262.00    1.75244   1.75598  206.227
 6263.00    1.71256   1.77360   -1.000
 6264.00    1.65663   1.78096   -1.000
 6265.00    1.67937   1.78178   -1.000
 6266.00    1.72036   1.78250   -1.000
 6267.00    1.71819   1.78554   -1.000
 6268.00    1.71596   1.78808   -1.000
 6269.00    1.71970   1.78781   -1.000
 6270.00    1.71588   1.78679   -1.000
 6271.00    1.72218   1.78843   -1.000
 6272.00    1.70385   1.79243   -1.000
 6273.00    1.69017   1.79430   -1.000
 6274.00    1.70590   1.78921   -1.000
 6275.00    1.72214   1.77608   -1.000
 6276.00    1.73233   1.75802   -1.000
 6277.00    1.73414   1.73952  195.924
 6278.00    1.71505   1.72379  197.476
 6279.00    1.67581   1.71282   -1.000
 6280.00    1.63498   1.70918   -1.000
 6281.00    1.58786   1.71561   -1.000
 6282.00    1.58874   1.73213   -1.000
 6283.00    1.59498   1.75449   -1.000
 6284.00    1.59379   1.77651   -1.000
 6285.00    1.61569   1.79397   -1.000
 6286.00    1.63487   1.80636   -1.000
 6287.00    1.65906   1.81475   -1.000
 6288.00    1.70283   1.81870   -1.000
 6289.00    1.73783   1.81642   -1.000
 6290.00    1.74813   1.80814   -1.000
 6291.00    1.71535   1.79768   -1.000
 6292.00    1.66321   1.78952   -1.000
 6293.00    1.62205   1.78522   -1.000
 6294.00    1.62408   1.78250   -1.000
 6295.00    1.65614   1.77717   -1.000
 6296.00    1.67982   1.76730   -1.000
 6297.00    1.68098   1.75599   -1.000
 6298.00    1.67946   1.74820   -1.000
 6299.00    1.72002   1.74461   -1.000
 6300.00    1.79272   1.74141   -1.000
 6301.00    1.86957   1.73711   -1.000
 6302.00    1.94821   1.73632   -1.000
 6303.00    2.05249   1.74445   -1.000
 6304.00    1.97144   1.76100   -1.000
 6305.00    1.60957   1.78056   -1.000
 6306.00    1.21867   1.79833   -1.000
 6307.00    1.19803   1.81198   -1.000
 6308.00    1.46041   1.81998   -1.000
 6309.00    1.62606   1.82155   -1.000
 6310.00    1.69831   1.81801   -1.000
 6311.00    1.69406   1.81197   -1.000
 6312.00    1.66794   1.80487   -1.000
 6313.00    1.62054   1.79599   -1.000
 6314.00    1.59773   1.78451   -1.000
 6315.00    1.63382   1.77185   -1.000
 6316.00    1.66791   1.76052   -1.000
 6317.00    1.64887   1.75240   -1.000
 6318.00    1.65197   1.75019   -1.000
 6319.00    1.65517   1.75702   -1.000
 6320.00    1.65350   1.77198   -1.000
 6321.00    1.65686   1.78919   -1.000
 6322.00    1.66524   1.80396   -1.000
 6323.00    1.70343   1.81649   -1.000
 6324.00    1.72851   1.82815   -1.000
 6325.00    1.73571   1.83775   -1.000
 6326.00    1.73765   1.84337   -1.000
 6327.00    1.70374   1.84536   -1.000
 6328.00    1.70868   1.84567   -1.000
 6329.00    1.75601   1.84589   -1.000
 6330.00    1.77095   1.84705   -1.000
 6331.00    1.76491   1.84945   -1.000
 6332.00    1.78295   1.85052   -1.000
 6333.00    1.77235   1.84473   -1.000
 6334.00    1.72073   1.82886   -1.000
 6335.00    1.68358   1.80720   -1.000
 6336.00    1.64893   1.78987   -1.000
 6337.00    1.63058   1.78499   -1.000
 6338.00    1.65860   1.79303   -1.000
 6339.00    1.69607   1.80849   -1.000
 6340.00    1.76149   1.82428   -1.000
 6341.00    1.72948   1.83404   -1.000
 6342.00    1.73988   1.83442   -1.000
 6343.00    1.74407   1.82779   -1.000
 6344.00    1.72312   1.82135   -1.000
 6345.00    1.70261   1.82155   -1.000
 6346.00    1.73548   1.82971   -1.000
 6347.00    1.74757   1.84291   -1.000
 6348.00    1.76939   1.85719   -1.000
 6349.00    1.74857   1.86913   -1.000
 6350.00    1.75934   1.87641   -1.000
 6351.00    1.78115   1.87791   -1.000
 6352.00    1.75464   1.87303   -1.000
 6353.00    1.74632   1.86212   -1.000
 6354.00    1.70876   1.84793   -1.000
 6355.00    1.70605   1.83475   -1.000
 6356.00    1.68870   1.82438   -1.000
 6357.00    1.71026   1.81451   -1.000
 6358.00    1.70669   1.80274   -1.000
 6359.00    1.71025   1.79014   -1.000
 6360.00    1.71757   1.77915   -1.000
 6361.00    1.68321   1.77107   -1.000
 6362.00    1.66746   1.76735   -1.000
 6363.00    1.70704   1.77010   -1.000
 6364.00    1.75893   1.77997   -1.000
 6365.00    1.78267   1.79504  193.590
 6366.00    1.82726   1.81223   -1.000
 6367.00    1.88044   1.82854   -1.000
 6368.00    1.79687   1.84115   -1.000
 6369.00    1.68302   1.84864   -1.000
 6370.00    1.58525   1.85280   -1.000
 6371.00    1.61895   1.85742   -1.000
 6372.00    1.66788   1.86434   -1.000
 6373.00    1.73306   1.87161   -1.000
 6374.00    1.75927   1.87609   -1.000
 6375.00    1.75417   1.87644   -1.000
 6376.00    1.73942   1.87301   -1.000
 6377.00    1.75852   1.86659   -1.000
 6378.00    1.74048   1.85849   -1.000
 6379.00    1.74043   1.85057   -1.000
 6380.00    1.72009   1.84448   -1.000
 6381.00    1.70003   1.84115   -1.000
 6382.00    1.72458   1.84047   -1.000
 6383.00    1.75565   1.84158   -1.000
 6384.00    1.71896   1.84412   -1.000
 6385.00    1.68674   1.84852   -1.000
 6386.00    1.71691   1.85428   -1.000
 6387.00    1.70349   1.85927   -1.000
 6388.00    1.69549   1.86165   -1.000
 6389.00    1.71407   1.86063   -1.000
 6390.00    1.72109   1.85472   -1.000
 6391.00    1.67365   1.84203   -1.000
 6392.00    1.65150   1.82443   -1.000
 6393.00    1.62668   1.80990   -1.000
 6394.00    1.64957   1.80750   -1.000
 6395.00    1.62766   1.81873   -1.000
 6396.00    1.62993   1.83475   -1.000
 6397.00    1.65490   1.84258   -1.000
 6398.00    1.64349   1.83495   -1.000
 6399.00    1.61150   1.81697   -1.000
 6400.00    1.57525   1.80347   -1.000
 6401.00    1.57922   1.80669   -1.000
 6402.00    1.58981   1.82598   -1.000
 6403.00    1.62106   1.85008   -1.000
 6404.00    1.61920   1.86700   -1.000
 6405.00    1.62122   1.87065   -1.000
 6406.00    1.60689   1.86242   -1.000
 6407.00    1.59684   1.84974   -1.000
 6408.00    1.56970   1.84086   -1.000
 6409.00    1.53925   1.83817   -1.000
 6410.00    1.55058   1.83773   -1.000
 6411.00    1.54018   1.83613   -1.000
 6412.00    1.52976   1.83508   -1.000
 6413.00    1.50920   1.83773   -1.000
 6414.00    1.50550   1.84390   -1.000
 6415.00    1.51178   1.85076   -1.000
 6416.00    1.51562   1.85527   -1.000
 6417.00    1.50715   1.85457   -1.000
 6418.00    1.50116   1.84658   -1.000
 6419.00    1.46500   1.83254   -1.000
 6420.00    1.44279   1.81887   -1.000
 6421.00    1.40003   1.81449   -1.000
 6422.00    1.40563   1.82394   -1.000
 6423.00    1.42863   1.84310   -1.000
 6424.00    1.41854   1.86326   -1.000
 6425.00    1.41255   1.87882   -1.000
 6426.00    1.42765   1.88834   -1.000
 6427.00    1.39817   1.89024   -1.000
 6428.00    1.39246   1.88167   -1.000
