###################################################################
## OUTPUT of StarlightChains_v04.for    [Cid@UFSC - 01/Apr/2007] ##
###################################################################

## Some input info
NGC6624_a_1.cxt                          [arq_obs]
Base.BC03.N                              [arq_base]
NGC6624_a_1.msk                          [arq_masks]
StCv04.C11.config                        [arq_config]
   45                                    [N_base]
    0                                    [N_YAV_components = # of components with extra extinction!]
    0                                    [i_FitPowerLaw (1/0 = Yes/No)]
-9.99                                    [alpha_PowerLaw]
CCM                                      [red_law_option]
 1.458241                                [q_norm = A(l_norm)/A(V)]

## (Re)Sampling Parameters
 3359.00                                 [l_ini (A)]
 6428.00                                 [l_fin (A)]
    1.00                                 [dl    (A)]     (OBS: dl_cushion =    50.00 A)

## Normalization info
 4020.00                                 [l_norm (A) - for base]
 4010.00                                 [llow_norm (A) - window for f_obs]
 4060.00                                 [lupp_norm (A) - window for f_obs]
1.685692E-14                             [fobs_norm (in input units)]

## S/N
 4730.00                                 [llow_SN (A) - window for S/N]
 4780.00                                 [lupp_SN (A) - window for S/N]
  42.348                                 [S/N in S/N window]
  28.608                                 [S/N in norm. window]
  94.289                                 [S/N_err in S/N window]
  63.698                                 [S/N_err in norm. window]
  1.0000                                 [fscale_chi2]

## etc...
  2147483597                             [idum_orig]
  3069                                   [NOl_eff]
  1095                                   [Nl_eff]
  1974    NSIGMA                         [Ntot_cliped & clip_method]
   717500                                [Nglobal_steps]
   7                                     [N_chains]
  10                                     [NEX0s_base = N_base in EX0s-fits]
 0   0   1      375   2.0   1.181E+03    [Clip-Bug, RC-Crash & Burn-In warning-flags, n_censored_weights, wei_nsig_threshold & wei_limit]
     9      9.229      9.221      0.008  [idt_all, wdt_TotTime, wdt_UsrTime & wdt_SysTime (sec)]

## Synthesis Results - Best model ##

 2.59328E+00                             [chi2/Nl_eff]
     1.37356                             [adev (%)]

   103.14874                             [sum-of-x (%)]
 3.30079E-14                             [Flux_tot (units of input spectrum!)]
 1.18826E-09                             [Mini_tot (???)]
 6.20992E-10                             [Mcor_tot (???)]

   7.61                                  [v0_min  (km/s)]
  85.29                                  [vd_min  (km/s)]
 0.4772                                  [AV_min  (mag)]
 0.0000                                  [YAV_min (mag)]

# j     x_j(%)      Mini_j(%)     Mcor_j(%)     age_j(yr)     Z_j      (L/M)_j    YAV?  Mstars   component_j        a/Fe...       SSP_chi2r SSP_adev(%)   SSP_AV   SSP_x(%)
  1      0.0000     0.0000E+00    0.0000E+00    1.000000E+06  0.00400  1.114E-02    0   1.0000   age020_m42            0.0000     1.5477E+03    31.5265   4.0000    70.8719
  2      0.0000     0.0000E+00    0.0000E+00    3.160000E+06  0.00400  4.073E-02    0   0.9999   age045_m42            0.0000     4.1614E+02    10.3844   3.9260    83.5109
  3      0.0000     0.0000E+00    0.0000E+00    5.010000E+06  0.00400  2.534E-02    0   0.9488   age055_m42            0.0000     6.1832E+02    17.5952   4.0000    78.3172
  4      2.3501     4.9795E-03    8.4439E-03    1.000000E+07  0.00400  1.271E-02    0   0.8862   age070_m42            0.0000     4.8243E+02    13.8708   3.5971    78.9687
  5      0.0000     0.0000E+00    0.0000E+00    2.512000E+07  0.00400  5.070E-03    0   0.8174   age090_m42            0.0000     4.8239E+02    13.4618   3.4582    80.8327
  6      0.0000     0.0000E+00    0.0000E+00    4.000000E+07  0.00400  3.505E-03    0   0.7851   age104_m42            0.0000     4.6577E+02    11.9471   3.1212    84.7061
  7      0.0000     0.0000E+00    0.0000E+00    1.015200E+08  0.00400  2.268E-03    0   0.7207   age116_m42            0.0000     1.2784E+03     9.0928   3.0362    96.6453
  8      0.0000     0.0000E+00    0.0000E+00    2.861200E+08  0.00400  1.079E-03    0   0.6613   age125_m42            0.0000     1.2578E+03     8.5122   2.4908   101.0443
  9      0.0000     0.0000E+00    0.0000E+00    6.405400E+08  0.00400  5.077E-04    0   0.6197   age132_m42            0.0000     1.2313E+03     8.7491   2.1071   105.8827
 10      0.0000     0.0000E+00    0.0000E+00    9.047900E+08  0.00400  3.535E-04    0   0.6024   age135_m42            0.0000     8.5674E+02     7.6322   1.8640   105.6383
 11      0.0000     0.0000E+00    0.0000E+00    1.434000E+09  0.00400  1.910E-04    0   0.5716   age139_m42            0.0000     4.0371E+02     5.3181   1.3164   106.3892
 12      9.9395     2.7264E+00    2.8500E+00    2.500000E+09  0.00400  9.818E-05    0   0.5463   age150_m42            0.0000     9.6434E+01     3.0346   1.0431   102.3730
 13     19.0048     1.0848E+01    1.0852E+01    5.000000E+09  0.00400  4.718E-05    0   0.5228   age161_m42            0.0000     2.9497E+01     2.5239   0.8884    98.8271
 14     22.1742     2.7082E+01    2.5807E+01    1.100000E+10  0.00400  2.205E-05    0   0.4980   age185_m42            0.0000     9.2881E+00     2.0851   0.6043    98.2296
 15      0.0000     0.0000E+00    0.0000E+00    1.300000E+10  0.00400  1.883E-05    0   0.4927   age193_m42            0.0000     1.1975E+01     2.1834   0.5855    98.2111
 16      0.0000     0.0000E+00    0.0000E+00    1.000000E+06  0.02000  1.989E-02    0   1.0000   age020_m62            0.0000     1.4674E+03    30.5312   4.0000    71.7968
 17      0.0000     0.0000E+00    0.0000E+00    3.160000E+06  0.02000  3.772E-02    0   0.9858   age045_m62            0.0000     1.2172E+03    27.6522   4.0000    73.6301
 18      0.0000     0.0000E+00    0.0000E+00    5.010000E+06  0.02000  3.227E-02    0   0.9342   age055_m62            0.0000     5.6125E+02    14.3722   4.0000    80.4703
 19      0.0000     0.0000E+00    0.0000E+00    1.000000E+07  0.02000  1.011E-02    0   0.8751   age070_m62            0.0000     5.5842E+02    17.4815   3.6474    74.3854
 20      0.0000     0.0000E+00    0.0000E+00    2.512000E+07  0.02000  4.206E-03    0   0.8099   age090_m62            0.0000     5.4153E+02    15.8471   3.5661    76.0125
 21      0.0000     0.0000E+00    0.0000E+00    4.000000E+07  0.02000  3.373E-03    0   0.7799   age104_m62            0.0000     6.2459E+02    12.0407   3.3340    85.7216
 22      0.0000     0.0000E+00    0.0000E+00    1.015200E+08  0.02000  1.878E-03    0   0.7221   age116_m62            0.0000     1.2348E+03     9.7602   3.0901    95.6300
 23      0.0000     0.0000E+00    0.0000E+00    2.861200E+08  0.02000  8.869E-04    0   0.6700   age125_m62            0.0000     1.7606E+03     9.7228   2.4656   107.3648
 24      0.0000     0.0000E+00    0.0000E+00    6.405400E+08  0.02000  3.657E-04    0   0.6322   age132_m62            0.0000     9.7997E+02     8.1491   1.6896   116.3213
 25      0.0000     0.0000E+00    0.0000E+00    9.047900E+08  0.02000  2.312E-04    0   0.6152   age135_m62            0.0000     5.2773E+02     6.2790   1.3274   115.3919
 26      0.0000     0.0000E+00    0.0000E+00    1.434000E+09  0.02000  1.168E-04    0   0.5865   age139_m62            0.0000     1.2823E+02     3.4135   0.9505   108.3085
 27      0.0000     0.0000E+00    0.0000E+00    2.500000E+09  0.02000  5.505E-05    0   0.5610   age150_m62            0.0000     1.7849E+01     1.9530   0.5682   106.4479
 28     31.1531     3.2318E+01    3.3103E+01    5.000000E+09  0.02000  2.596E-05    0   0.5353   age161_m62            0.0000     2.6081E+01     2.7886   0.1923   109.1943
 29      0.0015     3.4287E-03    3.3480E-03    1.100000E+10  0.02000  1.169E-05    0   0.5103   age185_m62            0.0000     1.1709E+02     4.5606  -0.2275   113.9780
 30      0.0000     0.0000E+00    0.0000E+00    1.300000E+10  0.02000  9.691E-06    0   0.5047   age193_m62            0.0000     1.4356E+02     4.8412  -0.2827   114.7821
 31      0.0000     0.0000E+00    0.0000E+00    1.000000E+06  0.05000  2.651E-02    0   0.9998   age020_m72            0.0000     1.4571E+03    30.3208   4.0000    72.7388
 32      0.0000     0.0000E+00    0.0000E+00    3.160000E+06  0.05000  4.817E-02    0   0.9577   age045_m72            0.0000     9.4399E+02    23.6013   4.0000    76.9667
 33      0.0000     0.0000E+00    0.0000E+00    5.010000E+06  0.05000  3.101E-02    0   0.9147   age055_m72            0.0000     5.6478E+02    15.7949   4.0000    78.2400
 34      0.0000     0.0000E+00    0.0000E+00    1.000000E+07  0.05000  8.954E-03    0   0.8524   age070_m72            0.0000     7.9494E+02    20.4378   4.0000    78.4624
 35      0.0000     0.0000E+00    0.0000E+00    2.512000E+07  0.05000  4.207E-03    0   0.7902   age090_m72            0.0000     5.3084E+02    11.6429   4.0000    82.2373
 36      0.0000     0.0000E+00    0.0000E+00    4.000000E+07  0.05000  3.198E-03    0   0.7618   age104_m72            0.0000     9.2295E+02     9.5229   3.4752    91.2911
 37      0.0000     0.0000E+00    0.0000E+00    1.015200E+08  0.05000  1.716E-03    0   0.7092   age116_m72            0.0000     1.3427E+03     9.4061   3.1628    96.4944
 38      0.0000     0.0000E+00    0.0000E+00    2.861200E+08  0.05000  7.047E-04    0   0.6618   age125_m72            0.0000     1.5902E+03     8.8915   2.2277   109.8066
 39      0.0000     0.0000E+00    0.0000E+00    6.405400E+08  0.05000  2.633E-04    0   0.6253   age132_m72            0.0000     6.7777E+02     6.6703   1.3022   116.9578
 40      0.0000     0.0000E+00    0.0000E+00    9.047900E+08  0.05000  1.484E-04    0   0.6088   age135_m72            0.0000     1.8366E+02     4.2754   0.8322   111.9471
 41      0.0000     0.0000E+00    0.0000E+00    1.434000E+09  0.05000  7.827E-05    0   0.5847   age139_m72            0.0000     2.5867E+01     2.8846   0.4410   109.1612
 42     11.1529     7.9902E+00    8.5359E+00    2.500000E+09  0.05000  3.759E-05    0   0.5583   age150_m72            0.0000     3.2957E+01     3.3394   0.0979   109.7885
 43      5.1251     8.9160E+00    9.0763E+00    5.000000E+09  0.05000  1.548E-05    0   0.5320   age161_m72            0.0000     1.0691E+02     4.8364  -0.3595   112.0917
 44      1.3512     5.5709E+00    5.4046E+00    1.100000E+10  0.05000  6.532E-06    0   0.5070   age185_m72            0.0000     2.0549E+02     7.0671  -0.8173   116.4209
 45      0.8963     4.5405E+00    4.3598E+00    1.300000E+10  0.05000  5.316E-06    0   0.5018   age193_m72            0.0000     2.5012E+02     8.0611  -0.9730   118.5669


## Synthesis Results - Average & Chains ##

# j      x_j: min, <> & last-chain-values for 1 ...  7 chains
  1      0.0000      0.0210      0.1098      0.0394      0.0000      0.0000      0.0000      0.0000      0.0391
  2      0.0000      0.0453      0.0000      0.0847      0.1624      0.1427      0.0000      0.0000      0.0000
  3      0.0000      0.0866      0.0000      0.1099      0.0000      0.0000      0.2031      0.0869      0.0935
  4      2.3501      1.3539      1.4164      1.6684      1.4674      1.2320      1.5331      1.5244      1.4608
  5      0.0000      0.0337      0.1004      0.0000      0.0000      0.1905      0.0000      0.0000      0.0000
  6      0.0000      0.0371      0.0000      0.0000      0.0426      0.0000      0.0000      0.0080      0.0000
  7      0.0000      0.0117      0.0000      0.0000      0.0000      0.0000      0.0000      0.0000      0.0000
  8      0.0000      0.0047      0.0000      0.0000      0.0000      0.0000      0.0000      0.0000      0.0000
  9      0.0000      0.0107      0.0000      0.0000      0.0025      0.0000      0.0000      0.0000      0.0000
 10      0.0000      0.0242      0.0000      0.0000      0.0000      0.0000      0.0000      0.0000      0.0000
 11      0.0000      0.0352      0.0000      0.0000      0.0000      0.0000      0.0000      0.0153      0.0000
 12      9.9395     11.7681     11.8667     11.8312     11.3912     11.8368     11.9738     11.9107     12.3886
 13     19.0048     13.5654     13.5002     12.8995     13.8133     13.8012     14.1055     13.9980     13.6341
 14     22.1742     23.9300     24.1858     24.4030     23.7678     24.1189     24.0295     23.6626     23.9275
 15      0.0000      0.4018      0.1367      0.0000      0.4304      0.1195      0.1283      0.4595      0.1447
 16      0.0000      0.0226      0.0000      0.0247      0.0000      0.0000      0.0000      0.0000      0.0000
 17      0.0000      0.0161      0.0090      0.0000      0.0000      0.0957      0.0040      0.0000      0.0000
 18      0.0000      0.2467      0.4136      0.2151      0.2154      0.3931      0.2480      0.2631      0.4933
 19      0.0000      0.1548      0.0816      0.0000      0.2268      0.2256      0.1248      0.1293      0.1646
 20      0.0000      0.0211      0.0000      0.0000      0.0000      0.0045      0.0730      0.0000      0.0000
 21      0.0000      0.0126      0.0000      0.0000      0.0000      0.0000      0.0004      0.0000      0.0132
 22      0.0000      0.0070      0.0000      0.0000      0.0000      0.0592      0.0000      0.0000      0.0000
 23      0.0000      0.0034      0.0000      0.0000      0.0000      0.0000      0.0000      0.0000      0.0000
 24      0.0000      0.0087      0.0000      0.0000      0.0000      0.0000      0.0000      0.0000      0.0000
 25      0.0000      0.0260      0.0801      0.0000      0.0000      0.0000      0.0000      0.0000      0.0000
 26      0.0000      0.0900      0.1257      0.0000      0.4851      0.0000      0.0000      0.0479      0.0646
 27      0.0000      0.8231      0.3318      2.6455      0.8713      0.8672      0.4832      0.9290      0.6431
 28     31.1531     37.2368     36.3009     36.3737     37.3061     36.8361     37.1332     36.8630     36.6387
 29      0.0015      3.0782      2.9388      2.3835      2.2396      2.4909      2.4632      2.8579      1.6688
 30      0.0000      0.0730      0.0000      0.0000      0.0000      0.0000      0.0152      0.0000      0.0000
 31      0.0000      0.0069      0.0000      0.0000      0.0011      0.0000      0.0000      0.0000      0.0000
 32      0.0000      0.0830      0.1393      0.0000      0.2894      0.0734      0.0329      0.0826      0.0000
 33      0.0000      0.0739      0.0000      0.1972      0.0000      0.0000      0.0421      0.0825      0.0000
 34      0.0000      0.0361      0.0000      0.0000      0.0000      0.0000      0.0000      0.1021      0.0000
 35      0.0000      0.0124      0.0000      0.0000      0.0000      0.0000      0.0235      0.0000      0.0328
 36      0.0000      0.0100      0.0000      0.0000      0.0000      0.0000      0.0000      0.0000      0.0000
 37      0.0000      0.0126      0.0000      0.0000      0.0000      0.0000      0.0000      0.0000      0.0000
 38      0.0000      0.0046      0.0000      0.0000      0.0000      0.0000      0.0000      0.0000      0.0000
 39      0.0000      0.0204      0.0000      0.0000      0.0000      0.0000      0.0000      0.0000      0.0000
 40      0.0000      0.0947      0.0000      0.0000      0.0646      0.0000      0.0000      0.0000      0.0000
 41      0.0000      0.5398      1.3470      0.2782      0.3462      0.4627      0.5200      0.4241      0.1138
 42     11.1529      5.8065      6.6502      6.0988      6.1534      5.8755      6.0219      5.8502      7.2054
 43      5.1251      1.6263      1.6158      1.9129      1.7319      2.6960      2.0086      1.8558      2.4319
 44      1.3512      1.0172      1.0319      1.1731      0.9934      0.8775      1.1585      1.3139      1.1929
 45      0.8963      0.8422      0.9538      0.9624      1.2639      0.8642      0.9610      0.8451      0.9521

# j      m_j: min, <> & last-chain-values for 1 ...  7 chains
  1  0.0000E+00  9.4794E-05  4.9763E-04  1.7859E-04  0.0000E+00  0.0000E+00  0.0000E+00  0.0000E+00  1.7806E-04
  2  0.0000E+00  5.5945E-05  0.0000E+00  1.0492E-04  1.9998E-04  1.7714E-04  0.0000E+00  0.0000E+00  0.0000E+00
  3  0.0000E+00  1.6310E-04  0.0000E+00  2.0764E-04  0.0000E+00  0.0000E+00  3.8192E-04  1.6274E-04  1.7749E-04
  4  8.4439E-03  4.7505E-03  4.9851E-03  5.8711E-03  5.1333E-03  4.3449E-03  5.3686E-03  5.3191E-03  5.1611E-03
  5  0.0000E+00  2.7314E-04  8.1683E-04  0.0000E+00  0.0000E+00  1.5535E-03  0.0000E+00  0.0000E+00  0.0000E+00
  6  0.0000E+00  4.1766E-04  0.0000E+00  0.0000E+00  4.7848E-04  0.0000E+00  0.0000E+00  8.9213E-05  0.0000E+00
  7  0.0000E+00  1.8754E-04  0.0000E+00  0.0000E+00  0.0000E+00  0.0000E+00  0.0000E+00  0.0000E+00  0.0000E+00
  8  0.0000E+00  1.4362E-04  0.0000E+00  0.0000E+00  0.0000E+00  0.0000E+00  0.0000E+00  0.0000E+00  0.0000E+00
  9  0.0000E+00  6.5485E-04  0.0000E+00  0.0000E+00  1.5338E-04  0.0000E+00  0.0000E+00  0.0000E+00  0.0000E+00
 10  0.0000E+00  2.0733E-03  0.0000E+00  0.0000E+00  0.0000E+00  0.0000E+00  0.0000E+00  0.0000E+00  0.0000E+00
 11  0.0000E+00  5.2984E-03  0.0000E+00  0.0000E+00  0.0000E+00  0.0000E+00  0.0000E+00  2.2955E-03  0.0000E+00
 12  2.8500E+00  3.2953E+00  3.3329E+00  3.3225E+00  3.1800E+00  3.3314E+00  3.3462E+00  3.3167E+00  3.4930E+00
 13  1.0852E+01  7.5647E+00  7.5511E+00  7.2141E+00  7.6795E+00  7.7354E+00  7.8502E+00  7.7626E+00  7.6554E+00
 14  2.5807E+01  2.7199E+01  2.7572E+01  2.7816E+01  2.6932E+01  2.7553E+01  2.7257E+01  2.6745E+01  2.7383E+01
 15  0.0000E+00  5.2910E-01  1.8054E-01  0.0000E+00  5.6507E-01  1.5817E-01  1.6856E-01  6.0166E-01  1.9192E-01
 16  0.0000E+00  5.7139E-05  0.0000E+00  6.2688E-05  0.0000E+00  0.0000E+00  0.0000E+00  0.0000E+00  0.0000E+00
 17  0.0000E+00  2.1129E-05  1.1832E-05  0.0000E+00  0.0000E+00  1.2649E-04  5.2609E-06  0.0000E+00  0.0000E+00
 18  0.0000E+00  3.5935E-04  6.0444E-04  3.1421E-04  3.1284E-04  5.7556E-04  3.6062E-04  3.8120E-04  7.2357E-04
 19  0.0000E+00  6.7409E-04  3.5673E-04  0.0000E+00  9.8485E-04  9.8770E-04  5.4251E-04  5.5996E-04  7.2185E-04
 20  0.0000E+00  2.0412E-04  0.0000E+00  0.0000E+00  0.0000E+00  4.4104E-05  7.0636E-04  0.0000E+00  0.0000E+00
 21  0.0000E+00  1.4695E-04  0.0000E+00  0.0000E+00  0.0000E+00  0.0000E+00  4.8483E-06  0.0000E+00  1.5450E-04
 22  0.0000E+00  1.3572E-04  0.0000E+00  0.0000E+00  0.0000E+00  1.1519E-03  0.0000E+00  0.0000E+00  0.0000E+00
 23  0.0000E+00  1.2869E-04  0.0000E+00  0.0000E+00  0.0000E+00  0.0000E+00  0.0000E+00  0.0000E+00  0.0000E+00
 24  0.0000E+00  7.6028E-04  0.0000E+00  0.0000E+00  0.0000E+00  0.0000E+00  0.0000E+00  0.0000E+00  0.0000E+00
 25  0.0000E+00  3.4822E-03  1.0758E-02  0.0000E+00  0.0000E+00  0.0000E+00  0.0000E+00  0.0000E+00  0.0000E+00
 26  0.0000E+00  2.2750E-02  3.1856E-02  0.0000E+00  1.2221E-01  0.0000E+00  0.0000E+00  1.2028E-02  1.6434E-02
 27  0.0000E+00  4.2212E-01  1.7068E-01  1.3606E+00  4.4546E-01  4.4701E-01  2.4730E-01  4.7381E-01  3.3206E-01
 28  3.3103E+01  3.8641E+01  3.7783E+01  3.7854E+01  3.8595E+01  3.8420E+01  3.8456E+01  3.8040E+01  3.8282E+01
 29  3.3480E-03  6.7622E+00  6.4754E+00  5.2512E+00  4.9050E+00  5.5000E+00  5.4004E+00  6.2433E+00  3.6913E+00
 30  0.0000E+00  1.9127E-01  0.0000E+00  0.0000E+00  0.0000E+00  0.0000E+00  3.9793E-02  0.0000E+00  0.0000E+00
 31  0.0000E+00  1.3107E-05  0.0000E+00  0.0000E+00  2.1555E-06  0.0000E+00  0.0000E+00  0.0000E+00  0.0000E+00
 32  0.0000E+00  8.3003E-05  1.3983E-04  0.0000E+00  2.8870E-04  7.3852E-05  3.2854E-05  8.2142E-05  0.0000E+00
 33  0.0000E+00  1.0963E-04  0.0000E+00  2.9350E-04  0.0000E+00  0.0000E+00  6.2422E-05  1.2174E-04  0.0000E+00
 34  0.0000E+00  1.7312E-04  0.0000E+00  0.0000E+00  0.0000E+00  0.0000E+00  0.0000E+00  4.8639E-04  0.0000E+00
 35  0.0000E+00  1.1738E-04  0.0000E+00  0.0000E+00  0.0000E+00  0.0000E+00  2.2206E-04  0.0000E+00  3.1185E-04
 36  0.0000E+00  1.1937E-04  0.0000E+00  0.0000E+00  0.0000E+00  0.0000E+00  0.0000E+00  0.0000E+00  0.0000E+00
 37  0.0000E+00  2.6226E-04  0.0000E+00  0.0000E+00  0.0000E+00  0.0000E+00  0.0000E+00  0.0000E+00  0.0000E+00
 38  0.0000E+00  2.1887E-04  0.0000E+00  0.0000E+00  0.0000E+00  0.0000E+00  0.0000E+00  0.0000E+00  0.0000E+00
 39  0.0000E+00  2.4348E-03  0.0000E+00  0.0000E+00  0.0000E+00  0.0000E+00  0.0000E+00  0.0000E+00  0.0000E+00
 40  0.0000E+00  1.9554E-02  0.0000E+00  0.0000E+00  1.3296E-02  0.0000E+00  0.0000E+00  0.0000E+00  0.0000E+00
 41  0.0000E+00  2.0294E-01  5.0791E-01  1.0489E-01  1.2976E-01  1.7482E-01  1.9509E-01  1.5857E-01  4.3090E-02
 42  8.5359E+00  4.3400E+00  4.9856E+00  4.5716E+00  4.5853E+00  4.4139E+00  4.4920E+00  4.3484E+00  5.4227E+00
 43  9.0763E+00  2.8126E+00  2.8030E+00  3.3179E+00  2.9862E+00  4.6864E+00  3.4669E+00  3.1919E+00  4.2351E+00
 44  5.4046E+00  3.9735E+00  4.0429E+00  4.5954E+00  3.8686E+00  3.4449E+00  4.5163E+00  5.1038E+00  4.6918E+00
 45  4.3598E+00  4.0008E+00  4.5444E+00  4.5848E+00  5.9856E+00  4.1262E+00  4.5561E+00  3.9922E+00  4.5542E+00

# AV, chi2 & Mass for <> & i_chain = 1 ...  7 solutions
AV       0.4772      0.4884      0.4865      0.4872      0.4880      0.4879      0.4856      0.4857      0.4849
chi2 2.5933E+00  2.6789E+00  2.6673E+00  2.6592E+00  2.6619E+00  2.6571E+00  2.6591E+00  2.6647E+00  2.6463E+00
Mass 6.2099E-10  6.4546E-10  6.4190E-10  6.4258E-10  6.4706E-10  6.4179E-10  6.4435E-10  6.4671E-10  6.3801E-10
   7.61                                  [v0_min (km/s) before EX0s...]
  85.29                                  [vd_min (km/s) before EX0s...]


## Synthetic spectrum (Best Model) ##l_obs f_obs f_syn wei
 3070    [Nl_obs]
 3359.00    0.05591   0.39444   -1.000
 3360.00    0.20115   0.36052   -1.000
 3361.00    0.19641   0.35636   -1.000
 3362.00    0.21342   0.38368   -1.000
 3363.00    0.23314   0.42628   -1.000
 3364.00    0.24673   0.46040   -1.000
 3365.00    0.25663   0.46932   -1.000
 3366.00    0.25514   0.45235   -1.000
 3367.00    0.25327   0.42234   -1.000
 3368.00    0.25142   0.39436   -1.000
 3369.00    0.24957   0.37644   -1.000
 3370.00    0.23791   0.36784   -1.000
 3371.00    0.22961   0.36597   -1.000
 3372.00    0.23964   0.37307   -1.000
 3373.00    0.24594   0.39370   -1.000
 3374.00    0.25362   0.42706   -1.000
 3375.00    0.27821   0.46382   -1.000
 3376.00    0.30379   0.48767   -1.000
 3377.00    0.31665   0.48601   -1.000
 3378.00    0.31172   0.46153   -1.000
 3379.00    0.29381   0.43117   -1.000
 3380.00    0.28970   0.41357   -1.000
 3381.00    0.29620   0.41658   -1.000
 3382.00    0.30524   0.43457   -1.000
 3383.00    0.31109   0.45577   -1.000
 3384.00    0.31134   0.47324   -1.000
 3385.00    0.31705   0.48660   -1.000
 3386.00    0.32403   0.49477   -1.000
 3387.00    0.32744   0.49642   -1.000
 3388.00    0.33020   0.49383   -1.000
 3389.00    0.33743   0.48892   -1.000
 3390.00    0.34924   0.47978   -1.000
 3391.00    0.34791   0.46491   -1.000
 3392.00    0.33951   0.44877   -1.000
 3393.00    0.33917   0.44187   -1.000
 3394.00    0.34546   0.45189   -1.000
 3395.00    0.36156   0.47616   -1.000
 3396.00    0.38294   0.50532   -1.000
 3397.00    0.39674   0.53151   -1.000
 3398.00    0.41309   0.54951   -1.000
 3399.00    0.43459   0.55582   -1.000
 3400.00    0.44186   0.55033   -1.000
 3401.00    0.43634   0.53620   -1.000
 3402.00    0.42944   0.51780   -1.000
 3403.00    0.41555   0.50045   -1.000
 3404.00    0.41362   0.48806   -1.000
 3405.00    0.40571   0.47959   -1.000
 3406.00    0.39484   0.47177   -1.000
 3407.00    0.38745   0.46477   -1.000
 3408.00    0.38592   0.46244   -1.000
 3409.00    0.38538   0.46740   -1.000
 3410.00    0.38730   0.47543   -1.000
 3411.00    0.38905   0.47691   -1.000
 3412.00    0.38591   0.46657   -1.000
 3413.00    0.38365   0.45003   -1.000
 3414.00    0.37592   0.43939   -1.000
 3415.00    0.37276   0.44298   -1.000
 3416.00    0.38496   0.46040   -1.000
 3417.00    0.39816   0.48541   -1.000
 3418.00    0.40963   0.51098   -1.000
 3419.00    0.43495   0.53111   -1.000
 3420.00    0.44918   0.53980   -1.000
 3421.00    0.45058   0.53446   -1.000
 3422.00    0.44229   0.52022   -1.000
 3423.00    0.43121   0.50683   -1.000
 3424.00    0.42730   0.50077   -1.000
 3425.00    0.43051   0.50196   -1.000
 3426.00    0.44323   0.50807   -1.000
 3427.00    0.45009   0.52031   -1.000
 3428.00    0.45355   0.53988   -1.000
 3429.00    0.46672   0.55882   -1.000
 3430.00    0.48626   0.56358   -1.000
 3431.00    0.47633   0.54935   -1.000
 3432.00    0.46164   0.52625   -1.000
 3433.00    0.44765   0.51040   -1.000
 3434.00    0.45425   0.50898   -1.000
 3435.00    0.46623   0.51514   -1.000
 3436.00    0.45938   0.51630   -1.000
 3437.00    0.44400   0.50452   -1.000
 3438.00    0.42306   0.47824   -1.000
 3439.00    0.40270   0.44107   -1.000
 3440.00    0.38796   0.40192  206.620
 3441.00    0.37133   0.37339  212.611
 3442.00    0.36568   0.36462  212.535
 3443.00    0.36935   0.37439  209.416
 3444.00    0.37834   0.39440  200.094
 3445.00    0.39760   0.41784   -1.000
 3446.00    0.42178   0.44347   -1.000
 3447.00    0.43701   0.47192   -1.000
 3448.00    0.45277   0.50063   -1.000
 3449.00    0.47057   0.52221   -1.000
 3450.00    0.48471   0.52817   -1.000
 3451.00    0.48416   0.51746   -1.000
 3452.00    0.47103   0.50072   -1.000
 3453.00    0.47139   0.49212   -1.000
 3454.00    0.47193   0.49588   -1.000
 3455.00    0.48331   0.50306   -1.000
 3456.00    0.48447   0.50145   -1.000
 3457.00    0.47981   0.48640   -1.000
 3458.00    0.46583   0.46425  479.640
 3459.00    0.45690   0.44463  171.530
 3460.00    0.44341   0.43363  172.877
 3461.00    0.44192   0.43627  230.072
 3462.00    0.45206   0.45342 1180.796
 3463.00    0.46764   0.47528   -1.000
 3464.00    0.48838   0.48882 1180.796
 3465.00    0.49669   0.49128   -1.000
 3466.00    0.49650   0.49102   -1.000
 3467.00    0.49578   0.49728 1180.796
 3468.00    0.50426   0.51063   -1.000
 3469.00    0.51708   0.52399   -1.000
 3470.00    0.52754   0.52938 1180.796
 3471.00    0.52844   0.52225   -1.000
 3472.00    0.51458   0.50231   -1.000
 3473.00    0.49182   0.47311   -1.000
 3474.00    0.45937   0.44230   -1.000
 3475.00    0.43526   0.42143  174.104
 3476.00    0.42518   0.42054  177.687
 3477.00    0.43551   0.43928  233.758
 3478.00    0.46215   0.46669   -1.000
 3479.00    0.48838   0.48990 1180.796
 3480.00    0.51464   0.50160   -1.000
 3481.00    0.52135   0.50112   -1.000
 3482.00    0.51714   0.49274   -1.000
 3483.00    0.51396   0.48400   -1.000
 3484.00    0.51171   0.48368   -1.000
 3485.00    0.52364   0.49605   -1.000
 3486.00    0.53679   0.51379   -1.000
 3487.00    0.55210   0.52093   -1.000
 3488.00    0.54564   0.50799   -1.000
 3489.00    0.51361   0.48161   -1.000
 3490.00    0.47852   0.45805   -1.000
 3491.00    0.46037   0.44914   -1.000
 3492.00    0.46308   0.45387   -1.000
 3493.00    0.48278   0.46256   -1.000
 3494.00    0.49366   0.46554   -1.000
 3495.00    0.48860   0.46055   -1.000
 3496.00    0.48157   0.45588   -1.000
 3497.00    0.48595   0.46432   -1.000
 3498.00    0.50000   0.48895   -1.000
 3499.00    0.52700   0.51765   -1.000
 3500.00    0.54896   0.53776   -1.000
 3501.00    0.55745   0.54899   -1.000
 3502.00    0.57122   0.55647   -1.000
 3503.00    0.58073   0.56022   -1.000
 3504.00    0.57797   0.55640   -1.000
 3505.00    0.56439   0.54622   -1.000
 3506.00    0.55924   0.53648   -1.000
 3507.00    0.56055   0.53090   -1.000
 3508.00    0.55934   0.52629   -1.000
 3509.00    0.55134   0.51759   -1.000
 3510.00    0.53415   0.50460   -1.000
 3511.00    0.52284   0.49037   -1.000
 3512.00    0.50890   0.47678   -1.000
 3513.00    0.49365   0.46649   -1.000
 3514.00    0.48963   0.46726   -1.000
 3515.00    0.49849   0.48575   -1.000
 3516.00    0.52468   0.51765   -1.000
 3517.00    0.55987   0.54765   -1.000
 3518.00    0.57538   0.56010   -1.000
 3519.00    0.56849   0.54999   -1.000
 3520.00    0.53779   0.52393   -1.000
 3521.00    0.50744   0.49355   -1.000
 3522.00    0.49129   0.46618   -1.000
 3523.00    0.46587   0.44221   -1.000
 3524.00    0.45502   0.42364   -1.000
 3525.00    0.44653   0.41777   -1.000
 3526.00    0.44826   0.43120   -1.000
 3527.00    0.46814   0.46202   -1.000
 3528.00    0.49915   0.49826 1180.796
 3529.00    0.52888   0.52540   -1.000
 3530.00    0.54939   0.53637   -1.000
 3531.00    0.54576   0.53565   -1.000
 3532.00    0.53626   0.53438   -1.000
 3533.00    0.54116   0.54010 1180.796
 3534.00    0.55381   0.55103   -1.000
 3535.00    0.56375   0.56082   -1.000
 3536.00    0.55955   0.56750   -1.000
 3537.00    0.56762   0.57478   -1.000
 3538.00    0.56971   0.58430   -1.000
 3539.00    0.57617   0.59072   -1.000
 3540.00    0.57160   0.58840   -1.000
 3541.00    0.56502   0.58113   -1.000
 3542.00    0.56149   0.57846   -1.000
 3543.00    0.56502   0.58368   -1.000
 3544.00    0.56367   0.59159   -1.000
 3545.00    0.55951   0.59479   -1.000
 3546.00    0.55937   0.59122   -1.000
 3547.00    0.55618   0.58556   -1.000
 3548.00    0.55013   0.58300   -1.000
 3549.00    0.55202   0.58391   -1.000
 3550.00    0.55227   0.58373   -1.000
 3551.00    0.54529   0.57747   -1.000
 3552.00    0.53338   0.56477   -1.000
 3553.00    0.52534   0.55158   -1.000
 3554.00    0.51642   0.54512   -1.000
 3555.00    0.51207   0.54693   -1.000
 3556.00    0.51845   0.55158   -1.000
 3557.00    0.52753   0.55229   -1.000
 3558.00    0.52099   0.54857   -1.000
 3559.00    0.51125   0.54678   -1.000
 3560.00    0.51063   0.55299   -1.000
 3561.00    0.51767   0.56539   -1.000
 3562.00    0.52692   0.57189   -1.000
 3563.00    0.52941   0.55728   -1.000
 3564.00    0.50862   0.51907   -1.000
 3565.00    0.47073   0.47622  174.553
 3566.00    0.44157   0.45059  179.021
 3567.00    0.43444   0.44305  177.195
 3568.00    0.43731   0.43874  178.244
 3569.00    0.42775   0.42868  183.596
 3570.00    0.41796   0.42025  184.202
 3571.00    0.43159   0.42480  177.596
 3572.00    0.44938   0.44123  232.454
 3573.00    0.46556   0.45979   -1.000
 3574.00    0.47988   0.47367   -1.000
 3575.00    0.48491   0.48167   -1.000
 3576.00    0.48832   0.48373   -1.000
 3577.00    0.48000   0.47715   -1.000
 3578.00    0.47053   0.45854   -1.000
 3579.00    0.44811   0.42918   -1.000
 3580.00    0.41673   0.39856   -1.000
 3581.00    0.39224   0.37865   -1.000
 3582.00    0.38178   0.37384  204.609
 3583.00    0.38884   0.37683  206.709
 3584.00    0.38658   0.37579  212.449
 3585.00    0.37399   0.36854  218.315
 3586.00    0.36364   0.36431  217.033
 3587.00    0.37291   0.37242  205.751
 3588.00    0.39223   0.39561  195.083
 3589.00    0.41304   0.43024  183.122
 3590.00    0.44669   0.46796   -1.000
 3591.00    0.48567   0.49856   -1.000
 3592.00    0.51221   0.51609   -1.000
 3593.00    0.51778   0.52457   -1.000
 3594.00    0.52058   0.53453   -1.000
 3595.00    0.53550   0.55199   -1.000
 3596.00    0.55471   0.57309   -1.000
 3597.00    0.57352   0.59142   -1.000
 3598.00    0.58906   0.60486   -1.000
 3599.00    0.60414   0.61137   -1.000
 3600.00    0.60828   0.60533   -1.000
 3601.00    0.59321   0.58314   -1.000
 3602.00    0.56988   0.55031   -1.000
 3603.00    0.53630   0.51930   -1.000
 3604.00    0.51187   0.50024   -1.000
 3605.00    0.50717   0.49353   -1.000
 3606.00    0.51182   0.49013   -1.000
 3607.00    0.50883   0.48113   -1.000
 3608.00    0.50023   0.46761   -1.000
 3609.00    0.47760   0.46057   -1.000
 3610.00    0.47238   0.46876   -1.000
 3611.00    0.48993   0.48766   -1.000
 3612.00    0.51192   0.50699   -1.000
 3613.00    0.52584   0.52385 1180.796
 3614.00    0.53188   0.53954   -1.000
 3615.00    0.54852   0.54856 1180.796
 3616.00    0.55435   0.53802   -1.000
 3617.00    0.52821   0.50410   -1.000
 3618.00    0.47920   0.46656   -1.000
 3619.00    0.45743   0.45284  230.626
 3620.00    0.47636   0.47121   -1.000
 3621.00    0.52039   0.50799   -1.000
 3622.00    0.55936   0.54447   -1.000
 3623.00    0.57645   0.57316   -1.000
 3624.00    0.57599   0.59929   -1.000
 3625.00    0.58396   0.62907   -1.000
 3626.00    0.62628   0.65828   -1.000
 3627.00    0.64898   0.67351   -1.000
 3628.00    0.63493   0.66072   -1.000
 3629.00    0.59841   0.61636   -1.000
 3630.00    0.54712   0.55624   -1.000
 3631.00    0.49982   0.50789   -1.000
 3632.00    0.47941   0.48975   -1.000
 3633.00    0.49408   0.49944   -1.000
 3634.00    0.51002   0.52148   -1.000
 3635.00    0.52736   0.54320   -1.000
 3636.00    0.55121   0.56258   -1.000
 3637.00    0.57676   0.58464   -1.000
 3638.00    0.59569   0.61071   -1.000
 3639.00    0.61639   0.63380   -1.000
 3640.00    0.62992   0.64373   -1.000
 3641.00    0.61856   0.63518   -1.000
 3642.00    0.59720   0.61216   -1.000
 3643.00    0.57236   0.58442   -1.000
 3644.00    0.54781   0.56008   -1.000
 3645.00    0.53765   0.54120   -1.000
 3646.00    0.53248   0.52611   -1.000
 3647.00    0.51675   0.51567 1180.796
 3648.00    0.51464   0.51460 1180.796
 3649.00    0.52523   0.52667 1180.796
 3650.00    0.54797   0.55163   -1.000
 3651.00    0.57467   0.58461   -1.000
 3652.00    0.60112   0.61712   -1.000
 3653.00    0.61983   0.64147   -1.000
 3654.00    0.62934   0.65650   -1.000
 3655.00    0.63800   0.66750   -1.000
 3656.00    0.64586   0.68026   -1.000
 3657.00    0.65743   0.69481   -1.000
 3658.00    0.67216   0.70631   -1.000
 3659.00    0.67567   0.71125   -1.000
 3660.00    0.67691   0.70825   -1.000
 3661.00    0.67695   0.69723   -1.000
 3662.00    0.65743   0.68152   -1.000
 3663.00    0.64419   0.66757   -1.000
 3664.00    0.63702   0.66030   -1.000
 3665.00    0.63542   0.65891   -1.000
 3666.00    0.63857   0.65707   -1.000
 3667.00    0.63536   0.64886   -1.000
 3668.00    0.62257   0.63572   -1.000
 3669.00    0.60943   0.62764   -1.000
 3670.00    0.61026   0.63357   -1.000
 3671.00    0.62934   0.65122   -1.000
 3672.00    0.65199   0.66952   -1.000
 3673.00    0.66271   0.67893   -1.000
 3674.00    0.65721   0.67656   -1.000
 3675.00    0.65247   0.66305   -1.000
 3676.00    0.64282   0.64071 1180.796
 3677.00    0.61395   0.61431 1180.796
 3678.00    0.58925   0.59037   -1.000
 3679.00    0.58163   0.57584   -1.000
 3680.00    0.58222   0.57497   -1.000
 3681.00    0.59656   0.58621   -1.000
 3682.00    0.61263   0.60164   -1.000
 3683.00    0.61627   0.60998   -1.000
 3684.00    0.61739   0.60273   -1.000
 3685.00    0.59660   0.58048   -1.000
 3686.00    0.56952   0.55554   -1.000
 3687.00    0.55414   0.54497   -1.000
 3688.00    0.56786   0.55842   -1.000
 3689.00    0.59355   0.59248 1180.796
 3690.00    0.62573   0.63264   -1.000
 3691.00    0.65143   0.66088   -1.000
 3692.00    0.66092   0.66767   -1.000
 3693.00    0.65569   0.65882   -1.000
 3694.00    0.64205   0.64709   -1.000
 3695.00    0.63982   0.64125   -1.000
 3696.00    0.64365   0.64528   -1.000
 3697.00    0.65475   0.66052   -1.000
 3698.00    0.67876   0.68364   -1.000
 3699.00    0.70421   0.70478 1124.799
 3700.00    0.71894   0.71175   -1.000
 3701.00    0.70879   0.69616   -1.000
 3702.00    0.67396   0.65694   -1.000
 3703.00    0.61969   0.60285   -1.000
 3704.00    0.56342   0.54989   -1.000
 3705.00    0.53774   0.51330   -1.000
 3706.00    0.53401   0.49915   -1.000
 3707.00    0.53986   0.50222   -1.000
 3708.00    0.54983   0.51496   -1.000
 3709.00    0.56078   0.53514   -1.000
 3710.00    0.58245   0.56399   -1.000
 3711.00    0.61121   0.60147   -1.000
 3712.00    0.65242   0.64339   -1.000
 3713.00    0.69046   0.68028   -1.000
 3714.00    0.71449   0.70177   -1.000
 3715.00    0.72073   0.70263   -1.000
 3716.00    0.70565   0.68194   -1.000
 3717.00    0.67587   0.64025   -1.000
 3718.00    0.62323   0.58053   -1.000
 3719.00    0.55522   0.51293   -1.000
 3720.00    0.49070   0.45834   -1.000
 3721.00    0.46131   0.43809   -1.000
 3722.00    0.47907   0.45830   -1.000
 3723.00    0.53385   0.50689   -1.000
 3724.00    0.59677   0.56021   -1.000
 3725.00    0.63585   0.59479   -1.000
 3726.00    0.63883   0.60345   -1.000
 3727.00    0.61883   0.59928   -1.000
 3728.00    0.60936   0.59713   -1.000
 3729.00    0.61474   0.59653   -1.000
 3730.00    0.61497   0.58515   -1.000
 3731.00    0.58850   0.55225   -1.000
 3732.00    0.54589   0.49949   -1.000
 3733.00    0.48673   0.44090   -1.000
 3734.00    0.43215   0.39407   -1.000
 3735.00    0.40601   0.37363   -1.000
 3736.00    0.41432   0.38667   -1.000
 3737.00    0.45126   0.42964   -1.000
 3738.00    0.50587   0.49017   -1.000
 3739.00    0.57157   0.55032   -1.000
 3740.00    0.61107   0.59127   -1.000
 3741.00    0.62035   0.60208   -1.000
 3742.00    0.60720   0.58444   -1.000
 3743.00    0.58013   0.54942   -1.000
 3744.00    0.54521   0.51096   -1.000
 3745.00    0.51065   0.47808   -1.000
 3746.00    0.48883   0.45005   -1.000
 3747.00    0.46709   0.42286   -1.000
 3748.00    0.44021   0.40070   -1.000
 3749.00    0.42739   0.39805   -1.000
 3750.00    0.45473   0.42647   -1.000
 3751.00    0.51680   0.48173   -1.000
 3752.00    0.58110   0.54779   -1.000
 3753.00    0.63907   0.60873   -1.000
 3754.00    0.68385   0.65111   -1.000
 3755.00    0.69851   0.66180   -1.000
 3756.00    0.67477   0.63611   -1.000
 3757.00    0.61339   0.58822   -1.000
 3758.00    0.55259   0.54546   -1.000
 3759.00    0.52962   0.52848 1180.796
 3760.00    0.54870   0.53653   -1.000
 3761.00    0.58223   0.55302   -1.000
 3762.00    0.59983   0.56458   -1.000
 3763.00    0.60217   0.56945   -1.000
 3764.00    0.60417   0.56954   -1.000
 3765.00    0.60982   0.56500   -1.000
 3766.00    0.60233   0.55723   -1.000
 3767.00    0.59230   0.55009   -1.000
 3768.00    0.59209   0.54644   -1.000
 3769.00    0.59652   0.54729   -1.000
 3770.00    0.59917   0.55509   -1.000
 3771.00    0.61107   0.57360   -1.000
 3772.00    0.63493   0.60123   -1.000
 3773.00    0.66593   0.62853   -1.000
 3774.00    0.68241   0.64712   -1.000
 3775.00    0.68572   0.65737   -1.000
 3776.00    0.68644   0.66516   -1.000
 3777.00    0.68514   0.67579   -1.000
 3778.00    0.69092   0.69140 1143.617
 3779.00    0.70489   0.71008   -1.000
 3780.00    0.72873   0.72763 1088.618
 3781.00    0.74175   0.74071 1081.783
 3782.00    0.73761   0.74739   -1.000
 3783.00    0.73946   0.74428   -1.000
 3784.00    0.72820   0.72574   -1.000
 3785.00    0.70211   0.69072   -1.000
 3786.00    0.65711   0.64825   -1.000
 3787.00    0.62278   0.61145   -1.000
 3788.00    0.60523   0.58903   -1.000
 3789.00    0.59638   0.58263   -1.000
 3790.00    0.60073   0.58656   -1.000
 3791.00    0.61300   0.59029   -1.000
 3792.00    0.61580   0.58463   -1.000
 3793.00    0.60252   0.56772   -1.000
 3794.00    0.57642   0.54462   -1.000
 3795.00    0.55203   0.52016   -1.000
 3796.00    0.53173   0.49548   -1.000
 3797.00    0.50953   0.47368   -1.000
 3798.00    0.49522   0.46634   -1.000
 3799.00    0.51533   0.48572   -1.000
 3800.00    0.56069   0.53013   -1.000
 3801.00    0.60575   0.58494   -1.000
 3802.00    0.64108   0.63376   -1.000
 3803.00    0.66597   0.66512 1180.796
 3804.00    0.67915   0.67485   -1.000
 3805.00    0.67241   0.66637   -1.000
 3806.00    0.64728   0.65156   -1.000
 3807.00    0.62944   0.64663   -1.000
 3808.00    0.63776   0.65908   -1.000
 3809.00    0.66202   0.68019   -1.000
 3810.00    0.67749   0.69262   -1.000
 3811.00    0.67409   0.68348   -1.000
 3812.00    0.65174   0.65223 1180.796
 3813.00    0.61077   0.60926 1180.796
 3814.00    0.57230   0.56990 1180.796
 3815.00    0.54305   0.54772   -1.000
 3816.00    0.54216   0.54532   -1.000
 3817.00    0.56565   0.54994   -1.000
 3818.00    0.56687   0.54447   -1.000
 3819.00    0.52905   0.52526   -1.000
 3820.00    0.49958   0.50614   -1.000
 3821.00    0.50099   0.50131 1180.796
 3822.00    0.52167   0.50593   -1.000
 3823.00    0.53037   0.50248   -1.000
 3824.00    0.49967   0.48314   -1.000
 3825.00    0.45978   0.45713  179.655
 3826.00    0.44450   0.43862  181.750
 3827.00    0.44651   0.43336  179.654
 3828.00    0.45550   0.43721   -1.000
 3829.00    0.45827   0.44149   -1.000
 3830.00    0.45696   0.43784   -1.000
 3831.00    0.44362   0.42269   -1.000
 3832.00    0.41180   0.39989  202.199
 3833.00    0.39458   0.37895   -1.000
 3834.00    0.39644   0.36868   -1.000
 3835.00    0.41105   0.37080   -1.000
 3836.00    0.42055   0.37869   -1.000
 3837.00    0.41686   0.38477   -1.000
 3838.00    0.40939   0.38903   -1.000
 3839.00    0.41053   0.39996  191.070
 3840.00    0.43102   0.42647  254.043
 3841.00    0.47685   0.46904   -1.000
 3842.00    0.52637   0.51835   -1.000
 3843.00    0.56864   0.56173   -1.000
 3844.00    0.58221   0.59140   -1.000
 3845.00    0.58305   0.60871   -1.000
 3846.00    0.58746   0.61944   -1.000
 3847.00    0.59552   0.62494   -1.000
 3848.00    0.58680   0.62294   -1.000
 3849.00    0.56554   0.61623   -1.000
 3850.00    0.55582   0.61322   -1.000
 3851.00    0.56293   0.61825   -1.000
 3852.00    0.57245   0.62620   -1.000
 3853.00    0.57532   0.62703   -1.000
 3854.00    0.56808   0.61625   -1.000
 3855.00    0.55191   0.59799   -1.000
 3856.00    0.54000   0.57657   -1.000
 3857.00    0.51871   0.55237   -1.000
 3858.00    0.49388   0.52874   -1.000
 3859.00    0.47130   0.51657   -1.000
 3860.00    0.47115   0.52733   -1.000
 3861.00    0.51042   0.56067   -1.000
 3862.00    0.56359   0.60133   -1.000
 3863.00    0.59720   0.63002   -1.000
 3864.00    0.60770   0.63879   -1.000
 3865.00    0.60238   0.63486   -1.000
 3866.00    0.59054   0.62839   -1.000
 3867.00    0.57971   0.62245   -1.000
 3868.00    0.56111   0.61359   -1.000
 3869.00    0.53877   0.59696   -1.000
 3870.00    0.51242   0.57318   -1.000
 3871.00    0.49239   0.55155   -1.000
 3872.00    0.50002   0.54508   -1.000
 3873.00    0.53364   0.56019   -1.000
 3874.00    0.57779   0.58881   -1.000
 3875.00    0.60795   0.61072 1180.796
 3876.00    0.60332   0.60959   -1.000
 3877.00    0.56936   0.58941   -1.000
 3878.00    0.53517   0.56830   -1.000
 3879.00    0.52327   0.55887   -1.000
 3880.00    0.52426   0.55968   -1.000
 3881.00    0.51273   0.56349   -1.000
 3882.00    0.51351   0.56688   -1.000
 3883.00    0.54847   0.56795   -1.000
 3884.00    0.58835   0.56068   -1.000
 3885.00    0.58818   0.53934   -1.000
 3886.00    0.56419   0.50843   -1.000
 3887.00    0.55445   0.48301   -1.000
 3888.00    0.55327   0.47800   -1.000
 3889.00    0.56292   0.49909   -1.000
 3890.00    0.60194   0.54082   -1.000
 3891.00    0.65678   0.58846   -1.000
 3892.00    0.69110   0.62473   -1.000
 3893.00    0.70066   0.64102   -1.000
 3894.00    0.69659   0.64394   -1.000
 3895.00    0.69673   0.64663   -1.000
 3896.00    0.70684   0.65482   -1.000
 3897.00    0.71889   0.66403   -1.000
 3898.00    0.72012   0.66903   -1.000
 3899.00    0.71035   0.67164   -1.000
 3900.00    0.71076   0.67555   -1.000
 3901.00    0.72081   0.67849   -1.000
 3902.00    0.71263   0.67435   -1.000
 3903.00    0.69833   0.66128   -1.000
 3904.00    0.68576   0.64559   -1.000
 3905.00    0.65695   0.63850   -1.000
 3906.00    0.65279   0.64844   -1.000
 3907.00    0.69663   0.67526   -1.000
 3908.00    0.73569   0.71002   -1.000
 3909.00    0.76380   0.74087   -1.000
 3910.00    0.78418   0.76165   -1.000
 3911.00    0.78903   0.77343   -1.000
 3912.00    0.78925   0.77801   -1.000
 3913.00    0.77726   0.77546 1050.170
 3914.00    0.76589   0.76680   -1.000
 3915.00    0.75657   0.75423 1094.775
 3916.00    0.74638   0.73960   -1.000
 3917.00    0.73062   0.72237   -1.000
 3918.00    0.71901   0.70028   -1.000
 3919.00    0.69201   0.67394   -1.000
 3920.00    0.65580   0.64942   -1.000
 3921.00    0.63144   0.63509   -1.000
 3922.00    0.63384   0.63393 1180.796
 3923.00    0.64842   0.63850   -1.000
 3924.00    0.64370   0.63563   -1.000
 3925.00    0.62000   0.61570   -1.000
 3926.00    0.58185   0.57680   -1.000
 3927.00    0.52265   0.52340  474.793
 3928.00    0.45478   0.46305  198.303
 3929.00    0.39962   0.40209  232.388
 3930.00    0.34198   0.34356  272.789
 3931.00    0.28562   0.28995  321.832
 3932.00    0.24178   0.24700  368.793
 3933.00    0.21456   0.22312  386.013
 3934.00    0.21849   0.22536  356.918
 3935.00    0.24843   0.25461  304.050
 3936.00    0.29781   0.30513  250.627
 3937.00    0.35856   0.36799  207.548
 3938.00    0.42155   0.43342  258.542
 3939.00    0.48148   0.49181   -1.000
 3940.00    0.52561   0.53596   -1.000
 3941.00    0.54903   0.56299   -1.000
 3942.00    0.55802   0.57603   -1.000
 3943.00    0.56187   0.58520   -1.000
 3944.00    0.57855   0.60121   -1.000
 3945.00    0.61943   0.62663   -1.000
 3946.00    0.66834   0.65443   -1.000
 3947.00    0.69372   0.67676   -1.000
 3948.00    0.70723   0.69407   -1.000
 3949.00    0.72720   0.71062   -1.000
 3950.00    0.75266   0.72491   -1.000
 3951.00    0.76041   0.73291   -1.000
 3952.00    0.74775   0.73667   -1.000
 3953.00    0.75455   0.74122   -1.000
 3954.00    0.77339   0.74549   -1.000
 3955.00    0.77091   0.74364   -1.000
 3956.00    0.74546   0.73523   -1.000
 3957.00    0.73631   0.72603   -1.000
 3958.00    0.74040   0.71543   -1.000
 3959.00    0.73013   0.69215   -1.000
 3960.00    0.68118   0.64831   -1.000
 3961.00    0.60652   0.59144   -1.000
 3962.00    0.54229   0.53751   -1.000
 3963.00    0.50405   0.49382   -1.000
 3964.00    0.46325   0.45268  186.732
 3965.00    0.40583   0.40228  222.503
 3966.00    0.33887   0.34179  274.118
 3967.00    0.27508   0.28540  325.354
 3968.00    0.23656   0.25226   -1.000
 3969.00    0.24034   0.25297   -1.000
 3970.00    0.28350   0.28593  247.816
 3971.00    0.34546   0.34123  204.946
 3972.00    0.41271   0.40740  255.239
 3973.00    0.48478   0.47620   -1.000
 3974.00    0.55536   0.54296   -1.000
 3975.00    0.61864   0.60481  121.893
 3976.00    0.67900   0.66073  113.179
 3977.00    0.73068   0.71167  106.794
 3978.00    0.77477   0.75732  101.144
 3979.00    0.81890   0.79373   97.104
 3980.00    0.84438   0.81512   96.621
 3981.00    0.84564   0.82089   97.727
 3982.00    0.83028   0.81843   98.782
 3983.00    0.82285   0.81802   97.564
 3984.00    0.84117   0.82529   95.538
 3985.00    0.85884   0.83937   93.769
 3986.00    0.87426   0.85700   92.162
 3987.00    0.89307   0.87478   90.681
 3988.00    0.90692   0.88897   90.229
 3989.00    0.91082   0.89823   90.283
 3990.00    0.90837   0.90558   89.172
 3991.00    0.92041   0.91490   87.034
 3992.00    0.94050   0.92516   85.964
 3993.00    0.94622   0.92975   87.412
 3994.00    0.93803   0.92326   89.522
 3995.00    0.91491   0.90771   91.469
 3996.00    0.88473   0.89234   92.890
 3997.00    0.87476   0.88812   92.672
 3998.00    0.89111   0.90019   89.767
 3999.00    0.92542   0.92466   85.958
 4000.00    0.95994   0.95180   83.586
 4001.00    0.98210   0.97091   82.327
 4002.00    0.99949   0.97269   82.082
 4003.00    0.99093   0.95265   85.054
 4004.00    0.93790   0.91723   90.520
 4005.00    0.88133   0.88555   93.360
 4006.00    0.87105   0.87831   90.883
 4007.00    0.90965   0.89980   86.090
 4008.00    0.95492   0.93479   83.485
 4009.00    0.98410   0.96507   82.496
 4010.00    0.99832   0.98350   81.815
 4011.00    1.00370   0.99284   81.844
 4012.00    0.99940   0.99851   82.406
 4013.00    1.00254   1.00366   82.491
 4014.00    1.00772   1.00781   81.659
 4015.00    1.00951   1.00872   81.108
 4016.00    1.00245   1.00673   81.955
 4017.00    0.99598   1.00606   82.504
 4018.00    0.99463   1.01049   81.773
 4019.00    1.00682   1.01829   80.974
 4020.00    1.01114   1.02366   81.536
 4021.00    1.00535   1.02306   82.520
 4022.00    1.00462   1.01779   83.007
 4023.00    0.99430   1.01176   83.589
 4024.00    0.98572   1.00977   83.308
 4025.00    0.99722   1.01665   80.863
 4026.00    1.02975   1.03225   78.378
 4027.00    1.05947   1.04591   77.588
 4028.00    1.06001   1.04048   79.170
 4029.00    1.02096   1.00717   83.221
 4030.00    0.95932   0.95576   88.286
 4031.00    0.91499   0.90740   91.066
 4032.00    0.90061   0.87954   91.335
 4033.00    0.90902   0.87892   89.492
 4034.00    0.93733   0.90387   85.992
 4035.00    0.97483   0.94865   81.702
 4036.00    1.02144   1.00243   78.067
 4037.00    1.06460   1.04903   76.174
 4038.00    1.08796   1.07344   76.578
 4039.00    1.07423   1.07304   78.325
 4040.00    1.04537   1.05877   79.863
 4041.00    1.03654   1.04011   80.547
 4042.00    1.03139   1.01190   82.083
 4043.00    0.99144   0.96359   87.461
 4044.00    0.91292   0.90155   95.598
 4045.00    0.83707   0.85555   99.020
 4046.00    0.84015   0.85487   92.701
 4047.00    0.91776   0.89975   84.756
 4048.00    0.99577   0.96384   80.609
 4049.00    1.03666   1.01773   78.825
 4050.00    1.05431   1.04638   78.434
 4051.00    1.04639   1.05012   79.552
 4052.00    1.02166   1.03629   81.746
 4053.00    1.00000   1.01436   83.578
 4054.00    0.98417   0.99268   84.644
 4055.00    0.96451   0.97470   85.270
 4056.00    0.95619   0.96074   85.954
 4057.00    0.94575   0.95429   86.206
 4058.00    0.94998   0.96057   84.403
 4059.00    0.98237   0.97661   81.764
 4060.00    1.01634   0.98611   81.193
 4061.00    1.01516   0.97135   -1.000
 4062.00    0.95699   0.93332   90.376
 4063.00    0.89126   0.89434   94.004
 4064.00    0.87765   0.87709   91.250
 4065.00    0.90539   0.88662   87.458
 4066.00    0.93806   0.91273   85.291
 4067.00    0.97192   0.94315   82.817
 4068.00    1.01028   0.96720   -1.000
 4069.00    1.03199   0.97387   -1.000
 4070.00    1.00759   0.96013   -1.000
 4071.00    0.96217   0.93946   86.960
 4072.00    0.94835   0.93101   85.326
 4073.00    0.97391   0.93772   83.036
 4074.00    0.99618   0.94185   -1.000
 4075.00    0.96440   0.92640   -1.000
 4076.00    0.90571   0.89700   95.471
 4077.00    0.85721   0.87725   96.133
 4078.00    0.86761   0.88689   91.589
 4079.00    0.92480   0.92605   85.203
 4080.00    0.98712   0.97524   80.469
 4081.00    1.03194   1.00955   79.382
 4082.00    1.02608   1.01640   81.284
 4083.00    0.99963   1.00376   83.595
 4084.00    0.97575   0.99186   83.964
 4085.00    0.97838   0.99725   82.095
 4086.00    1.01596   1.02216   79.140
 4087.00    1.06088   1.05535   76.256
 4088.00    1.09297   1.08113   74.769
 4089.00    1.10517   1.08912   75.585
 4090.00    1.08959   1.07992   77.136
 4091.00    1.06224   1.06284   78.381
 4092.00    1.04898   1.04619   78.972
 4093.00    1.05193   1.02965   79.496
 4094.00    1.03886   1.00776   81.739
 4095.00    1.00061   0.97850   85.227
 4096.00    0.96590   0.94621   87.291
 4097.00    0.94783   0.91483   88.141
 4098.00    0.92732   0.88071   -1.000
 4099.00    0.89358   0.83787   -1.000
 4100.00    0.83026   0.79099   -1.000
 4101.00    0.77106   0.75855  109.377
 4102.00    0.76562   0.75959  104.354
 4103.00    0.81745   0.79739   95.637
 4104.00    0.89106   0.85665   89.013
 4105.00    0.94982   0.91481   84.995
 4106.00    0.99256   0.95644   83.194
 4107.00    1.00263   0.97827   83.248
 4108.00    0.99829   0.98446   84.362
 4109.00    0.98353   0.98266   85.903
 4110.00    0.96890   0.98149   86.349
 4111.00    0.96397   0.98690   84.907
 4112.00    0.98276   1.00029   83.122
 4113.00    1.00984   1.01957   81.757
 4114.00    1.02825   1.03960   80.662
 4115.00    1.03619   1.05296   80.295
 4116.00    1.03863   1.05364   81.175
 4117.00    1.02530   1.04189   83.296
 4118.00    0.99963   1.02507   85.518
 4119.00    0.97955   1.01265   -1.000
 4120.00    0.98486   1.00944   84.689
 4121.00    0.99486   1.01352   84.150
 4122.00    0.99496   1.02077   83.914
 4123.00    1.00108   1.02934   82.777
 4124.00    1.01604   1.03807   81.703
 4125.00    1.02884   1.04285   81.932
 4126.00    1.02832   1.03946   83.308
 4127.00    1.00942   1.02916   84.747
 4128.00    0.98651   1.01687   85.325
 4129.00    0.97909   1.00390   85.973
 4130.00    0.96684   0.98651   87.637
 4131.00    0.94726   0.96399   90.460
 4132.00    0.92908   0.94510   92.414
 4133.00    0.91720   0.94311   91.422
 4134.00    0.93040   0.96406   -1.000
 4135.00    0.97084   1.00126   83.823
 4136.00    1.01135   1.04109   81.613
 4137.00    1.03245   1.07276   -1.000
 4138.00    1.05125   1.09163   -1.000
 4139.00    1.06491   1.09447   79.793
 4140.00    1.05317   1.07584   82.359
 4141.00    1.01177   1.03478   87.670
 4142.00    0.93925   0.98441   -1.000
 4143.00    0.88371   0.94865   -1.000
 4144.00    0.89014   0.94550   -1.000
 4145.00    0.94450   0.97189   86.779
 4146.00    0.99545   1.00647   84.407
 4147.00    1.00634   1.02872   84.445
 4148.00    0.99379   1.03371   -1.000
 4149.00    0.98026   1.02957   -1.000
 4150.00    0.96825   1.02491   -1.000
 4151.00    0.96338   1.02080   -1.000
 4152.00    0.96326   1.01362   -1.000
 4153.00    0.95718   1.00246   -1.000
 4154.00    0.94803   0.99207   -1.000
 4155.00    0.94121   0.98954   -1.000
 4156.00    0.97008   0.99868   87.532
 4157.00    0.99952   1.01791   86.929
 4158.00    0.96863   1.04239   -1.000
 4159.00    0.96550   1.06667   -1.000
 4160.00    0.99931   1.08710   -1.000
 4161.00    1.01166   1.10319   -1.000
 4162.00    1.03904   1.11494   -1.000
 4163.00    1.04963   1.11984   -1.000
 4164.00    1.03574   1.11410   -1.000
 4165.00    1.01384   1.09750   -1.000
 4166.00    0.98721   1.07674   -1.000
 4167.00    0.97916   1.06149   -1.000
 4168.00    0.98661   1.05476   -1.000
 4169.00    0.99748   1.04818   -1.000
 4170.00    0.99500   1.02965   -1.000
 4171.00    0.95958   0.99724   -1.000
 4172.00    0.90568   0.96428   -1.000
 4173.00    0.87636   0.94853   -1.000
 4174.00    0.89387   0.95572   -1.000
 4175.00    0.93151   0.97554   -1.000
 4176.00    0.94471   0.99472   -1.000
 4177.00    0.93803   1.00955   -1.000
 4178.00    0.93750   1.02306   -1.000
 4179.00    0.95355   1.03461   -1.000
 4180.00    0.96654   1.03921   -1.000
 4181.00    0.96294   1.03678   -1.000
 4182.00    0.96638   1.03554   -1.000
 4183.00    0.97721   1.04225   -1.000
 4184.00    1.00593   1.05200   -1.000
 4185.00    1.01857   1.05306   85.132
 4186.00    0.99374   1.04194   -1.000
 4187.00    0.95975   1.02850   -1.000
 4188.00    0.94995   1.02493   -1.000
 4189.00    0.97361   1.03391   -1.000
 4190.00    0.99338   1.04971   -1.000
 4191.00    0.99714   1.06668   -1.000
 4192.00    1.01463   1.08087   -1.000
 4193.00    1.03329   1.08557   -1.000
 4194.00    1.02158   1.07333   -1.000
 4195.00    0.98110   1.04421   -1.000
 4196.00    0.93856   1.00805   -1.000
 4197.00    0.92120   0.97727   -1.000
 4198.00    0.91563   0.95846   -1.000
 4199.00    0.92280   0.95142   92.116
 4200.00    0.93633   0.95323   91.059
 4201.00    0.94210   0.96141   90.727
 4202.00    0.94176   0.97550   -1.000
 4203.00    0.95123   0.99668   -1.000
 4204.00    0.96842   1.02462   -1.000
 4205.00    0.98808   1.05535   -1.000
 4206.00    1.00854   1.08309   -1.000
 4207.00    1.03351   1.10288   -1.000
 4208.00    1.04842   1.11247   -1.000
 4209.00    1.04945   1.11417   -1.000
 4210.00    1.04667   1.11372   -1.000
 4211.00    1.04469   1.11398   -1.000
 4212.00    1.04484   1.10977   -1.000
 4213.00    1.02459   1.09343   -1.000
 4214.00    0.97762   1.06728   -1.000
 4215.00    0.94212   1.04637   -1.000
 4216.00    0.95628   1.04657   -1.000
 4217.00    1.01776   1.07075   -1.000
 4218.00    1.07789   1.10675   78.179
 4219.00    1.10947   1.13698   76.520
 4220.00    1.12296   1.14816   76.275
 4221.00    1.11778   1.13324   77.876
 4222.00    1.09115   1.08935   81.966
 4223.00    1.03460   1.01839   88.627
 4224.00    0.95332   0.93170   98.576
 4225.00    0.84939   0.85323  110.216
 4226.00    0.76572   0.81318   -1.000
 4227.00    0.77118   0.83102   -1.000
 4228.00    0.87883   0.89896   89.637
 4229.00    1.00677   0.98304   82.206
 4230.00    1.07214   1.04723   79.348
 4231.00    1.08850   1.07602   79.690
 4232.00    1.07920   1.07515   81.677
 4233.00    1.05865   1.05884   83.357
 4234.00    1.03658   1.03942   84.544
 4235.00    1.01512   1.02436   86.418
 4236.00    0.99657   1.01772   87.168
 4237.00    0.99237   1.02178   -1.000
 4238.00    1.00792   1.03647   84.164
 4239.00    1.02812   1.05818   82.838
 4240.00    1.04888   1.08206   -1.000
 4241.00    1.07003   1.10508   -1.000
 4242.00    1.08140   1.12667   -1.000
 4243.00    1.09587   1.14586   -1.000
 4244.00    1.11670   1.15746   -1.000
 4245.00    1.11429   1.15296   -1.000
 4246.00    1.07484   1.12817   -1.000
 4247.00    1.03788   1.08979   -1.000
 4248.00    1.00910   1.05272   -1.000
 4249.00    0.98422   1.03075   -1.000
 4250.00    0.98188   1.02850   -1.000
 4251.00    1.00956   1.03913   84.259
 4252.00    1.04062   1.04917   82.918
 4253.00    1.04096   1.04995   84.137
 4254.00    1.02334   1.04701   85.265
 4255.00    1.02152   1.05289   83.206
 4256.00    1.04810   1.06734   80.810
 4257.00    1.06829   1.07325   81.580
 4258.00    1.04877   1.05681   85.358
 4259.00    0.99924   1.02709   89.262
 4260.00    0.96047   1.01129   -1.000
 4261.00    0.97461   1.02935   -1.000
 4262.00    1.02884   1.07681   -1.000
 4263.00    1.09166   1.13068   -1.000
 4264.00    1.13327   1.16853   75.903
 4265.00    1.14526   1.18124   76.287
 4266.00    1.13461   1.17084   -1.000
 4267.00    1.10436   1.14181   -1.000
 4268.00    1.06712   1.09714   83.301
 4269.00    1.03009   1.04100   87.354
 4270.00    0.97592   0.98283   93.108
 4271.00    0.91407   0.93668   97.119
 4272.00    0.88848   0.91480   -1.000
 4273.00    0.90248   0.92065   94.414
 4274.00    0.92948   0.94994   91.331
 4275.00    0.96588   0.99632   -1.000
 4276.00    1.01585   1.05037   -1.000
 4277.00    1.07199   1.09601   79.007
 4278.00    1.09423   1.11769   80.366
 4279.00    1.06723   1.11347   -1.000
 4280.00    1.02425   1.09732   -1.000
 4281.00    1.00938   1.08571   -1.000
 4282.00    1.02440   1.08286   -1.000
 4283.00    1.04232   1.08101   -1.000
 4284.00    1.03890   1.07248   -1.000
 4285.00    1.00942   1.05686   -1.000
 4286.00    0.98142   1.03639   -1.000
 4287.00    0.96565   1.01051   -1.000
 4288.00    0.93683   0.97917   -1.000
 4289.00    0.89619   0.95069   -1.000
 4290.00    0.87999   0.94041   -1.000
 4291.00    0.91180   0.95586   -1.000
 4292.00    0.97103   0.98624   87.484
 4293.00    1.00792   1.01117   86.861
 4294.00    1.00936   1.01698   87.982
 4295.00    0.99186   1.00211   89.665
 4296.00    0.96441   0.97001   92.635
 4297.00    0.92703   0.92368   98.625
 4298.00    0.86760   0.86983  106.938
 4299.00    0.79945   0.82238  112.446
 4300.00    0.76590   0.79464   -1.000
 4301.00    0.77877   0.78960  108.953
 4302.00    0.80086   0.79940  107.356
 4303.00    0.81690   0.81287  105.846
 4304.00    0.83410   0.82062  105.216
 4305.00    0.83786   0.81545  106.894
 4306.00    0.81921   0.79551  111.492
 4307.00    0.78010   0.76955  116.437
 4308.00    0.74730   0.75428  117.263
 4309.00    0.75165   0.76336  113.215
 4310.00    0.78870   0.79816  106.468
 4311.00    0.83476   0.85025  100.062
 4312.00    0.88155   0.91203   -1.000
 4313.00    0.92607   0.98238   -1.000
 4314.00    0.97773   1.06184   -1.000
 4315.00    1.06005   1.14509   -1.000
 4316.00    1.15461   1.21883   -1.000
 4317.00    1.21722   1.26781   -1.000
 4318.00    1.23333   1.28478   -1.000
 4319.00    1.22177   1.27421   -1.000
 4320.00    1.19281   1.24365   -1.000
 4321.00    1.15246   1.19446   -1.000
 4322.00    1.10664   1.12566   82.826
 4323.00    1.03820   1.04600   89.532
 4324.00    0.95052   0.97957   -1.000
 4325.00    0.89390   0.95537   -1.000
 4326.00    0.91874   0.98684   -1.000
 4327.00    1.01998   1.05922   -1.000
 4328.00    1.12482   1.13817   75.446
 4329.00    1.17400   1.19463   74.803
 4330.00    1.17117   1.22244   -1.000
 4331.00    1.16427   1.23388   -1.000
 4332.00    1.16884   1.24195   -1.000
 4333.00    1.18658   1.24762   -1.000
 4334.00    1.19797   1.24061   -1.000
 4335.00    1.18342   1.20797   75.432
 4336.00    1.13537   1.14342   81.347
 4337.00    1.05136   1.05507   89.280
 4338.00    0.95734   0.96627   97.240
 4339.00    0.87873   0.90552   -1.000
 4340.00    0.83990   0.89197   -1.000
 4341.00    0.87616   0.92636   -1.000
 4342.00    0.96388   0.99118   84.720
 4343.00    1.04317   1.06115   80.598
 4344.00    1.08965   1.11943   78.276
 4345.00    1.12556   1.16391   -1.000
 4346.00    1.15187   1.19908   -1.000
 4347.00    1.16254   1.22604   -1.000
 4348.00    1.19057   1.23848   -1.000
 4349.00    1.20022   1.22641   75.417
 4350.00    1.14845   1.18838   -1.000
 4351.00    1.06614   1.14170   -1.000
 4352.00    1.02153   1.11376   -1.000
 4353.00    1.05218   1.11987   -1.000
 4354.00    1.10816   1.15232   -1.000
 4355.00    1.14831   1.19054   -1.000
 4356.00    1.17806   1.21788   -1.000
 4357.00    1.19056   1.22976   -1.000
 4358.00    1.17909   1.23202   -1.000
 4359.00    1.15559   1.23540   -1.000
 4360.00    1.16589   1.24814   -1.000
 4361.00    1.20601   1.26974   -1.000
 4362.00    1.23377   1.29275   -1.000
 4363.00    1.24070   1.31062   -1.000
 4364.00    1.24976   1.31944   -1.000
 4365.00    1.25325   1.31463   -1.000
 4366.00    1.22531   1.29446   -1.000
 4367.00    1.17834   1.26625   -1.000
 4368.00    1.15285   1.24169   -1.000
 4369.00    1.15747   1.22642   -1.000
 4370.00    1.16927   1.21631   -1.000
 4371.00    1.16681   1.20245   75.506
 4372.00    1.15281   1.17913   77.169
 4373.00    1.12040   1.14947   80.417
 4374.00    1.07954   1.12585   -1.000
 4375.00    1.07261   1.12279   -1.000
 4376.00    1.10978   1.14455   -1.000
 4377.00    1.16551   1.17861   74.267
 4378.00    1.19512   1.20374   73.722
 4379.00    1.19853   1.20258   74.566
 4380.00    1.18301   1.16662   76.756
 4381.00    1.14362   1.09793   -1.000
 4382.00    1.05092   1.01402   91.747
 4383.00    0.93574   0.94759   98.599
 4384.00    0.88670   0.93006   -1.000
 4385.00    0.94470   0.96651   85.918
 4386.00    1.04607   1.02976   79.859
 4387.00    1.10697   1.08430   78.472
 4388.00    1.11793   1.11333   78.932
 4389.00    1.10401   1.12355   79.595
 4390.00    1.09735   1.13002   -1.000
 4391.00    1.11939   1.14103   77.415
 4392.00    1.14746   1.15474   76.524
 4393.00    1.15058   1.16634   77.596
 4394.00    1.13372   1.17719   -1.000
 4395.00    1.13215   1.19396   -1.000
 4396.00    1.16589   1.21737   -1.000
 4397.00    1.20802   1.23608   72.872
 4398.00    1.20998   1.23714   74.671
 4399.00    1.17341   1.22080   -1.000
 4400.00    1.13616   1.19872   -1.000
 4401.00    1.13689   1.17831   -1.000
 4402.00    1.15121   1.15529   77.227
 4403.00    1.13334   1.12373   80.827
 4404.00    1.07754   1.09072   84.105
 4405.00    1.04752   1.07350   83.223
 4406.00    1.07335   1.08153   80.895
 4407.00    1.09609   1.10996   79.969
 4408.00    1.09708   1.15027   -1.000
 4409.00    1.12702   1.19837   -1.000
 4410.00    1.19344   1.24814   -1.000
 4411.00    1.24827   1.28413   70.323
 4412.00    1.26664   1.29002   70.597
 4413.00    1.24586   1.26347   73.452
 4414.00    1.18527   1.22079   -1.000
 4415.00    1.12466   1.18860   -1.000
 4416.00    1.11389   1.18783   -1.000
 4417.00    1.14872   1.21992   -1.000
 4418.00    1.19649   1.26664   -1.000
 4419.00    1.23240   1.30359   -1.000
 4420.00    1.23666   1.31523   -1.000
 4421.00    1.21140   1.30295   -1.000
 4422.00    1.18088   1.28146   -1.000
 4423.00    1.16534   1.26608   -1.000
 4424.00    1.17326   1.26183   -1.000
 4425.00    1.18176   1.26400   -1.000
 4426.00    1.17788   1.26740   -1.000
 4427.00    1.18168   1.27099   -1.000
 4428.00    1.19354   1.27417   -1.000
 4429.00    1.19526   1.27533   -1.000
 4430.00    1.18181   1.27398   -1.000
 4431.00    1.17731   1.26940   -1.000
 4432.00    1.18524   1.25800   -1.000
 4433.00    1.17027   1.23696   -1.000
 4434.00    1.13256   1.21391   -1.000
 4435.00    1.10836   1.20737   -1.000
 4436.00    1.13926   1.23064   -1.000
 4437.00    1.20742   1.27628   -1.000
 4438.00    1.26772   1.31954   -1.000
 4439.00    1.28996   1.33662   -1.000
 4440.00    1.26598   1.32088   -1.000
 4441.00    1.21215   1.28633   -1.000
 4442.00    1.16104   1.25825   -1.000
 4443.00    1.14512   1.25675   -1.000
 4444.00    1.17654   1.28350   -1.000
 4445.00    1.23168   1.32236   -1.000
 4446.00    1.26757   1.35372   -1.000
 4447.00    1.27572   1.36896   -1.000
 4448.00    1.27851   1.37158   -1.000
 4449.00    1.27233   1.36795   -1.000
 4450.00    1.25766   1.35976   -1.000
 4451.00    1.25297   1.34363   -1.000
 4452.00    1.25520   1.31472   -1.000
 4453.00    1.22406   1.27264   -1.000
 4454.00    1.17008   1.22673   -1.000
 4455.00    1.13867   1.19239   -1.000
 4456.00    1.14134   1.17873   -1.000
 4457.00    1.15739   1.18125   76.502
 4458.00    1.16452   1.18838   76.749
 4459.00    1.15584   1.19343   -1.000
 4460.00    1.14745   1.19865   -1.000
 4461.00    1.14247   1.21053   -1.000
 4462.00    1.15506   1.23295   -1.000
 4463.00    1.19592   1.26270   -1.000
 4464.00    1.23189   1.29026   -1.000
 4465.00    1.24932   1.30659   -1.000
 4466.00    1.24804   1.30939   -1.000
 4467.00    1.23159   1.30323   -1.000
 4468.00    1.21608   1.29622   -1.000
 4469.00    1.20782   1.29715   -1.000
 4470.00    1.21993   1.31234   -1.000
 4471.00    1.25130   1.34139   -1.000
 4472.00    1.29266   1.37626   -1.000
 4473.00    1.32987   1.40646   -1.000
 4474.00    1.35382   1.42647   -1.000
 4475.00    1.36290   1.43783   -1.000
 4476.00    1.36546   1.44328   -1.000
 4477.00    1.37563   1.43967   -1.000
 4478.00    1.37372   1.41977   -1.000
 4479.00    1.33545   1.38263   -1.000
 4480.00    1.26776   1.34095   -1.000
 4481.00    1.22240   1.31536   -1.000
 4482.00    1.23061   1.31981   -1.000
 4483.00    1.27591   1.35206   -1.000
 4484.00    1.32910   1.39605   -1.000
 4485.00    1.36543   1.43101   -1.000
 4486.00    1.37896   1.44185   -1.000
 4487.00    1.35997   1.42652   -1.000
 4488.00    1.30754   1.39692   -1.000
 4489.00    1.26899   1.37151   -1.000
 4490.00    1.27016   1.36324   -1.000
 4491.00    1.29577   1.37031   -1.000
 4492.00    1.32425   1.37874   -1.000
 4493.00    1.31697   1.37616   -1.000
 4494.00    1.28141   1.36413   -1.000
 4495.00    1.25511   1.35611   -1.000
 4496.00    1.25939   1.36304   -1.000
 4497.00    1.29793   1.38317   -1.000
 4498.00    1.34044   1.40578   -1.000
 4499.00    1.35810   1.42173   -1.000
 4500.00    1.34653   1.43078   -1.000
 4501.00    1.32931   1.44091   -1.000
 4502.00    1.34482   1.46008   -1.000
 4503.00    1.39545   1.48774   -1.000
 4504.00    1.43730   1.51472   -1.000
 4505.00    1.44453   1.53056   -1.000
 4506.00    1.43342   1.53159   -1.000
 4507.00    1.41612   1.52330   -1.000
 4508.00    1.40691   1.51473   -1.000
 4509.00    1.41221   1.51040   -1.000
 4510.00    1.41490   1.50752   -1.000
 4511.00    1.40535   1.49996   -1.000
 4512.00    1.38709   1.48482   -1.000
 4513.00    1.36788   1.46573   -1.000
 4514.00    1.35161   1.44955   -1.000
 4515.00    1.35217   1.44043   -1.000
 4516.00    1.35607   1.43735   -1.000
 4517.00    1.34930   1.43709   -1.000
 4518.00    1.33933   1.43906   -1.000
 4519.00    1.34602   1.44520   -1.000
 4520.00    1.37346   1.45445   -1.000
 4521.00    1.38296   1.46008   -1.000
 4522.00    1.36204   1.45466   -1.000
 4523.00    1.33629   1.43622   -1.000
 4524.00    1.31916   1.40803   -1.000
 4525.00    1.29838   1.37356   -1.000
 4526.00    1.26952   1.33497   -1.000
 4527.00    1.23141   1.29697   -1.000
 4528.00    1.20536   1.26842   -1.000
 4529.00    1.20807   1.25738   -1.000
 4530.00    1.22515   1.26430   -1.000
 4531.00    1.24879   1.28011   72.555
 4532.00    1.26414   1.29204   73.168
 4533.00    1.24528   1.29369   -1.000
 4534.00    1.20536   1.29146   -1.000
 4535.00    1.20058   1.30005   -1.000
 4536.00    1.25386   1.32954   -1.000
 4537.00    1.33457   1.37470   -1.000
 4538.00    1.38747   1.41755   65.759
 4539.00    1.39250   1.44184   -1.000
 4540.00    1.36814   1.44564   -1.000
 4541.00    1.35247   1.43971   -1.000
 4542.00    1.35549   1.43471   -1.000
 4543.00    1.36030   1.43207   -1.000
 4544.00    1.33916   1.42698   -1.000
 4545.00    0.89673   1.41689   -1.000
 4546.00    0.12535   1.40392   -1.000
 4547.00   -0.01775   1.39060    0.000
 4548.00    0.37996   1.37822   -1.000
 4549.00    0.71594   1.36976   -1.000
 4550.00    0.54184   1.36927   -1.000
 4551.00    1.10648   1.37586   -1.000
 4552.00    1.34582   1.38208   70.692
 4553.00    1.29632   1.38194   -1.000
 4554.00    1.28723   1.37875   -1.000
 4555.00    1.29334   1.38300   -1.000
 4556.00    1.33026   1.40266   -1.000
 4557.00    1.38377   1.43564   -1.000
 4558.00    1.41832   1.47099   -1.000
 4559.00    1.42719   1.49786   -1.000
 4560.00    1.42642   1.51139   -1.000
 4561.00    1.42256   1.51118   -1.000
 4562.00    1.40270   1.49818   -1.000
 4563.00    1.36411   1.47586   -1.000
 4564.00    1.33218   1.45297   -1.000
 4565.00    1.32576   1.44141   -1.000
 4566.00    1.35581   1.44843   -1.000
 4567.00    1.40146   1.46964   -1.000
 4568.00    1.42841   1.49078   -1.000
 4569.00    1.42048   1.49823   -1.000
 4570.00    1.38600   1.48935   -1.000
 4571.00    1.35451   1.47394   -1.000
 4572.00    1.35476   1.46613   -1.000
 4573.00    1.38646   1.47280   -1.000
 4574.00    1.42174   1.48853   -1.000
 4575.00    1.42763   1.50187   -1.000
 4576.00    1.41389   1.50474   -1.000
 4577.00    1.40608   1.49473   -1.000
 4578.00    1.39081   1.47272   -1.000
 4579.00    1.35566   1.44302   -1.000
 4580.00    1.31882   1.41433   -1.000
 4581.00    1.30591   1.39612   -1.000
 4582.00    1.31837   1.39186   -1.000
 4583.00    1.33574   1.39677   -1.000
 4584.00    1.33863   1.40323   -1.000
 4585.00    1.33414   1.40878   -1.000
 4586.00    1.34041   1.41800   -1.000
 4587.00    1.36839   1.43550   -1.000
 4588.00    1.40118   1.45831   -1.000
 4589.00    1.41715   1.47637   -1.000
 4590.00    1.41795   1.48049   -1.000
 4591.00    1.39522   1.46961   -1.000
 4592.00    1.35955   1.45120   -1.000
 4593.00    1.34721   1.43509   -1.000
 4594.00    1.35506   1.42671   -1.000
 4595.00    1.35995   1.42580   -1.000
 4596.00    1.36103   1.42984   -1.000
 4597.00    1.36877   1.43628   -1.000
 4598.00    1.37872   1.44209   -1.000
 4599.00    1.37949   1.44427   -1.000
 4600.00    1.36487   1.44243   -1.000
 4601.00    1.35891   1.43945   -1.000
 4602.00    1.36875   1.43846   -1.000
 4603.00    1.38268   1.44025   -1.000
 4604.00    1.39225   1.44449   -1.000
 4605.00    1.39468   1.45257   -1.000
 4606.00    1.40275   1.46725   -1.000
 4607.00    1.43028   1.48954   -1.000
 4608.00    1.46471   1.51575   -1.000
 4609.00    1.48290   1.53748   -1.000
 4610.00    1.47789   1.54656   -1.000
 4611.00    1.45662   1.54188   -1.000
 4612.00    1.43869   1.53039   -1.000
 4613.00    1.43260   1.52109   -1.000
 4614.00    1.44047   1.51884   -1.000
 4615.00    1.44953   1.52259   -1.000
 4616.00    1.44974   1.52775   -1.000
 4617.00    1.44270   1.53056   -1.000
 4618.00    1.43689   1.53096   -1.000
 4619.00    1.43809   1.53184   -1.000
 4620.00    1.44870   1.53595   -1.000
 4621.00    1.46263   1.54274   -1.000
 4622.00    1.46907   1.54848   -1.000
 4623.00    1.47094   1.54968   -1.000
 4624.00    1.47171   1.54616   -1.000
 4625.00    1.46141   1.54031   -1.000
 4626.00    1.45688   1.53476   -1.000
 4627.00    1.46306   1.53134   -1.000
 4628.00    1.45882   1.53071   -1.000
 4629.00    1.44661   1.53243   -1.000
 4630.00    1.45836   1.53540   -1.000
 4631.00    1.48241   1.53757   -1.000
 4632.00    1.47637   1.53581   -1.000
 4633.00    1.45426   1.52806   -1.000
 4634.00    1.44046   1.51578   -1.000
 4635.00    1.43003   1.50228   -1.000
 4636.00    1.41532   1.48926   -1.000
 4637.00    1.40003   1.47681   -1.000
 4638.00    1.39520   1.46636   -1.000
 4639.00    1.39276   1.46150   -1.000
 4640.00    1.40556   1.46526   -1.000
 4641.00    1.44340   1.47620   63.429
 4642.00    1.47287   1.48707   63.036
 4643.00    1.47504   1.48848   63.702
 4644.00    1.45154   1.47514   65.171
 4645.00    1.41786   1.44945   67.024
 4646.00    1.38431   1.42071   68.250
 4647.00    1.36139   1.40150   -1.000
 4648.00    1.36991   1.40138   66.456
 4649.00    1.40066   1.42054   65.147
 4650.00    1.42776   1.44949   64.592
 4651.00    1.44034   1.47555   64.499
 4652.00    1.44451   1.48996   64.724
 4653.00    1.44000   1.49051   -1.000
 4654.00    1.41607   1.48137   -1.000
 4655.00    1.38885   1.47220   -1.000
 4656.00    1.38786   1.47434   -1.000
 4657.00    1.41549   1.49407   -1.000
 4658.00    1.46746   1.52749   -1.000
 4659.00    1.51650   1.56143   60.804
 4660.00    1.52854   1.58099   -1.000
 4661.00    1.51090   1.57874   -1.000
 4662.00    1.47668   1.55768   -1.000
 4663.00    1.45162   1.52592   -1.000
 4664.00    1.44036   1.48929   -1.000
 4665.00    1.42152   1.44938   66.708
 4666.00    1.36742   1.40865   69.622
 4667.00    1.31129   1.37590   -1.000
 4668.00    1.29067   1.36363   -1.000
 4669.00    1.32342   1.37788   -1.000
 4670.00    1.38569   1.41146   65.379
 4671.00    1.43513   1.44868   64.207
 4672.00    1.45647   1.47671   64.051
 4673.00    1.45222   1.49303   64.069
 4674.00    1.44591   1.50322   -1.000
 4675.00    1.46085   1.51225   -1.000
 4676.00    1.48606   1.51809   62.328
 4677.00    1.49336   1.51437   63.110
 4678.00    1.46650   1.49839   64.477
 4679.00    1.43594   1.47527   65.663
 4680.00    1.41020   1.45445   66.559
 4681.00    1.39332   1.44362   -1.000
 4682.00    1.40494   1.44544   65.346
 4683.00    1.43885   1.45719   63.986
 4684.00    1.46579   1.47242   63.606
 4685.00    1.47059   1.48451   63.786
 4686.00    1.46525   1.49009   63.940
 4687.00    1.46247   1.48976   64.173
 4688.00    1.46039   1.48625   64.162
 4689.00    1.45719   1.48220   64.355
 4690.00    1.45182   1.47920   64.704
 4691.00    1.44681   1.47849   64.455
 4692.00    1.45295   1.48195   63.575
 4693.00    1.47309   1.49064   62.425
 4694.00    1.49556   1.50239   61.258
 4695.00    1.51476   1.51181   60.939
 4696.00    1.52032   1.51278   61.868
 4697.00    1.49757   1.50180   63.752
 4698.00    1.45543   1.48072   65.205
 4699.00    1.42810   1.45599   65.391
 4700.00    1.42575   1.43405   65.229
 4701.00    1.42221   1.41797   66.031
 4702.00    1.40426   1.40906   66.894
 4703.00    1.39120   1.40896   66.541
 4704.00    1.40830   1.41726   65.332
 4705.00    1.43575   1.42831   65.139
 4706.00    1.43241   1.43403   66.286
 4707.00    1.40824   1.43167   67.354
 4708.00    1.39044   1.42716   67.566
 4709.00    1.38703   1.42928   66.494
 4710.00    1.40908   1.44113   64.527
 4711.00    1.45168   1.45781   63.228
 4712.00    1.48230   1.47095   63.145
 4713.00    1.47419   1.47598   64.038
 4714.00    1.44474   1.47655   64.782
 4715.00    1.44219   1.48151   64.202
 4716.00    1.47419   1.49675   62.895
 4717.00    1.50526   1.52025   62.025
 4718.00    1.51453   1.54455   61.740
 4719.00    1.51424   1.56280   61.529
 4720.00    1.51999   1.57234   -1.000
 4721.00    1.51331   1.57461   -1.000
 4722.00    1.50094   1.57354   -1.000
 4723.00    1.50688   1.57258   -1.000
 4724.00    1.52168   1.57082   61.351
 4725.00    1.51775   1.56230   62.042
 4726.00    1.49118   1.54086   -1.000
 4727.00    1.44524   1.50740   -1.000
 4728.00    1.41032   1.47210   -1.000
 4729.00    1.40421   1.44781   -1.000
 4730.00    1.41228   1.44121   65.635
 4731.00    1.42508   1.45005   65.011
 4732.00    1.43804   1.46705   64.306
 4733.00    1.45520   1.48450   63.836
 4734.00    1.47140   1.49700   63.483
 4735.00    1.48228   1.50325   63.553
 4736.00    1.47183   1.50601   64.032
 4737.00    1.46183   1.50966   -1.000
 4738.00    1.48133   1.51651   63.201
 4739.00    1.49432   1.52489   63.403
 4740.00    1.48470   1.53136   63.668
 4741.00    1.47933   1.53496   -1.000
 4742.00    1.48434   1.53783   -1.000
 4743.00    1.49335   1.54194   -1.000
 4744.00    1.50267   1.54748   62.655
 4745.00    1.50624   1.55404   -1.000
 4746.00    1.51087   1.56177   -1.000
 4747.00    1.52068   1.57077   -1.000
 4748.00    1.52616   1.58003   -1.000
 4749.00    1.52729   1.58773   -1.000
 4750.00    1.52194   1.59146   -1.000
 4751.00    1.51525   1.58858   -1.000
 4752.00    1.50539   1.57794   -1.000
 4753.00    1.48703   1.56184   -1.000
 4754.00    1.47542   1.54596   -1.000
 4755.00    1.46995   1.53601   -1.000
 4756.00    1.46333   1.53454   -1.000
 4757.00    1.46085   1.54035   -1.000
 4758.00    1.46588   1.54993   -1.000
 4759.00    1.47999   1.55818   -1.000
 4760.00    1.48828   1.55894   -1.000
 4761.00    1.47056   1.54758   -1.000
 4762.00    1.43600   1.52473   -1.000
 4763.00    1.41152   1.49689   -1.000
 4764.00    1.40431   1.47234   -1.000
 4765.00    1.40344   1.45693   -1.000
 4766.00    1.41236   1.45402   -1.000
 4767.00    1.43877   1.46570   65.118
 4768.00    1.46894   1.49023   63.855
 4769.00    1.49385   1.51911   63.399
 4770.00    1.50307   1.54119   63.721
 4771.00    1.49107   1.55168   -1.000
 4772.00    1.47524   1.55566   -1.000
 4773.00    1.48670   1.56228   -1.000
 4774.00    1.51851   1.57547   -1.000
 4775.00    1.53086   1.59153   -1.000
 4776.00    1.53088   1.60432   -1.000
 4777.00    1.52887   1.61056   -1.000
 4778.00    1.51871   1.61022   -1.000
 4779.00    1.50816   1.60445   -1.000
 4780.00    1.49877   1.59443   -1.000
 4781.00    1.49662   1.58108   -1.000
 4782.00    1.49168   1.56556   -1.000
 4783.00    1.47630   1.55031   -1.000
 4784.00    1.47505   1.53798   -1.000
 4785.00    1.47461   1.52953   -1.000
 4786.00    1.46133   1.52412   -1.000
 4787.00    1.45313   1.52117   -1.000
 4788.00    1.45290   1.52113   -1.000
 4789.00    1.45526   1.52519   -1.000
 4790.00    1.46175   1.53497   -1.000
 4791.00    1.47160   1.55212   -1.000
 4792.00    1.49348   1.57707   -1.000
 4793.00    1.51977   1.60718   -1.000
 4794.00    1.54546   1.63631   -1.000
 4795.00    1.56369   1.65606   -1.000
 4796.00    1.55950   1.65972   -1.000
 4797.00    1.53367   1.64655   -1.000
 4798.00    1.49973   1.62344   -1.000
 4799.00    1.47588   1.60182   -1.000
 4800.00    1.47958   1.59208   -1.000
 4801.00    1.50880   1.59780   -1.000
 4802.00    1.53546   1.61309   -1.000
 4803.00    1.53898   1.62613   -1.000
 4804.00    1.52502   1.62767   -1.000
 4805.00    1.50620   1.61727   -1.000
 4806.00    1.49001   1.60137   -1.000
 4807.00    1.48599   1.58753   -1.000
 4808.00    1.49088   1.58100   -1.000
 4809.00    1.49828   1.58362   -1.000
 4810.00    1.50981   1.59301   -1.000
 4811.00    1.51722   1.60412   -1.000
 4812.00    1.52336   1.61305   -1.000
 4813.00    1.53396   1.61949   -1.000
 4814.00    1.53888   1.62601   -1.000
 4815.00    1.53998   1.63506   -1.000
 4816.00    1.54823   1.64690   -1.000
 4817.00    1.56021   1.65936   -1.000
 4818.00    1.56835   1.66947   -1.000
 4819.00    1.57222   1.67460   -1.000
 4820.00    1.57381   1.67184   -1.000
 4821.00    1.56096   1.65821   -1.000
 4822.00    1.53170   1.63414   -1.000
 4823.00    1.49733   1.60655   -1.000
 4824.00    1.48676   1.58709   -1.000
 4825.00    1.50922   1.58350   -1.000
 4826.00    1.53984   1.59259   -1.000
 4827.00    1.54457   1.60346   -1.000
 4828.00    1.52403   1.60747   -1.000
 4829.00    1.50765   1.60377   -1.000
 4830.00    1.50596   1.59541   -1.000
 4831.00    1.49744   1.58546   -1.000
 4832.00    1.49846   1.57787   -1.000
 4833.00    1.51108   1.57718   -1.000
 4834.00    1.52722   1.58500   -1.000
 4835.00    1.53909   1.59722   -1.000
 4836.00    1.54418   1.60643   -1.000
 4837.00    1.53501   1.60701   -1.000
 4838.00    1.51591   1.59778   -1.000
 4839.00    1.49221   1.58235   -1.000
 4840.00    1.47882   1.56684   -1.000
 4841.00    1.47923   1.55664   -1.000
 4842.00    1.49093   1.55384   -1.000
 4843.00    1.50109   1.55801   -1.000
 4844.00    1.51626   1.56829   -1.000
 4845.00    1.53865   1.58238   61.602
 4846.00    1.54833   1.59432   -1.000
 4847.00    1.53634   1.59793   -1.000
 4848.00    1.50489   1.59326   -1.000
 4849.00    1.49419   1.58692   -1.000
 4850.00    1.50801   1.58455   -1.000
 4851.00    1.52289   1.58437   -1.000
 4852.00    1.52758   1.57906   -1.000
 4853.00    1.50912   1.56196   -1.000
 4854.00    1.47383   1.53305   -1.000
 4855.00    1.43718   1.49958   -1.000
 4856.00    1.42095   1.47016   -1.000
 4857.00    1.42645   1.44474   67.142
 4858.00    1.40752   1.41037   70.641
 4859.00    1.32473   1.35383   77.780
 4860.00    1.19734   1.28057   -1.000
 4861.00    1.10783   1.21870   -1.000
 4862.00    1.12705   1.19972   -1.000
 4863.00    1.22795   1.23199   72.291
 4864.00    1.32550   1.29775   68.807
 4865.00    1.38330   1.37008   66.828
 4866.00    1.42028   1.43041   65.776
 4867.00    1.44348   1.47181   65.330
 4868.00    1.45289   1.49263   65.410
 4869.00    1.45096   1.49195   66.530
 4870.00    1.41852   1.47194   -1.000
 4871.00    1.37599   1.44380   -1.000
 4872.00    1.36974   1.42653   -1.000
 4873.00    1.39920   1.43335   66.179
 4874.00    1.43206   1.46139   65.318
 4875.00    1.44778   1.49558   -1.000
 4876.00    1.45728   1.52357   -1.000
 4877.00    1.46471   1.54407   -1.000
 4878.00    1.48158   1.56199   -1.000
 4879.00    1.50497   1.57907   -1.000
 4880.00    1.50892   1.59092   -1.000
 4881.00    1.48901   1.59276   -1.000
 4882.00    1.47110   1.58546   -1.000
 4883.00    1.46786   1.57280   -1.000
 4884.00    1.46618   1.55642   -1.000
 4885.00    1.45106   1.53722   -1.000
 4886.00    1.43806   1.51861   -1.000
 4887.00    1.43866   1.50439   -1.000
 4888.00    1.44455   1.49338   -1.000
 4889.00    1.43537   1.48026   -1.000
 4890.00    1.40780   1.46515   -1.000
 4891.00    1.39722   1.45955   -1.000
 4892.00    1.43558   1.47922   -1.000
 4893.00    1.51208   1.52889   61.302
 4894.00    1.57947   1.59497   59.796
 4895.00    1.61196   1.65514   59.035
 4896.00    1.62431   1.69357   -1.000
 4897.00    1.62125   1.70734   -1.000
 4898.00    1.60196   1.70210   -1.000
 4899.00    1.56991   1.68617   -1.000
 4900.00    1.54136   1.66731   -1.000
 4901.00    1.53663   1.65029   -1.000
 4902.00    1.53986   1.63646   -1.000
 4903.00    1.53223   1.62717   -1.000
 4904.00    1.53626   1.62666   -1.000
 4905.00    1.56094   1.63709   -1.000
 4906.00    1.58174   1.65161   -1.000
 4907.00    1.58086   1.65708   -1.000
 4908.00    1.55007   1.64429   -1.000
 4909.00    1.50319   1.61651   -1.000
 4910.00    1.47445   1.58744   -1.000
 4911.00    1.47705   1.57238   -1.000
 4912.00    1.49713   1.57796   -1.000
 4913.00    1.52576   1.59990   -1.000
 4914.00    1.55752   1.62684   -1.000
 4915.00    1.58134   1.64530   -1.000
 4916.00    1.58043   1.64179   -1.000
 4917.00    1.54058   1.60778   -1.000
 4918.00    1.47381   1.54600   -1.000
 4919.00    1.40168   1.47541   -1.000
 4920.00    1.36342   1.42308   -1.000
 4921.00    1.38426   1.40792   67.444
 4922.00    1.43069   1.42868   65.592
 4923.00    1.46915   1.46787   65.028
 4924.00    1.48268   1.50789   64.665
 4925.00    1.49299   1.54320   63.454
 4926.00    1.52051   1.57736   -1.000
 4927.00    1.54888   1.61350   -1.000
 4928.00    1.57383   1.64908   -1.000
 4929.00    1.59442   1.67758   -1.000
 4930.00    1.60438   1.69210   -1.000
 4931.00    1.60106   1.68791   -1.000
 4932.00    1.56808   1.66545   -1.000
 4933.00    1.52300   1.63325   -1.000
 4934.00    1.50162   1.60410   -1.000
 4935.00    1.51061   1.58517   -1.000
 4936.00    1.51831   1.57119   -1.000
 4937.00    1.49312   1.55244   -1.000
 4938.00    1.45422   1.53055   -1.000
 4939.00    1.44332   1.52005   -1.000
 4940.00    1.48633   1.53500   -1.000
 4941.00    1.54675   1.57366   61.746
 4942.00    1.58698   1.62002   60.863
 4943.00    1.60719   1.65673   60.567
 4944.00    1.61304   1.67561   -1.000
 4945.00    1.60105   1.67965   -1.000
 4946.00    1.58156   1.67844   -1.000
 4947.00    1.58763   1.68145   -1.000
 4948.00    1.61250   1.69162   -1.000
 4949.00    1.62608   1.70502   -1.000
 4950.00    1.63204   1.71522   -1.000
 4951.00    1.63094   1.71797   -1.000
 4952.00    1.61493   1.71203   -1.000
 4953.00    1.59990   1.69711   -1.000
 4954.00    1.59325   1.67041   -1.000
 4955.00    1.57089   1.62702   -1.000
 4956.00    1.51144   1.56848   -1.000
 4957.00    1.44103   1.51205   -1.000
 4958.00    1.43432   1.48446   -1.000
 4959.00    1.50473   1.50084   62.976
 4960.00    1.57962   1.54962   61.538
 4961.00    1.60928   1.60300   61.412
 4962.00    1.60238   1.63829   61.800
 4963.00    1.59302   1.64838   -1.000
 4964.00    1.57770   1.63728   -1.000
 4965.00    1.54859   1.61435   -1.000
 4966.00    1.52295   1.58984   -1.000
 4967.00    1.51588   1.57203   -1.000
 4968.00    1.51908   1.56506   -1.000
 4969.00    1.52528   1.56949   -1.000
 4970.00    1.53634   1.58325   -1.000
 4971.00    1.55312   1.60338   -1.000
 4972.00    1.57866   1.62582   -1.000
 4973.00    1.59841   1.64595   -1.000
 4974.00    1.60649   1.65927   -1.000
 4975.00    1.60011   1.66286   -1.000
 4976.00    1.58687   1.65566   -1.000
 4977.00    1.55915   1.63904   -1.000
 4978.00    1.53510   1.61593   -1.000
 4979.00    1.51736   1.58863   -1.000
 4980.00    1.49926   1.55623   -1.000
 4981.00    1.46440   1.51616   -1.000
 4982.00    1.41712   1.47216   -1.000
 4983.00    1.39466   1.43709   -1.000
 4984.00    1.41118   1.42635   68.292
 4985.00    1.44770   1.44584   66.253
 4986.00    1.49471   1.48756   64.336
 4987.00    1.53703   1.53439   63.439
 4988.00    1.55202   1.56958   63.892
 4989.00    1.54274   1.58522   64.736
 4990.00    1.52660   1.58491   -1.000
 4991.00    1.52130   1.57916   -1.000
 4992.00    1.53342   1.57684   64.426
 4993.00    1.54584   1.58047   64.262
 4994.00    1.54355   1.58785   64.109
 4995.00    1.54621   1.59596   -1.000
 4996.00    1.55444   1.60148   -1.000
 4997.00    1.54993   1.59965   -1.000
 4998.00    1.53560   1.58584   -1.000
 4999.00    1.50919   1.56035   -1.000
 5000.00    1.48316   1.53019   -1.000
 5001.00    1.48203   1.50550   66.771
 5002.00    1.49727   1.49176   66.205
 5003.00    1.50738   1.48522   66.350
 5004.00    1.49875   1.47705   67.640
 5005.00    1.46941   1.46298   68.822
 5006.00    1.44442   1.45041   68.300
 5007.00    1.45765   1.45209   66.411
 5008.00    1.50308   1.47232   64.931
 5009.00    1.53360   1.50026   64.906
 5010.00    1.52860   1.51722   66.244
 5011.00    1.49659   1.51080   68.468
 5012.00    1.45159   1.48292   70.651
 5013.00    1.40640   1.44814   -1.000
 5014.00    1.38939   1.42320   70.533
 5015.00    1.40960   1.41626   68.982
 5016.00    1.44517   1.42398   68.025
 5017.00    1.45860   1.43785   67.887
 5018.00    1.45886   1.45244   67.572
 5019.00    1.47589   1.46644   66.879
 5020.00    1.49754   1.47859   66.691
 5021.00    1.49814   1.48715   66.941
 5022.00    1.48816   1.49286   66.861
 5023.00    1.49267   1.50052   66.329
 5024.00    1.51172   1.51344   65.729
 5025.00    1.52660   1.52763   65.610
 5026.00    1.52297   1.53600   65.940
 5027.00    1.51163   1.53735   65.866
 5028.00    1.51449   1.53851   64.971
 5029.00    1.53769   1.54799   63.860
 5030.00    1.56272   1.56854   62.900
 5031.00    1.58355   1.59572   62.000
 5032.00    1.60186   1.62071   61.636
 5033.00    1.60961   1.63318   62.534
 5034.00    1.58490   1.62554   64.787
 5035.00    1.53055   1.59917   -1.000
 5036.00    1.48731   1.56423   -1.000
 5037.00    1.47593   1.53069   -1.000
 5038.00    1.46992   1.49883   69.546
 5039.00    1.43294   1.46232   72.373
 5040.00    1.37602   1.42398   -1.000
 5041.00    1.34978   1.40082   -1.000
 5042.00    1.39072   1.41194   68.481
 5043.00    1.47827   1.46040   64.849
 5044.00    1.55640   1.52923   62.780
 5045.00    1.61795   1.59262   61.009
 5046.00    1.57809   1.63036   -1.000
 5047.00    1.24293   1.63487   -1.000
 5048.00    0.68237   1.61155   -1.000
 5049.00    0.34361   1.57488   -1.000
 5050.00    0.81270   1.54224   -1.000
 5051.00    1.49213   1.52653   65.866
 5052.00    1.53488   1.53196   64.279
 5053.00    1.55954   1.55460   62.845
 5054.00    1.59952   1.58482   61.943
 5055.00    1.62627   1.61292   61.531
 5056.00    1.63396   1.63411   61.474
 5057.00    1.63476   1.64888   61.594
 5058.00    1.63035   1.66061   61.649
 5059.00    1.62551   1.67180   61.451
 5060.00    1.62896   1.68173   -1.000
 5061.00    1.63714   1.68619   -1.000
 5062.00    1.63366   1.67823   62.856
 5063.00    1.59766   1.65312   -1.000
 5064.00    1.54523   1.61543   -1.000
 5065.00    1.50880   1.57825   -1.000
 5066.00    1.51220   1.55431   -1.000
 5067.00    1.53310   1.54723   65.011
 5068.00    1.54456   1.55205   64.778
 5069.00    1.55800   1.56155   64.416
 5070.00    1.57388   1.56970   64.392
 5071.00    1.56990   1.57248   64.932
 5072.00    1.55307   1.57021   64.877
 5073.00    1.55243   1.56760   64.173
 5074.00    1.56798   1.56873   63.857
 5075.00    1.57706   1.57269   63.796
 5076.00    1.57442   1.57343   64.034
 5077.00    1.56436   1.56324   65.357
 5078.00    1.53122   1.53763   68.038
 5079.00    1.47010   1.50192   70.261
 5080.00    1.43468   1.47033   70.014
 5081.00    1.44968   1.45575   68.476
 5082.00    1.47937   1.46150   67.248
 5083.00    1.50286   1.48197   66.196
 5084.00    1.53236   1.50949   64.985
 5085.00    1.56425   1.53874   64.155
 5086.00    1.58160   1.56541   63.872
 5087.00    1.59053   1.58628   63.691
 5088.00    1.59685   1.60073   63.303
 5089.00    1.60021   1.61094   62.888
 5090.00    1.60274   1.62056   62.553
 5091.00    1.61064   1.63227   62.056
 5092.00    1.62726   1.64571   61.397
 5093.00    1.64318   1.65613   61.328
 5094.00    1.65288   1.65584   62.228
 5095.00    1.62996   1.63869   63.569
 5096.00    1.58151   1.60584   65.017
 5097.00    1.54267   1.56571   66.509
 5098.00    1.50741   1.53102   67.388
 5099.00    1.49382   1.51374   66.749
 5100.00    1.52082   1.51933   64.931
 5101.00    1.56806   1.54221   63.612
 5102.00    1.59612   1.56823   63.491
 5103.00    1.59040   1.58433   64.089
 5104.00    1.57176   1.58550   64.933
 5105.00    1.55689   1.57430   65.742
 5106.00    1.54232   1.55628   66.557
 5107.00    1.52283   1.53696   66.986
 5108.00    1.51517   1.52185   66.716
 5109.00    1.51805   1.51604   66.257
 5110.00    1.52770   1.52236   65.570
 5111.00    1.54788   1.53989   64.674
 5112.00    1.57535   1.56368   63.888
 5113.00    1.59587   1.58814   63.197
 5114.00    1.60526   1.61031   62.734
 5115.00    1.61611   1.62987   62.260
 5116.00    1.63312   1.64691   61.652
 5117.00    1.65004   1.65980   61.444
 5118.00    1.65547   1.66502   61.916
 5119.00    1.64291   1.65897   62.798
 5120.00    1.61669   1.64078   63.788
 5121.00    1.58445   1.61251   65.100
 5122.00    1.55279   1.57824   66.922
 5123.00    1.51943   1.54353   68.276
 5124.00    1.49384   1.51491   68.232
 5125.00    1.49226   1.49765   67.716
 5126.00    1.50647   1.49247   67.361
 5127.00    1.51405   1.49505   67.174
 5128.00    1.51117   1.50056   67.217
 5129.00    1.51096   1.50757   66.791
 5130.00    1.52261   1.51787   65.776
 5131.00    1.54349   1.53300   64.905
 5132.00    1.56325   1.55131   64.354
 5133.00    1.58291   1.56927   63.757
 5134.00    1.59998   1.58333   63.371
 5135.00    1.60685   1.58993   63.787
 5136.00    1.59904   1.58538   65.154
 5137.00    1.56559   1.56924   66.517
 5138.00    1.52392   1.54695   67.136
 5139.00    1.50368   1.52729   66.893
 5140.00    1.51288   1.51587   66.753
 5141.00    1.52224   1.51210   67.543
 5142.00    1.51360   1.51267   68.004
 5143.00    1.50903   1.51559   67.229
 5144.00    1.51936   1.51941   66.471
 5145.00    1.52738   1.52109   66.642
 5146.00    1.52583   1.51825   67.090
 5147.00    1.51852   1.51336   66.801
 5148.00    1.52463   1.51170   66.147
 5149.00    1.54014   1.51406   66.312
 5150.00    1.53680   1.51577   67.343
 5151.00    1.51782   1.51267   68.241
 5152.00    1.50158   1.50581   68.314
 5153.00    1.49966   1.50136   67.516
 5154.00    1.51664   1.50639   66.004
 5155.00    1.55024   1.52478   64.313
 5156.00    1.58964   1.55425   62.870
 5157.00    1.62240   1.58713   62.022
 5158.00    1.63866   1.61482   61.783
 5159.00    1.64396   1.63171   61.882
 5160.00    1.64433   1.63589   62.162
 5161.00    1.64184   1.62722   62.676
 5162.00    1.62812   1.60546   63.512
 5163.00    1.60306   1.56930   65.133
 5164.00    1.56351   1.51580   -1.000
 5165.00    1.47482   1.44145   75.357
 5166.00    1.34106   1.35275   82.113
 5167.00    1.23495   1.27085   -1.000
 5168.00    1.22330   1.22096   80.953
 5169.00    1.29048   1.20940   -1.000
 5170.00    1.33941   1.21447   -1.000
 5171.00    1.29414   1.21100   -1.000
 5172.00    1.20020   1.19800   86.521
 5173.00    1.19392   1.20132   79.929
 5174.00    1.31127   1.24526   -1.000
 5175.00    1.45391   1.32528   -1.000
 5176.00    1.54666   1.41319   -1.000
 5177.00    1.58455   1.48094   -1.000
 5178.00    1.59319   1.51556   -1.000
 5179.00    1.58698   1.51563   -1.000
 5180.00    1.55182   1.48050   -1.000
 5181.00    1.46329   1.41148   77.212
 5182.00    1.32781   1.32156   85.089
 5183.00    1.20209   1.24242   -1.000
 5184.00    1.18741   1.21151   -1.000
 5185.00    1.30914   1.24518   -1.000
 5186.00    1.46144   1.32665   -1.000
 5187.00    1.54821   1.41843   -1.000
 5188.00    1.58023   1.48895   -1.000
 5189.00    1.59265   1.52590   -1.000
 5190.00    1.58254   1.53116   -1.000
 5191.00    1.54016   1.51379   69.136
 5192.00    1.49350   1.48799   69.942
 5193.00    1.48593   1.46921   69.025
 5194.00    1.50534   1.46670   67.891
 5195.00    1.53242   1.48007   -1.000
 5196.00    1.55942   1.50381   -1.000
 5197.00    1.58728   1.53307   -1.000
 5198.00    1.61411   1.56360   -1.000
 5199.00    1.63100   1.59008   63.380
 5200.00    1.63609   1.60628   63.590
 5201.00    1.63021   1.60679   64.409
 5202.00    1.61445   1.58894   65.739
 5203.00    1.58586   1.55339   67.508
 5204.00    1.54182   1.50491   69.638
 5205.00    1.49875   1.45356   70.931
 5206.00    1.47596   1.41075   -1.000
 5207.00    1.46661   1.38437   -1.000
 5208.00    1.45844   1.37773   -1.000
 5209.00    1.46715   1.39246   -1.000
 5210.00    1.50423   1.42871   -1.000
 5211.00    1.56686   1.48206   -1.000
 5212.00    1.63237   1.53992   -1.000
 5213.00    1.66952   1.58491   -1.000
 5214.00    1.66192   1.60509   -1.000
 5215.00    1.63096   1.60207   64.388
 5216.00    1.60708   1.59103   64.546
 5217.00    1.60384   1.58931   63.570
 5218.00    1.63112   1.60524   62.353
 5219.00    1.66956   1.63377   61.634
 5220.00    1.69412   1.66234   61.279
 5221.00    1.70421   1.67861   61.508
 5222.00    1.68956   1.67421   62.829
 5223.00    1.64601   1.64587   65.093
 5224.00    1.58917   1.59575   67.974
 5225.00    1.52556   1.53405   70.598
 5226.00    1.47535   1.48038   70.919
 5227.00    1.47479   1.45636   68.147
 5228.00    1.53363   1.47269   -1.000
 5229.00    1.61043   1.51867   -1.000
 5230.00    1.66259   1.56815   -1.000
 5231.00    1.67018   1.59821   -1.000
 5232.00    1.64499   1.60231   64.012
 5233.00    1.62010   1.59232   64.563
 5234.00    1.61400   1.58750   63.756
 5235.00    1.63101   1.60060   62.217
 5236.00    1.66988   1.63073   61.089
 5237.00    1.70369   1.66665   60.719
 5238.00    1.71958   1.69547   60.799
 5239.00    1.71945   1.71087   60.864
 5240.00    1.71856   1.71422   60.628
 5241.00    1.72112   1.71126   60.466
 5242.00    1.72320   1.70816   60.477
 5243.00    1.72547   1.70778   60.356
 5244.00    1.72552   1.70721   60.854
 5245.00    1.71359   1.69902   62.442
 5246.00    1.67107   1.67872   64.202
 5247.00    1.62708   1.64978   65.068
 5248.00    1.61559   1.62183   65.162
 5249.00    1.61749   1.60293   65.420
 5250.00    1.60761   1.59506   65.518
 5251.00    1.60508   1.59669   64.901
 5252.00    1.62396   1.60431   64.096
 5253.00    1.63914   1.61393   63.768
 5254.00    1.63906   1.62389   63.587
 5255.00    1.64778   1.63742   62.631
 5256.00    1.68050   1.65907   61.021
 5257.00    1.72497   1.68758   59.875
 5258.00    1.75365   1.71265   59.886
 5259.00    1.74837   1.72008   60.980
 5260.00    1.71310   1.70035   63.111
 5261.00    1.65179   1.65324   65.978
 5262.00    1.58033   1.58740   68.751
 5263.00    1.52152   1.51688   70.659
 5264.00    1.48012   1.45624   71.500
 5265.00    1.45979   1.41600   -1.000
 5266.00    1.47215   1.39805   -1.000
 5267.00    1.50617   1.39280   -1.000
 5268.00    1.50427   1.38699   -1.000
 5269.00    1.45653   1.37697   -1.000
 5270.00    1.44128   1.37564   -1.000
 5271.00    1.50589   1.39902   -1.000
 5272.00    1.59052   1.44665   -1.000
 5273.00    1.62794   1.50115   -1.000
 5274.00    1.62917   1.54589   -1.000
 5275.00    1.62829   1.57934   -1.000
 5276.00    1.65216   1.61112   61.880
 5277.00    1.70612   1.64726   -1.000
 5278.00    1.75318   1.68096   -1.000
 5279.00    1.76266   1.69846   -1.000
 5280.00    1.73091   1.69195   62.251
 5281.00    1.68107   1.66613   63.656
 5282.00    1.64503   1.63546   64.409
 5283.00    1.63054   1.61728   63.937
 5284.00    1.65009   1.62403   62.269
 5285.00    1.71112   1.65631   -1.000
 5286.00    1.77547   1.70221   -1.000
 5287.00    1.79570   1.74481   -1.000
 5288.00    1.78407   1.77309   59.234
 5289.00    1.78037   1.78728   59.053
 5290.00    1.79024   1.79271   58.796
 5291.00    1.79618   1.79319   58.898
 5292.00    1.79035   1.78908   59.361
 5293.00    1.77804   1.77870   60.036
 5294.00    1.76443   1.75896   61.225
 5295.00    1.72751   1.72670   63.243
 5296.00    1.66722   1.68241   65.371
 5297.00    1.61138   1.63627   66.088
 5298.00    1.59145   1.60464   64.993
 5299.00    1.61897   1.59790   63.503
 5300.00    1.65965   1.61395   62.702
 5301.00    1.68426   1.64219   62.158
 5302.00    1.70418   1.67445   60.946
 5303.00    1.74018   1.70857   59.510
 5304.00    1.78535   1.74187   58.876
 5305.00    1.80582   1.76819   59.097
 5306.00    1.78966   1.78253   59.675
 5307.00    1.77420   1.78649   59.765
 5308.00    1.78432   1.78803   59.226
 5309.00    1.80309   1.79335   58.710
 5310.00    1.81684   1.80158   58.547
 5311.00    1.81654   1.80725   58.749
 5312.00    1.80813   1.80560   59.055
 5313.00    1.79999   1.79582   59.387
 5314.00    1.79145   1.78041   59.900
 5315.00    1.77505   1.76297   60.472
 5316.00    1.75217   1.74772   60.764
 5317.00    1.74821   1.73902   60.542
 5318.00    1.76104   1.73824   60.163
 5319.00    1.77403   1.74233   60.138
 5320.00    1.77985   1.74452   60.474
 5321.00    1.76797   1.73857   61.041
 5322.00    1.74993   1.72143   61.937
 5323.00    1.72662   1.69467   62.801
 5324.00    1.70322   1.66251   63.076
 5325.00    1.68896   1.62623   -1.000
 5326.00    1.65942   1.58340   -1.000
 5327.00    1.58629   1.53536   -1.000
 5328.00    1.51482   1.49659   69.951
 5329.00    1.53177   1.48824   66.336
 5330.00    1.61785   1.51951   -1.000
 5331.00    1.69055   1.57717   -1.000
 5332.00    1.72102   1.63698   -1.000
 5333.00    1.73374   1.68397   -1.000
 5334.00    1.75508   1.71634   60.150
 5335.00    1.77827   1.73777   60.212
 5336.00    1.77944   1.74808   60.628
 5337.00    1.76494   1.74410   61.146
 5338.00    1.74475   1.72446   62.237
 5339.00    1.71118   1.69360   63.630
 5340.00    1.67601   1.66309   63.949
 5341.00    1.67376   1.64690   62.778
 5342.00    1.71151   1.65205   -1.000
 5343.00    1.74803   1.67209   -1.000
 5344.00    1.75516   1.69232   -1.000
 5345.00    1.75089   1.70156   -1.000
 5346.00    1.74879   1.69783   -1.000
 5347.00    1.74472   1.68723   -1.000
 5348.00    1.72944   1.67773   -1.000
 5349.00    1.71534   1.67651   62.135
 5350.00    1.72875   1.68804   60.895
 5351.00    1.75932   1.71148   -1.000
 5352.00    1.78064   1.74122   59.318
 5353.00    1.79195   1.77028   59.019
 5354.00    1.80929   1.79561   58.401
 5355.00    1.83351   1.81692   57.788
 5356.00    1.84859   1.83349   57.597
 5357.00    1.85080   1.84395   57.687
 5358.00    1.85538   1.84651   57.834
 5359.00    1.85140   1.84089   58.271
 5360.00    1.83432   1.82752   59.116
 5361.00    1.81111   1.80775   60.063
 5362.00    1.78084   1.78422   60.721
 5363.00    1.75370   1.76012   61.093
 5364.00    1.74239   1.73845   61.452
 5365.00    1.73329   1.72143   61.557
 5366.00    1.73391   1.70901   61.431
 5367.00    1.74554   1.69747   -1.000
 5368.00    1.73667   1.67980   -1.000
 5369.00    1.70305   1.65167   -1.000
 5370.00    1.66060   1.61867   -1.000
 5371.00    1.63739   1.59661   64.597
 5372.00    1.66577   1.60136   -1.000
 5373.00    1.73642   1.63652   -1.000
 5374.00    1.80253   1.68890   -1.000
 5375.00    1.82997   1.73815   -1.000
 5376.00    1.83324   1.77067   -1.000
 5377.00    1.82832   1.78513   -1.000
 5378.00    1.82290   1.78804   58.988
 5379.00    1.81196   1.78500   59.456
 5380.00    1.79599   1.77785   60.055
 5381.00    1.78442   1.76697   60.505
 5382.00    1.77250   1.75512   60.626
 5383.00    1.77020   1.74723   60.453
 5384.00    1.78264   1.74740   59.981
 5385.00    1.80293   1.75537   -1.000
 5386.00    1.81528   1.76518   -1.000
 5387.00    1.80828   1.76893   60.098
 5388.00    1.79131   1.76162   60.857
 5389.00    1.76828   1.74390   61.688
 5390.00    1.74829   1.72142   62.167
 5391.00    1.73649   1.70069   62.307
 5392.00    1.73003   1.68542   -1.000
 5393.00    1.72701   1.67499   -1.000
 5394.00    1.72388   1.66528   -1.000
 5395.00    1.71173   1.65159   -1.000
 5396.00    1.67829   1.63463   -1.000
 5397.00    1.65510   1.62170   64.197
 5398.00    1.68025   1.62266   -1.000
 5399.00    1.73006   1.64035   -1.000
 5400.00    1.75872   1.66625   -1.000
 5401.00    1.75669   1.68654   -1.000
 5402.00    1.74544   1.68843   -1.000
 5403.00    1.71639   1.66736   -1.000
 5404.00    1.66544   1.62963   66.145
 5405.00    1.62629   1.59130   66.256
 5406.00    1.63008   1.56913   -1.000
 5407.00    1.66532   1.56948   -1.000
 5408.00    1.68807   1.58472   -1.000
 5409.00    1.68182   1.60318   -1.000
 5410.00    1.68229   1.62156   -1.000
 5411.00    1.71629   1.64404   -1.000
 5412.00    1.76487   1.67293   -1.000
 5413.00    1.78918   1.70375   -1.000
 5414.00    1.78890   1.72937   -1.000
 5415.00    1.78918   1.74853   60.195
 5416.00    1.80006   1.76372   59.752
 5417.00    1.81198   1.77581   59.680
 5418.00    1.81100   1.78246   60.126
 5419.00    1.79601   1.78127   60.626
 5420.00    1.78382   1.77371   60.680
 5421.00    1.78840   1.76354   60.406
 5422.00    1.79501   1.75316   -1.000
 5423.00    1.78107   1.74405   61.458
 5424.00    1.75805   1.73960   61.406
 5425.00    1.75901   1.74324   60.502
 5426.00    1.78790   1.75263   60.050
 5427.00    1.80471   1.75616   -1.000
 5428.00    1.77556   1.74307   62.910
 5429.00    1.72398   1.71520   64.015
 5430.00    1.70132   1.68628   63.408
 5431.00    1.72022   1.66944   -1.000
 5432.00    1.73793   1.66378   -1.000
 5433.00    1.72454   1.66045   -1.000
 5434.00    1.69936   1.65549   -1.000
 5435.00    1.69106   1.65519   63.551
 5436.00    1.71145   1.66996   61.995
 5437.00    1.75448   1.70281   -1.000
 5438.00    1.80416   1.74628   -1.000
 5439.00    1.83466   1.78839   -1.000
 5440.00    1.85318   1.81993   58.499
 5441.00    1.86547   1.83765   58.465
 5442.00    1.86038   1.84057   58.768
 5443.00    1.84409   1.82703   59.881
 5444.00    1.80467   1.79497   61.955
 5445.00    1.74002   1.74821   64.320
 5446.00    1.68230   1.70040   65.142
 5447.00    1.67387   1.66955   63.726
 5448.00    1.72056   1.66793   -1.000
 5449.00    1.78195   1.69146   -1.000
 5450.00    1.81360   1.72336   -1.000
 5451.00    1.81852   1.74552   -1.000
 5452.00    1.81174   1.74722   -1.000
 5453.00    1.78932   1.72799   -1.000
 5454.00    1.73952   1.69632   64.890
 5455.00    1.69064   1.66739   65.114
 5456.00    1.69909   1.65773   63.394
 5457.00    1.75847   1.67426   -1.000
 5458.00    1.81348   1.70754   -1.000
 5459.00    1.83195   1.73850   -1.000
 5460.00    1.81237   1.75091   -1.000
 5461.00    1.77494   1.74236   62.612
 5462.00    1.75494   1.72271   63.193
 5463.00    1.74835   1.70637   62.954
 5464.00    1.75961   1.70264   -1.000
 5465.00    1.78571   1.71226   -1.000
 5466.00    1.80195   1.72915   -1.000
 5467.00    1.80680   1.74558   -1.000
 5468.00    1.81564   1.75646   -1.000
 5469.00    1.81423   1.75958   -1.000
 5470.00    1.79852   1.75541   61.929
 5471.00    1.79243   1.74602   -1.000
 5472.00    1.78488   1.73301   -1.000
 5473.00    1.76733   1.71608   -1.000
 5474.00    1.74732   1.69405   -1.000
 5475.00    1.71864   1.66814   -1.000
 5476.00    1.68553   1.64521   66.005
 5477.00    1.67635   1.63530   64.605
 5478.00    1.71549   1.64283   -1.000
 5479.00    1.76432   1.66131   -1.000
 5480.00    1.76716   1.67821   -1.000
 5481.00    1.73942   1.68762   -1.000
 5482.00    1.73219   1.69465   62.999
 5483.00    1.75380   1.70794   -1.000
 5484.00    1.78484   1.72855   -1.000
 5485.00    1.80725   1.74771   -1.000
 5486.00    1.80578   1.75580   -1.000
 5487.00    1.78473   1.75120   62.337
 5488.00    1.76748   1.74149   62.495
 5489.00    1.76811   1.73614   62.264
 5490.00    1.78441   1.73877   -1.000
 5491.00    1.79937   1.74611   -1.000
 5492.00    1.80493   1.75281   -1.000
 5493.00    1.80670   1.75573   -1.000
 5494.00    1.80923   1.75506   -1.000
 5495.00    1.81163   1.75178   -1.000
 5496.00    1.79863   1.74692   -1.000
 5497.00    1.78509   1.74261   62.257
 5498.00    1.79686   1.74079   -1.000
 5499.00    1.81684   1.74068   -1.000
 5500.00    1.81226   1.73808   -1.000
 5501.00    1.78743   1.72976   -1.000
 5502.00    1.77367   1.71826   -1.000
 5503.00    1.78094   1.70849   -1.000
 5504.00    1.79203   1.70214   -1.000
 5505.00    1.77995   1.69748   -1.000
 5506.00    1.75567   1.69334   -1.000
 5507.00    1.75668   1.69305   -1.000
 5508.00    1.78465   1.69919   -1.000
 5509.00    1.80256   1.70791   -1.000
 5510.00    1.79340   1.71110   -1.000
 5511.00    1.76814   1.70296   -1.000
 5512.00    1.73934   1.68636   -1.000
 5513.00    1.71898   1.67058   -1.000
 5514.00    1.72509   1.66503   -1.000
 5515.00    1.75440   1.67329   -1.000
 5516.00    1.78530   1.69339   -1.000
 5517.00    1.81652   1.72038   -1.000
 5518.00    1.84564   1.74848   -1.000
 5519.00    1.85823   1.77235   -1.000
 5520.00    1.85666   1.78809   -1.000
 5521.00    1.85316   1.79515   -1.000
 5522.00    1.84860   1.79573   -1.000
 5523.00    1.84164   1.79165   -1.000
 5524.00    1.83530   1.78183   -1.000
 5525.00    1.81890   1.76346   -1.000
 5526.00    1.78317   1.73623   -1.000
 5527.00    1.73966   1.70631   65.035
 5528.00    1.71420   1.68534   64.431
 5529.00    1.73225   1.68321   -1.000
 5530.00    1.77908   1.70024   -1.000
 5531.00    1.80908   1.72559   -1.000
 5532.00    1.81166   1.74603   -1.000
 5533.00    1.80472   1.75441   -1.000
 5534.00    1.79834   1.75287   -1.000
 5535.00    1.79561   1.74832   -1.000
 5536.00    1.80048   1.74687   -1.000
 5537.00    1.81385   1.75103   -1.000
 5538.00    1.82413   1.75987   -1.000
 5539.00    1.83998   1.77137   -1.000
 5540.00    1.86355   1.78253   -1.000
 5541.00    1.86820   1.78960   -1.000
 5542.00    1.85141   1.78992   -1.000
 5543.00    1.83026   1.78427   -1.000
 5544.00    1.82055   1.77695   -1.000
 5545.00    1.82206   1.77324   -1.000
 5546.00    1.83164   1.77586   -1.000
 5547.00    1.84591   1.78486   -1.000
 5548.00    1.86739   1.79836   -1.000
 5549.00    1.88658   1.81229   -1.000
 5550.00    1.89325   1.82196   -1.000
 5551.00    1.88422   1.82407   -1.000
 5552.00    1.86593   1.81800   -1.000
 5553.00    1.84726   1.80689   61.216
 5554.00    1.83664   1.79559   61.292
 5555.00    1.83887   1.78815   -1.000
 5556.00    1.84508   1.78568   -1.000
 5557.00    1.84842   1.78647   -1.000
 5558.00    1.85012   1.78822   -1.000
 5559.00    1.84993   1.78898   -1.000
 5560.00    1.84885   1.78693   -1.000
 5561.00    1.84254   1.78084   -1.000
 5562.00    1.82934   1.77131   -1.000
 5563.00    1.81409   1.76089   -1.000
 5564.00    1.79850   1.75199   -1.000
 5565.00    1.79146   1.74529   -1.000
 5566.00    1.79146   1.74016   -1.000
 5567.00    1.79360   1.73629   -1.000
 5568.00    1.79746   1.73396   -1.000
 5569.00    1.79640   1.73339   -1.000
 5570.00    1.79598   1.73378   -1.000
 5571.00    1.80126   1.73380   -1.000
 5572.00    1.80034   1.73309   -1.000
 5573.00    1.78917   1.73361   -1.000
 5574.00    1.77894   1.73838   61.489
 5575.00    1.77221   1.74780   60.787
 5576.00    1.79894   1.75914   59.811
 5577.00    1.79440   1.76992   59.824
 5578.00    1.76276   1.77896   61.502
 5579.00    1.80994   1.78576   62.961
 5580.00    1.85159   1.78939   -1.000
 5581.00    1.85155   1.78888   -1.000
 5582.00    1.84044   1.78405   -1.000
 5583.00    1.83732   1.77461   -1.000
 5584.00    1.83052   1.75819   -1.000
 5585.00    1.80397   1.73191   -1.000
 5586.00    1.75956   1.69660   -1.000
 5587.00    1.71340   1.65963   -1.000
 5588.00    1.69077   1.63259   -1.000
 5589.00    1.70153   1.62379   -1.000
 5590.00    1.72958   1.63340   -1.000
 5591.00    1.75599   1.65383   -1.000
 5592.00    1.76806   1.67576   -1.000
 5593.00    1.76807   1.69396   -1.000
 5594.00    1.77057   1.70912   -1.000
 5595.00    1.79308   1.72299   -1.000
 5596.00    1.82375   1.73370   -1.000
 5597.00    1.82216   1.73583   -1.000
 5598.00    1.79043   1.72599   -1.000
 5599.00    1.76900   1.70755   -1.000
 5600.00    1.75768   1.68781   -1.000
 5601.00    1.74287   1.67400   -1.000
 5602.00    1.73589   1.67202   -1.000
 5603.00    1.75528   1.68595   -1.000
 5604.00    1.80000   1.71566   -1.000
 5605.00    1.84671   1.75453   -1.000
 5606.00    1.87665   1.79185   -1.000
 5607.00    1.88550   1.81924   -1.000
 5608.00    1.88732   1.83460   -1.000
 5609.00    1.89120   1.84124   -1.000
 5610.00    1.89113   1.84329   -1.000
 5611.00    1.89230   1.84116   -1.000
 5612.00    1.89066   1.83023   -1.000
 5613.00    1.86350   1.80474   -1.000
 5614.00    1.80535   1.76557   64.717
 5615.00    1.75513   1.72409   65.124
 5616.00    1.75308   1.69673   -1.000
 5617.00    1.78707   1.69305   -1.000
 5618.00    1.81794   1.70857   -1.000
 5619.00    1.83458   1.73151   -1.000
 5620.00    1.84501   1.75135   -1.000
 5621.00    1.85058   1.76295   -1.000
 5622.00    1.84717   1.76379   -1.000
 5623.00    1.82495   1.75372   -1.000
 5624.00    1.79462   1.73784   -1.000
 5625.00    1.78220   1.72616   -1.000
 5626.00    1.80319   1.72707   -1.000
 5627.00    1.83422   1.74114   -1.000
 5628.00    1.85990   1.76166   -1.000
 5629.00    1.87829   1.78081   -1.000
 5630.00    1.88674   1.79457   -1.000
 5631.00    1.89359   1.80234   -1.000
 5632.00    1.88843   1.80467   -1.000
 5633.00    1.87498   1.80149   -1.000
 5634.00    1.86247   1.79295   -1.000
 5635.00    1.84755   1.78058   -1.000
 5636.00    1.83440   1.76743   -1.000
 5637.00    1.82424   1.75687   -1.000
 5638.00    1.82708   1.75066   -1.000
 5639.00    1.82902   1.74798   -1.000
 5640.00    1.82392   1.74644   -1.000
 5641.00    1.81800   1.74492   -1.000
 5642.00    1.81854   1.74484   -1.000
 5643.00    1.83212   1.74804   -1.000
 5644.00    1.83915   1.75458   -1.000
 5645.00    1.84384   1.76270   -1.000
 5646.00    1.85038   1.77002   -1.000
 5647.00    1.85432   1.77479   -1.000
 5648.00    1.85898   1.77678   -1.000
 5649.00    1.85912   1.77741   -1.000
 5650.00    1.86050   1.77914   -1.000
 5651.00    1.87062   1.78284   -1.000
 5652.00    1.87836   1.78608   -1.000
 5653.00    1.87033   1.78509   -1.000
 5654.00    1.84796   1.77750   -1.000
 5655.00    1.83040   1.76326   -1.000
 5656.00    1.81122   1.74326   -1.000
 5657.00    1.76716   1.71952   -1.000
 5658.00    1.72634   1.69737   65.951
 5659.00    1.73119   1.68457   -1.000
 5660.00    1.77080   1.68495   -1.000
 5661.00    1.79908   1.69537   -1.000
 5662.00    1.79977   1.70973   -1.000
 5663.00    1.80359   1.72473   -1.000
 5664.00    1.82369   1.73989   -1.000
 5665.00    1.83908   1.75347   -1.000
 5666.00    1.83932   1.76198   -1.000
 5667.00    1.83040   1.76407   -1.000
 5668.00    1.82011   1.76270   -1.000
 5669.00    1.82037   1.76295   -1.000
 5670.00    1.83104   1.76823   -1.000
 5671.00    1.84751   1.77890   -1.000
 5672.00    1.86845   1.79276   -1.000
 5673.00    1.88406   1.80621   -1.000
 5674.00    1.89275   1.81622   -1.000
 5675.00    1.88799   1.82183   -1.000
 5676.00    1.88424   1.82415   -1.000
 5677.00    1.88943   1.82427   -1.000
 5678.00    1.89370   1.82158   -1.000
 5679.00    1.89009   1.81437   -1.000
 5680.00    1.87637   1.80173   -1.000
 5681.00    1.85829   1.78489   -1.000
 5682.00    1.83129   1.76760   -1.000
 5683.00    1.81155   1.75491   -1.000
 5684.00    1.81534   1.74948   -1.000
 5685.00    1.82517   1.74950   -1.000
 5686.00    1.82137   1.75018   -1.000
 5687.00    1.81141   1.74919   -1.000
 5688.00    1.80725   1.74908   -1.000
 5689.00    1.81628   1.75467   -1.000
 5690.00    1.83837   1.76813   -1.000
 5691.00    1.86336   1.78661   -1.000
 5692.00    1.88095   1.80456   -1.000
 5693.00    1.89023   1.81713   -1.000
 5694.00    1.88965   1.82270   -1.000
 5695.00    1.88394   1.82212   -1.000
 5696.00    1.87954   1.81672   -1.000
 5697.00    1.86997   1.80725   -1.000
 5698.00    1.85076   1.79421   -1.000
 5699.00    1.83034   1.77907   -1.000
 5700.00    1.81322   1.76453   -1.000
 5701.00    1.79900   1.75366   -1.000
 5702.00    1.79409   1.74894   -1.000
 5703.00    1.80328   1.74972   -1.000
 5704.00    1.81511   1.75172   -1.000
 5705.00    1.81090   1.74888   -1.000
 5706.00    1.78959   1.73750   -1.000
 5707.00    1.76445   1.71878   -1.000
 5708.00    1.73854   1.69782   -1.000
 5709.00    1.71813   1.68110   66.231
 5710.00    1.71581   1.67436   -1.000
 5711.00    1.73161   1.68071   -1.000
 5712.00    1.77004   1.69987   -1.000
 5713.00    1.81969   1.72801   -1.000
 5714.00    1.85035   1.75842   -1.000
 5715.00    1.86245   1.78469   -1.000
 5716.00    1.86969   1.80366   -1.000
 5717.00    1.87318   1.81630   -1.000
 5718.00    1.87759   1.82593   -1.000
 5719.00    1.89056   1.83552   -1.000
 5720.00    1.90759   1.84618   -1.000
 5721.00    1.91762   1.85707   -1.000
 5722.00    1.92614   1.86617   -1.000
 5723.00    1.92668   1.87120   -1.000
 5724.00    1.91800   1.87019   -1.000
 5725.00    1.90375   1.86274   -1.000
 5726.00    1.88319   1.85110   61.319
 5727.00    1.87198   1.84006   61.356
 5728.00    1.87425   1.83361   60.949
 5729.00    1.88089   1.83211   -1.000
 5730.00    1.87879   1.83275   -1.000
 5731.00    1.86972   1.83363   61.182
 5732.00    1.86950   1.83606   60.715
 5733.00    1.88419   1.84219   -1.000
 5734.00    1.90172   1.85104   -1.000
 5735.00    1.90601   1.85860   -1.000
 5736.00    1.90174   1.86151   -1.000
 5737.00    1.89743   1.86001   60.420
 5738.00    1.89461   1.85693   60.500
 5739.00    1.89200   1.85465   60.618
 5740.00    1.89344   1.85344   60.729
 5741.00    1.89083   1.85267   60.720
 5742.00    1.88149   1.85248   60.601
 5743.00    1.89022   1.85414   60.342
 5744.00    1.90914   1.85784   -1.000
 5745.00    1.91145   1.86131   -1.000
 5746.00    1.89820   1.86122   60.490
 5747.00    1.88462   1.85693   60.908
 5748.00    1.87792   1.85155   60.792
 5749.00    1.87971   1.84836   60.489
 5750.00    1.89177   1.84599   -1.000
 5751.00    1.89207   1.83953   -1.000
 5752.00    1.86337   1.82653   -1.000
 5753.00    1.83353   1.81198   62.300
 5754.00    1.82808   1.80524   61.820
 5755.00    1.85025   1.81251   60.785
 5756.00    1.88826   1.83111   -1.000
 5757.00    1.91606   1.85129   -1.000
 5758.00    1.92158   1.86252   -1.000
 5759.00    1.90711   1.85956   -1.000
 5760.00    1.88243   1.84424   -1.000
 5761.00    1.85867   1.82442   62.313
 5762.00    1.84373   1.81020   62.053
 5763.00    1.84896   1.80962   61.082
 5764.00    1.87553   1.82387   -1.000
 5765.00    1.90259   1.84686   -1.000
 5766.00    1.91504   1.86907   -1.000
 5767.00    1.92123   1.88384   59.577
 5768.00    1.92335   1.88962   59.592
 5769.00    1.91750   1.88847   59.771
 5770.00    1.90461   1.88306   60.046
 5771.00    1.89070   1.87537   60.411
 5772.00    1.88524   1.86688   60.667
 5773.00    1.88009   1.85927   60.761
 5774.00    1.87327   1.85432   60.723
 5775.00    1.86830   1.85280   60.486
 5776.00    1.86374   1.85349   60.304
 5777.00    1.85253   1.85243   60.399
 5778.00    1.82678   1.84447   60.974
 5779.00    1.78956   1.82651   62.175
 5780.00    1.75750   1.80055   63.294
 5781.00    1.75097   1.77328   63.569
 5782.00    1.76669   1.75231   63.327
 5783.00    1.78359   1.74149   -1.000
 5784.00    1.79828   1.74034   -1.000
 5785.00    1.81328   1.74707   -1.000
 5786.00    1.82940   1.76071   -1.000
 5787.00    1.84880   1.77943   -1.000
 5788.00    1.87139   1.79867   -1.000
 5789.00    1.88485   1.81313   -1.000
 5790.00    1.87851   1.82104   -1.000
 5791.00    1.87207   1.82588   -1.000
 5792.00    1.87647   1.83324   -1.000
 5793.00    1.88564   1.84553   -1.000
 5794.00    1.89382   1.85981   59.696
 5795.00    1.89389   1.87022   59.890
 5796.00    1.88647   1.87324   60.286
 5797.00    1.88057   1.87090   60.309
 5798.00    1.88445   1.86971   59.717
 5799.00    1.90468   1.87521   58.897
 5800.00    1.93351   1.88709   -1.000
 5801.00    1.94615   1.89917   -1.000
 5802.00    1.93800   1.90430   59.200
 5803.00    1.92454   1.89975   59.667
 5804.00    1.91135   1.88859   60.039
 5805.00    1.89674   1.87712   60.073
 5806.00    1.89389   1.87058   59.863
 5807.00    1.90063   1.87047   59.660
 5808.00    1.90664   1.87503   59.580
 5809.00    1.91635   1.88133   59.558
 5810.00    1.92324   1.88691   59.405
 5811.00    1.93433   1.88982   -1.000
 5812.00    1.94108   1.88848   -1.000
 5813.00    1.93489   1.88210   -1.000
 5814.00    1.92616   1.87176   -1.000
 5815.00    1.91518   1.86120   -1.000
 5816.00    1.90943   1.85588   -1.000
 5817.00    1.91831   1.85978   -1.000
 5818.00    1.93798   1.87198   -1.000
 5819.00    1.95252   1.88680   -1.000
 5820.00    1.95615   1.89794   -1.000
 5821.00    1.95637   1.90261   -1.000
 5822.00    1.95520   1.90213   -1.000
 5823.00    1.95155   1.89969   -1.000
 5824.00    1.94989   1.89805   -1.000
 5825.00    1.95201   1.89824   -1.000
 5826.00    1.95547   1.90013   -1.000
 5827.00    1.95937   1.90297   -1.000
 5828.00    1.95809   1.90606   -1.000
 5829.00    1.95452   1.90866   -1.000
 5830.00    1.95614   1.91000   -1.000
 5831.00    1.95660   1.90937   -1.000
 5832.00    1.95507   1.90645   -1.000
 5833.00    1.95742   1.90167   -1.000
 5834.00    1.95248   1.89635   -1.000
 5835.00    1.94306   1.89228   -1.000
 5836.00    1.94348   1.89066   -1.000
 5837.00    1.95353   1.89142   -1.000
 5838.00    1.95676   1.89395   -1.000
 5839.00    1.95441   1.89823   -1.000
 5840.00    1.95780   1.90430   -1.000
 5841.00    1.96132   1.91090   -1.000
 5842.00    1.95914   1.91538   -1.000
 5843.00    1.95769   1.91517   -1.000
 5844.00    1.95687   1.90946   -1.000
 5845.00    1.94905   1.89941   -1.000
 5846.00    1.93483   1.88762   -1.000
 5847.00    1.92307   1.87701   -1.000
 5848.00    1.91874   1.86932   -1.000
 5849.00    1.92285   1.86387   -1.000
 5850.00    1.92649   1.85787   -1.000
 5851.00    1.91564   1.84888   -1.000
 5852.00    1.89297   1.83698   -1.000
 5853.00    1.87890   1.82442   -1.000
 5854.00    1.87862   1.81266   -1.000
 5855.00    1.87674   1.80047   -1.000
 5856.00    1.86243   1.78629   -1.000
 5857.00    1.84557   1.77219   -1.000
 5858.00    1.84327   1.76443   -1.000
 5859.00    1.86260   1.76816   -1.000
 5860.00    1.89010   1.78211   -1.000
 5861.00    1.90346   1.79970   -1.000
 5862.00    1.90300   1.81444   -1.000
 5863.00    1.90389   1.82362   -1.000
 5864.00    1.91045   1.82757   -1.000
 5865.00    1.90863   1.82761   -1.000
 5866.00    1.89483   1.82594   -1.000
 5867.00    1.89120   1.82620   -1.000
 5868.00    1.90654   1.83147   -1.000
 5869.00    1.92985   1.84162   -1.000
 5870.00    1.94409   1.85273   -1.000
 5871.00    1.94372   1.86052   -1.000
 5872.00    1.94514   1.86317   -1.000
 5873.00    1.94619   1.86202   -1.000
 5874.00    1.94306   1.85926   -1.000
 5875.00    1.93516   1.85569   -1.000
 5876.00    1.92816   1.85036   -1.000
 5877.00    1.92668   1.84200   -1.000
 5878.00    1.91817   1.83084   -1.000
 5879.00    1.90348   1.81881   -1.000
 5880.00    1.89379   1.80846   -1.000
 5881.00    1.89821   1.80110   -1.000
 5882.00    1.90893   1.79598   -1.000
 5883.00    1.90546   1.79074   -1.000
 5884.00    1.88437   1.78206   -1.000
 5885.00    1.86067   1.76481   -1.000
 5886.00    1.81557   1.73056   -1.000
 5887.00    1.69456   1.67155   66.727
 5888.00    1.52006   1.58886   -1.000
 5889.00    1.39899   1.50067   -1.000
 5890.00    1.41446   1.43476   73.252
 5891.00    1.53144   1.41114   -1.000
 5892.00    1.62551   1.42541   -1.000
 5893.00    1.62850   1.45239   -1.000
 5894.00    1.56100   1.46824   -1.000
 5895.00    1.50163   1.46916   70.798
 5896.00    1.52858   1.47138   -1.000
 5897.00    1.63485   1.49370   -1.000
 5898.00    1.74570   1.54110   -1.000
 5899.00    1.81737   1.60246   -1.000
 5900.00    1.85787   1.66245   -1.000
 5901.00    1.88239   1.71155   -1.000
 5902.00    1.89770   1.74685   -1.000
 5903.00    1.90102   1.76949   -1.000
 5904.00    1.89598   1.78236   -1.000
 5905.00    1.89336   1.78921   -1.000
 5906.00    1.89304   1.79393   -1.000
 5907.00    1.89428   1.79916   -1.000
 5908.00    1.89813   1.80553   -1.000
 5909.00    1.89919   1.81185   -1.000
 5910.00    1.90164   1.81597   -1.000
 5911.00    1.90216   1.81534   -1.000
 5912.00    1.88812   1.80824   -1.000
 5913.00    1.86510   1.79549   -1.000
 5914.00    1.84634   1.78130   -1.000
 5915.00    1.84190   1.77169   -1.000
 5916.00    1.85571   1.77085   -1.000
 5917.00    1.87061   1.77868   -1.000
 5918.00    1.87588   1.79141   -1.000
 5919.00    1.88358   1.80401   -1.000
 5920.00    1.88829   1.81264   -1.000
 5921.00    1.88540   1.81636   -1.000
 5922.00    1.88980   1.81698   -1.000
 5923.00    1.89627   1.81756   -1.000
 5924.00    1.89970   1.82016   -1.000
 5925.00    1.90414   1.82412   -1.000
 5926.00    1.90796   1.82647   -1.000
 5927.00    1.90488   1.82431   -1.000
 5928.00    1.89235   1.81734   -1.000
 5929.00    1.88256   1.80892   -1.000
 5930.00    1.87853   1.80377   -1.000
 5931.00    1.88423   1.80404   -1.000
 5932.00    1.89367   1.80784   -1.000
 5933.00    1.89398   1.81143   -1.000
 5934.00    1.88797   1.81364   -1.000
 5935.00    1.88398   1.81655   -1.000
 5936.00    1.88959   1.82223   -1.000
 5937.00    1.89881   1.82958   -1.000
 5938.00    1.90270   1.83478   -1.000
 5939.00    1.90317   1.83467   -1.000
 5940.00    1.89446   1.82932   -1.000
 5941.00    1.87840   1.82208   -1.000
 5942.00    1.87582   1.81771   -1.000
 5943.00    1.88959   1.81889   -1.000
 5944.00    1.90141   1.82437   -1.000
 5945.00    1.90032   1.82985   -1.000
 5946.00    1.89498   1.83102   -1.000
 5947.00    1.88913   1.82660   -1.000
 5948.00    1.87248   1.81901   -1.000
 5949.00    1.86708   1.81231   -1.000
 5950.00    1.87996   1.80892   -1.000
 5951.00    1.88095   1.80790   -1.000
 5952.00    1.87139   1.80728   -1.000
 5953.00    1.86860   1.80640   -1.000
 5954.00    1.87217   1.80569   -1.000
 5955.00    1.87468   1.80517   -1.000
 5956.00    1.86890   1.80427   -1.000
 5957.00    1.86456   1.80427   -1.000
 5958.00    1.87598   1.80800   -1.000
 5959.00    1.89506   1.81686   -1.000
 5960.00    1.91043   1.82914   -1.000
 5961.00    1.92258   1.84091   -1.000
 5962.00    1.92758   1.84849   -1.000
 5963.00    1.92155   1.85044   -1.000
 5964.00    1.91172   1.84785   -1.000
 5965.00    1.90098   1.84361   -1.000
 5966.00    1.89621   1.84108   -1.000
 5967.00    1.90229   1.84237   -1.000
 5968.00    1.91159   1.84745   -1.000
 5969.00    1.92053   1.85444   -1.000
 5970.00    1.92733   1.86108   -1.000
 5971.00    1.92604   1.86542   -1.000
 5972.00    1.91880   1.86570   -1.000
 5973.00    1.91547   1.86072   -1.000
 5974.00    1.91253   1.85046   -1.000
 5975.00    1.89189   1.83669   -1.000
 5976.00    1.86401   1.82323   62.533
 5977.00    1.85682   1.81455   62.480
 5978.00    1.86677   1.81329   -1.000
 5979.00    1.88165   1.81841   -1.000
 5980.00    1.89835   1.82515   -1.000
 5981.00    1.90383   1.82755   -1.000
 5982.00    1.88910   1.82212   -1.000
 5983.00    1.86460   1.81079   -1.000
 5984.00    1.84894   1.79992   -1.000
 5985.00    1.85379   1.79590   -1.000
 5986.00    1.87344   1.80079   -1.000
 5987.00    1.89148   1.81168   -1.000
 5988.00    1.89930   1.82361   -1.000
 5989.00    1.90459   1.83341   -1.000
 5990.00    1.90044   1.84043   -1.000
 5991.00    1.89126   1.84623   -1.000
 5992.00    1.89714   1.85272   -1.000
 5993.00    1.91188   1.85978   -1.000
 5994.00    1.91687   1.86471   -1.000
 5995.00    1.91181   1.86392   -1.000
 5996.00    1.90088   1.85686   -1.000
 5997.00    1.88365   1.84698   61.777
 5998.00    1.87754   1.83906   61.760
 5999.00    1.88619   1.83566   -1.000
 6000.00    1.89445   1.83549   -1.000
 6001.00    1.88759   1.83553   -1.000
 6002.00    1.87262   1.83420   62.339
 6003.00    1.86580   1.83174   62.217
 6004.00    1.86873   1.82850   62.160
 6005.00    1.87260   1.82338   -1.000
 6006.00    1.85907   1.81518   -1.000
 6007.00    1.83530   1.80614   63.312
 6008.00    1.82893   1.80147   62.841
 6009.00    1.84283   1.80470   62.116
 6010.00    1.86801   1.81368   -1.000
 6011.00    1.87859   1.82205   -1.000
 6012.00    1.86685   1.82490   -1.000
 6013.00    1.86290   1.82256   -1.000
 6014.00    1.86977   1.81835   -1.000
 6015.00    1.87112   1.81488   -1.000
 6016.00    1.86728   1.81250   -1.000
 6017.00    1.86343   1.81000   -1.000
 6018.00    1.85928   1.80669   -1.000
 6019.00    1.85182   1.80261   -1.000
 6020.00    1.84149   1.79893   -1.000
 6021.00    1.84166   1.79787   -1.000
 6022.00    1.84869   1.80099   -1.000
 6023.00    1.85021   1.80833   -1.000
 6024.00    1.85536   1.81873   62.128
 6025.00    1.86452   1.83077   61.842
 6026.00    1.87853   1.84336   61.555
 6027.00    1.89086   1.85534   61.217
 6028.00    1.89324   1.86603   61.067
 6029.00    1.89980   1.87515   61.052
 6030.00    1.91071   1.88253   61.147
 6031.00    1.90978   1.88861   61.152
 6032.00    1.91027   1.89449   60.927
 6033.00    1.92109   1.90073   60.715
 6034.00    1.92101   1.90668   60.644
 6035.00    1.91411   1.91069   60.575
 6036.00    1.91304   1.91111   60.557
 6037.00    1.91281   1.90785   60.800
 6038.00    1.90952   1.90196   61.037
 6039.00    1.90358   1.89546   61.182
 6040.00    1.90039   1.89052   61.197
 6041.00    1.89842   1.88901   61.069
 6042.00    1.89783   1.89161   60.860
 6043.00    1.90690   1.89733   60.428
 6044.00    1.91605   1.90430   60.235
 6045.00    1.91804   1.91060   60.297
 6046.00    1.91991   1.91547   60.237
 6047.00    1.92076   1.91902   60.223
 6048.00    1.91825   1.92152   60.383
 6049.00    1.91453   1.92273   60.560
 6050.00    1.91734   1.92192   60.642
 6051.00    1.92180   1.91805   60.727
 6052.00    1.92229   1.91076   60.926
 6053.00    1.92011   1.90056   61.148
 6054.00    1.90877   1.88934   61.417
 6055.00    1.89323   1.87971   61.682
 6056.00    1.88832   1.87411   61.687
 6057.00    1.89115   1.87400   61.435
 6058.00    1.89488   1.87868   61.102
 6059.00    1.89788   1.88523   61.013
 6060.00    1.92423   1.88957   61.151
 6061.00    1.80421   1.88818   -1.000
 6062.00    1.33717   1.87984   -1.000
 6063.00    1.44989   1.86645   -1.000
 6064.00    1.86110   1.85344   77.247
 6065.00    1.51487   1.84733   -1.000
 6066.00    0.80310   1.85224   -1.000
 6067.00    0.84414   1.86752   -1.000
 6068.00    1.60361   1.88727   -1.000
 6069.00    1.92885   1.90528   60.258
 6070.00    1.91517   1.91827   59.009
 6071.00    1.79760   1.92597   -1.000
 6072.00    1.80215   1.92959   -1.000
 6073.00    1.91641   1.92994   60.518
 6074.00    1.92819   1.92703   60.649
 6075.00    1.91505   1.92053   60.930
 6076.00    1.90520   1.91039   61.271
 6077.00    1.89520   1.89767   61.696
 6078.00    1.88079   1.88453   62.127
 6079.00    1.86953   1.87303   62.299
 6080.00    1.87023   1.86421   62.324
 6081.00    1.86625   1.85815   62.457
 6082.00    1.85860   1.85438   62.539
 6083.00    1.85803   1.85306   62.497
 6084.00    1.86040   1.85424   62.439
 6085.00    1.86242   1.85729   62.305
 6086.00    1.86485   1.86118   62.075
 6087.00    1.86598   1.86413   62.034
 6088.00    1.86626   1.86431   62.329
 6089.00    1.86065   1.86117   62.656
 6090.00    1.84492   1.85649   62.741
 6091.00    1.83945   1.85340   62.477
 6092.00    1.84842   1.85472   62.105
 6093.00    1.85676   1.86077   61.780
 6094.00    1.86843   1.86974   61.473
 6095.00    1.88207   1.87882   61.378
 6096.00    1.88534   1.88586   61.494
 6097.00    1.88626   1.88986   61.589
 6098.00    1.88506   1.88931   61.600
 6099.00    1.87739   1.88162   62.021
 6100.00    1.86211   1.86421   63.259
 6101.00    1.82770   1.83913   64.557
 6102.00    1.79054   1.81504   64.689
 6103.00    1.79023   1.80209   63.688
 6104.00    1.82065   1.80609   62.582
 6105.00    1.84992   1.82334   62.076
 6106.00    1.86536   1.84478   62.163
 6107.00    1.86281   1.86354   62.375
 6108.00    1.85714   1.87684   62.417
 6109.00    1.85980   1.88528   62.318
 6110.00    1.86302   1.89054   62.097
 6111.00    1.86670   1.89393   61.965
 6112.00    1.87070   1.89711   61.788
 6113.00    1.87454   1.90061   61.539
 6114.00    1.87863   1.90305   61.627
 6115.00    1.87239   1.90300   61.987
 6116.00    1.86189   1.89928   62.220
 6117.00    1.86078   1.89135   62.407
 6118.00    1.85812   1.87839   63.073
 6119.00    1.84000   1.85906   63.973
 6120.00    1.81120   1.83520   64.665
 6121.00    1.78878   1.81283   64.946
 6122.00    1.78202   1.79935   64.326
 6123.00    1.79743   1.79955   63.342
 6124.00    1.82890   1.81090   63.004
 6125.00    1.83990   1.82663   63.254
 6126.00    1.82977   1.84052   63.384
 6127.00    1.82736   1.85090   63.239
 6128.00    1.82920   1.85990   62.883
 6129.00    1.83398   1.86995   62.298
 6130.00    1.85039   1.88126   61.971
 6131.00    1.86593   1.89004   62.014
 6132.00    1.86165   1.89072   62.414
 6133.00    1.84715   1.87782   63.505
 6134.00    1.82283   1.84994   65.252
 6135.00    1.77524   1.81214   67.046
 6136.00    1.72355   1.77697   67.856
 6137.00    1.70472   1.75736   66.862
 6138.00    1.73366   1.75942   64.956
 6139.00    1.78037   1.77845   63.761
 6140.00    1.80765   1.80322   63.594
 6141.00    1.81175   1.82618   63.743
 6142.00    1.81394   1.84550   63.409
 6143.00    1.82917   1.86242   62.651
 6144.00    1.84543   1.87656   62.276
 6145.00    1.84861   1.88502   62.444
 6146.00    1.84314   1.88580   62.814
 6147.00    1.83758   1.87965   63.251
 6148.00    1.82952   1.86956   63.661
 6149.00    1.81584   1.85992   63.815
 6150.00    1.81079   1.85396   63.659
 6151.00    1.81335   1.85225   63.290
 6152.00    1.82033   1.85269   63.046
 6153.00    1.82576   1.85191   63.348
 6154.00    1.81883   1.84789   63.801
 6155.00    1.81173   1.84103   63.946
 6156.00    1.80871   1.83236   64.104
 6157.00    1.80616   1.82042   64.627
 6158.00    1.79414   1.80090   65.655
 6159.00    1.76326   1.77016   67.369
 6160.00    1.72090   1.72925   69.413
 6161.00    1.67572   1.68698   70.641
 6162.00    1.64593   1.65626   70.231
 6163.00    1.65344   1.64660   68.565
 6164.00    1.68510   1.65841   67.118
 6165.00    1.71747   1.68200   66.578
 6166.00    1.73535   1.70451   66.597
 6167.00    1.73377   1.71683   67.199
 6168.00    1.71659   1.71837   68.006
 6169.00    1.69569   1.71582   67.983
 6170.00    1.69627   1.71828   66.928
 6171.00    1.72719   1.73045   65.800
 6172.00    1.75580   1.74925   65.481
 6173.00    1.76288   1.76828   65.597
 6174.00    1.76553   1.78280   65.514
 6175.00    1.76699   1.79227   65.361
 6176.00    1.76934   1.79871   65.211
 6177.00    1.77674   1.80460   64.944
 6178.00    1.78488   1.81124   64.664
 6179.00    1.78993   1.81855   64.453
 6180.00    1.79346   1.82581   64.192
 6181.00    1.79760   1.83224   63.966
 6182.00    1.80397   1.83646   63.985
 6183.00    1.81130   1.83656   64.188
 6184.00    1.80715   1.83119   64.587
 6185.00    1.79359   1.82052   65.235
 6186.00    1.78158   1.80609   65.938
 6187.00    1.76791   1.78963   66.583
 6188.00    1.75100   1.77226   67.124
 6189.00    1.73592   1.75462   67.832
 6190.00    1.71593   1.73938   68.486
 6191.00    1.69760   1.73110   68.177
 6192.00    1.70728   1.73413   66.786
 6193.00    1.73820   1.74907   65.412
 6194.00    1.76481   1.77036   64.783
 6195.00    1.78132   1.79060   64.599
 6196.00    1.79496   1.80418   64.822
 6197.00    1.79382   1.80874   65.476
 6198.00    1.77157   1.80628   66.122
 6199.00    1.74774   1.80194   -1.000
 6200.00    1.73481   1.80084   -1.000
 6201.00    1.74082   1.80623   -1.000
 6202.00    1.76305   1.81668   -1.000
 6203.00    1.78045   1.82856   -1.000
 6204.00    1.78806   1.83883   -1.000
 6205.00    1.80086   1.84597   64.440
 6206.00    1.80796   1.85025   64.597
 6207.00    1.80368   1.85169   -1.000
 6208.00    1.80301   1.84974   64.858
 6209.00    1.79889   1.84306   65.353
 6210.00    1.78735   1.83026   65.918
 6211.00    1.77288   1.81114   66.501
 6212.00    1.75062   1.78757   67.381
 6213.00    1.72139   1.76342   68.228
 6214.00    1.70446   1.74380   68.586
 6215.00    1.70765   1.73223   68.092
 6216.00    1.72173   1.72849   67.466
 6217.00    1.73642   1.72938   67.689
 6218.00    1.73421   1.73130   67.800
 6219.00    1.71793   1.73275   67.337
 6220.00    1.71207   1.73491   67.374
 6221.00    1.74102   1.73911   70.518
 6222.00    1.67765   1.74532   -1.000
 6223.00    1.55299   1.75174   -1.000
 6224.00    1.64814   1.75684   -1.000
 6225.00    1.76793   1.75955   66.851
 6226.00    1.76017   1.75815   67.072
 6227.00    1.75327   1.75056   67.796
 6228.00    1.73267   1.73567   68.876
 6229.00    1.69819   1.71616   69.874
 6230.00    1.66588   1.69849   70.042
 6231.00    1.66417   1.69051   69.245
 6232.00    1.68995   1.69685   68.026
 6233.00    1.71886   1.71507   66.830
 6234.00    1.74232   1.73786   66.218
 6235.00    1.75852   1.75634   66.403
 6236.00    1.75736   1.76456   67.027
 6237.00    1.74257   1.76185   67.716
 6238.00    1.72540   1.75166   68.423
 6239.00    1.70724   1.73888   68.894
 6240.00    1.69804   1.72674   68.965
 6241.00    1.69836   1.71628   69.237
 6242.00    1.68679   1.70729   69.754
 6243.00    1.66845   1.69982   69.906
 6244.00    1.66681   1.69554   69.593
 6245.00    1.67795   1.69738   68.981
 6246.00    1.69199   1.70634   68.168
 6247.00    1.71258   1.72122   67.382
 6248.00    1.72916   1.73718   67.064
 6249.00    1.72766   1.74762   67.441
 6250.00    1.71485   1.74792   68.474
 6251.00    1.69858   1.73764   69.531
 6252.00    1.67574   1.72095   -1.000
 6253.00    1.65342   1.70356   -1.000
 6254.00    1.64734   1.68972   70.472
 6255.00    1.64649   1.67979   70.824
 6256.00    1.63548   1.67328   71.508
 6257.00    1.62678   1.67018   -1.000
 6258.00    1.63129   1.67279   -1.000
 6259.00    1.65326   1.68378   69.658
 6260.00    1.67697   1.70279   68.678
 6261.00    1.69609   1.72660   67.672
 6262.00    1.71723   1.74923   67.031
 6263.00    1.72737   1.76584   67.251
 6264.00    1.72079   1.77498   -1.000
 6265.00    1.71374   1.77854   -1.000
 6266.00    1.71176   1.77980   -1.000
 6267.00    1.71108   1.78078   -1.000
 6268.00    1.71187   1.78180   -1.000
 6269.00    1.70478   1.78279   -1.000
 6270.00    1.70259   1.78424   -1.000
 6271.00    1.71357   1.78652   -1.000
 6272.00    1.72412   1.78817   -1.000
 6273.00    1.71874   1.78683   -1.000
 6274.00    1.70098   1.78035   -1.000
 6275.00    1.67927   1.76852   -1.000
 6276.00    1.65228   1.75336   -1.000
 6277.00    1.62835   1.73748   -1.000
 6278.00    1.60732   1.72399   -1.000
 6279.00    1.59095   1.71556   -1.000
 6280.00    1.57877   1.71443   -1.000
 6281.00    1.57390   1.72193   -1.000
 6282.00    1.58611   1.73689   -1.000
 6283.00    1.60688   1.75622   -1.000
 6284.00    1.63157   1.77607   -1.000
 6285.00    1.66250   1.79330   -1.000
 6286.00    1.69535   1.80671   -1.000
 6287.00    1.71848   1.81532   -1.000
 6288.00    1.72790   1.81858   -1.000
 6289.00    1.73019   1.81624   -1.000
 6290.00    1.72334   1.80929   -1.000
 6291.00    1.71190   1.80032   -1.000
 6292.00    1.70667   1.79190   -1.000
 6293.00    1.70924   1.78480   -1.000
 6294.00    1.70649   1.77792   -1.000
 6295.00    1.69501   1.77000   -1.000
 6296.00    1.68620   1.76108   -1.000
 6297.00    1.68014   1.75260   -1.000
 6298.00    1.67613   1.74635   -1.000
 6299.00    1.67777   1.74229   -1.000
 6300.00    1.67692   1.73979   -1.000
 6301.00    1.67036   1.73935   -1.000
 6302.00    1.67055   1.74273   -1.000
 6303.00    1.68313   1.75169   -1.000
 6304.00    1.70126   1.76575   -1.000
 6305.00    1.71498   1.78231   -1.000
 6306.00    1.72376   1.79831   -1.000
 6307.00    1.73396   1.81105   -1.000
 6308.00    1.74268   1.81878   -1.000
 6309.00    1.73763   1.82084   -1.000
 6310.00    1.71834   1.81788   -1.000
 6311.00    1.70532   1.81165   -1.000
 6312.00    1.70495   1.80309   -1.000
 6313.00    1.70115   1.79314   -1.000
 6314.00    1.68724   1.78214   -1.000
 6315.00    1.67246   1.77093   -1.000
 6316.00    1.66323   1.76150   -1.000
 6317.00    1.66623   1.75614   -1.000
 6318.00    1.67421   1.75683   -1.000
 6319.00    1.68505   1.76414   -1.000
 6320.00    1.70049   1.77694   -1.000
 6321.00    1.71287   1.79219   -1.000
 6322.00    1.71981   1.80715   -1.000
 6323.00    1.72172   1.82032   -1.000
 6324.00    1.73290   1.83133   -1.000
 6325.00    1.75119   1.83963   -1.000
 6326.00    1.75775   1.84502   -1.000
 6327.00    1.75496   1.84817   -1.000
 6328.00    1.75212   1.84985   -1.000
 6329.00    1.75100   1.85138   -1.000
 6330.00    1.75377   1.85302   -1.000
 6331.00    1.75664   1.85359   -1.000
 6332.00    1.76078   1.85097   -1.000
 6333.00    1.76477   1.84255   -1.000
 6334.00    1.65393   1.82837   -1.000
 6335.00    1.57765   1.81259   -1.000
 6336.00    1.66031   1.80091   -1.000
 6337.00    1.71341   1.79811   -1.000
 6338.00    1.72344   1.80445   -1.000
 6339.00    1.74387   1.81577   -1.000
 6340.00    1.75992   1.82669   -1.000
 6341.00    1.76286   1.83284   -1.000
 6342.00    1.75475   1.83274   -1.000
 6343.00    1.74547   1.82918   -1.000
 6344.00    1.74329   1.82648   -1.000
 6345.00    1.75032   1.82871   -1.000
 6346.00    1.76023   1.83709   -1.000
 6347.00    1.76646   1.84930   -1.000
 6348.00    1.77219   1.86225   -1.000
 6349.00    1.78311   1.87273   -1.000
 6350.00    1.79215   1.87843   -1.000
 6351.00    1.78253   1.87827   -1.000
 6352.00    1.76822   1.87221   -1.000
 6353.00    1.76156   1.86168   -1.000
 6354.00    1.74971   1.84893   -1.000
 6355.00    1.73869   1.83582   -1.000
 6356.00    1.73101   1.82323   -1.000
 6357.00    1.72258   1.81073   -1.000
 6358.00    1.71226   1.79762   -1.000
 6359.00    1.70276   1.78472   -1.000
 6360.00    1.70260   1.77393   -1.000
 6361.00    1.70353   1.76712   -1.000
 6362.00    1.70474   1.76591   -1.000
 6363.00    1.71225   1.77129   -1.000
 6364.00    1.72290   1.78285   -1.000
 6365.00    1.73116   1.79876   -1.000
 6366.00    1.73607   1.81636   -1.000
 6367.00    1.74543   1.83265   -1.000
 6368.00    1.75871   1.84593   -1.000
 6369.00    1.76800   1.85570   -1.000
 6370.00    1.76977   1.86297   -1.000
 6371.00    1.76906   1.86948   -1.000
 6372.00    1.77207   1.87575   -1.000
 6373.00    1.77576   1.88117   -1.000
 6374.00    1.77360   1.88429   -1.000
 6375.00    1.76907   1.88397   -1.000
 6376.00    1.76022   1.88016   -1.000
 6377.00    1.74558   1.87362   -1.000
 6378.00    1.73713   1.86553   -1.000
 6379.00    1.73355   1.85802   -1.000
 6380.00    1.73043   1.85277   -1.000
 6381.00    1.72914   1.85037   -1.000
 6382.00    1.73203   1.85069   -1.000
 6383.00    1.74032   1.85298   -1.000
 6384.00    1.74223   1.85661   -1.000
 6385.00    1.73211   1.86100   -1.000
 6386.00    1.72553   1.86561   -1.000
 6387.00    1.72629   1.86923   -1.000
 6388.00    1.72332   1.87024   -1.000
 6389.00    1.71569   1.86715   -1.000
 6390.00    1.70386   1.85894   -1.000
 6391.00    1.68504   1.84637   -1.000
 6392.00    1.65861   1.83296   -1.000
 6393.00    1.63666   1.82413   -1.000
 6394.00    1.63545   1.82374   -1.000
 6395.00    1.65079   1.83105   -1.000
 6396.00    1.65952   1.83968   -1.000
 6397.00    1.64893   1.84246   -1.000
 6398.00    1.62407   1.83720   -1.000
 6399.00    1.59726   1.82815   -1.000
 6400.00    1.58315   1.82333   -1.000
 6401.00    1.59098   1.82858   -1.000
 6402.00    1.61126   1.84313   -1.000
 6403.00    1.62454   1.85995   -1.000
 6404.00    1.62484   1.87143   -1.000
 6405.00    1.60969   1.87391   -1.000
 6406.00    1.59135   1.86861   -1.000
 6407.00    1.57455   1.86010   -1.000
 6408.00    1.55075   1.85257   -1.000
 6409.00    1.54026   1.84799   -1.000
 6410.00    1.54063   1.84556   -1.000
 6411.00    1.52484   1.84427   -1.000
 6412.00    1.50730   1.84448   -1.000
 6413.00    1.50292   1.84717   -1.000
 6414.00    1.50316   1.85200   -1.000
 6415.00    1.50091   1.85684   -1.000
 6416.00    1.49292   1.85905   -1.000
 6417.00    1.48191   1.85624   -1.000
 6418.00    1.46563   1.84827   -1.000
 6419.00    1.44053   1.83792   -1.000
 6420.00    1.41265   1.83056   -1.000
 6421.00    1.39429   1.83079   -1.000
 6422.00    1.39506   1.84010   -1.000
 6423.00    1.40656   1.85597   -1.000
 6424.00    1.41032   1.87292   -1.000
 6425.00    1.40584   1.88650   -1.000
 6426.00    1.39661   1.89360   -1.000
 6427.00    1.38108   1.89228   -1.000
 6428.00    1.36423   1.88256   -1.000
