###################################################################
## OUTPUT of StarlightChains_v04.for    [Cid@UFSC - 01/Apr/2007] ##
###################################################################

## Some input info
NGC6637_a_1.cxt                          [arq_obs]
Base.BC03.N                              [arq_base]
NGC6637_a_1.msk                          [arq_masks]
StCv04.C11.config                        [arq_config]
   45                                    [N_base]
    0                                    [N_YAV_components = # of components with extra extinction!]
    0                                    [i_FitPowerLaw (1/0 = Yes/No)]
-9.99                                    [alpha_PowerLaw]
CCM                                      [red_law_option]
 1.458241                                [q_norm = A(l_norm)/A(V)]

## (Re)Sampling Parameters
 3359.00                                 [l_ini (A)]
 6428.00                                 [l_fin (A)]
    1.00                                 [dl    (A)]     (OBS: dl_cushion =    50.00 A)

## Normalization info
 4020.00                                 [l_norm (A) - for base]
 4010.00                                 [llow_norm (A) - window for f_obs]
 4060.00                                 [lupp_norm (A) - window for f_obs]
1.782031E-14                             [fobs_norm (in input units)]

## S/N
 4730.00                                 [llow_SN (A) - window for S/N]
 4780.00                                 [lupp_SN (A) - window for S/N]
  44.619                                 [S/N in S/N window]
  30.665                                 [S/N in norm. window]
  98.004                                 [S/N_err in S/N window]
  67.353                                 [S/N_err in norm. window]
  1.0000                                 [fscale_chi2]

## etc...
  2147483594                             [idum_orig]
  3067                                   [NOl_eff]
  1277                                   [Nl_eff]
  1790    NSIGMA                         [Ntot_cliped & clip_method]
   759220                                [Nglobal_steps]
   7                                     [N_chains]
  10                                     [NEX0s_base = N_base in EX0s-fits]
 0   0   1      151   2.0   8.103E+02    [Clip-Bug, RC-Crash & Burn-In warning-flags, n_censored_weights, wei_nsig_threshold & wei_limit]
    10      9.571      9.571      0.000  [idt_all, wdt_TotTime, wdt_UsrTime & wdt_SysTime (sec)]

## Synthesis Results - Best model ##

 2.59077E+00                             [chi2/Nl_eff]
     1.60899                             [adev (%)]

   100.82639                             [sum-of-x (%)]
 4.12337E-14                             [Flux_tot (units of input spectrum!)]
 1.46311E-09                             [Mini_tot (???)]
 7.35685E-10                             [Mcor_tot (???)]

   5.98                                  [v0_min  (km/s)]
  76.03                                  [vd_min  (km/s)]
 0.6185                                  [AV_min  (mag)]
 0.0000                                  [YAV_min (mag)]

# j     x_j(%)      Mini_j(%)     Mcor_j(%)     age_j(yr)     Z_j      (L/M)_j    YAV?  Mstars   component_j        a/Fe...       SSP_chi2r SSP_adev(%)   SSP_AV   SSP_x(%)
  1      1.5207     3.8156E-03    7.5884E-03    1.000000E+06  0.00400  1.114E-02    0   1.0000   age020_m42            0.0000     6.1865E+02    21.5406   4.0000    81.8715
  2      2.0078     1.3779E-03    2.7401E-03    3.160000E+06  0.00400  4.073E-02    0   0.9999   age045_m42            0.0000     1.1090E+02    10.3448   3.6268    93.9165
  3      0.0000     0.0000E+00    0.0000E+00    5.010000E+06  0.00400  2.534E-02    0   0.9488   age055_m42            0.0000     1.6646E+02    12.4541   4.0000    86.4871
  4      0.9612     2.1139E-03    3.7256E-03    1.000000E+07  0.00400  1.271E-02    0   0.8862   age070_m42            0.0000     1.5161E+02    12.8392   3.2979    89.3661
  5      0.0000     0.0000E+00    0.0000E+00    2.512000E+07  0.00400  5.070E-03    0   0.8174   age090_m42            0.0000     1.4108E+02    12.3179   3.1610    91.1416
  6      0.0000     0.0000E+00    0.0000E+00    4.000000E+07  0.00400  3.505E-03    0   0.7851   age104_m42            0.0000     1.0972E+02    10.6394   2.8123    95.3487
  7      0.0000     0.0000E+00    0.0000E+00    1.015200E+08  0.00400  2.268E-03    0   0.7207   age116_m42            0.0000     2.9696E+02    12.6258   2.5771   114.0670
  8      0.0000     0.0000E+00    0.0000E+00    2.861200E+08  0.00400  1.079E-03    0   0.6613   age125_m42            0.0000     3.0504E+02    12.6651   2.0701   117.0551
  9      0.0000     0.0000E+00    0.0000E+00    6.405400E+08  0.00400  5.077E-04    0   0.6197   age132_m42            0.0000     3.3474E+02    12.8893   1.6859   122.4283
 10      0.0000     0.0000E+00    0.0000E+00    9.047900E+08  0.00400  3.535E-04    0   0.6024   age135_m42            0.0000     2.2541E+02    10.8278   1.4849   119.9396
 11      0.0000     0.0000E+00    0.0000E+00    1.434000E+09  0.00400  1.910E-04    0   0.5716   age139_m42            0.0000     1.1297E+02     7.7341   1.0007   116.6054
 12      0.0041     1.1782E-03    1.2801E-03    2.500000E+09  0.00400  9.818E-05    0   0.5463   age150_m42            0.0000     2.8573E+01     4.0103   0.7929   108.8075
 13     35.8486     2.1238E+01    2.2082E+01    5.000000E+09  0.00400  4.718E-05    0   0.5228   age161_m42            0.0000     6.7583E+00     2.1632   0.6642   103.8034
 14     44.0236     5.5806E+01    5.5270E+01    1.100000E+10  0.00400  2.205E-05    0   0.4980   age185_m42            0.0000     6.0382E+00     2.3642   0.4068   101.3561
 15     14.2935     2.1217E+01    2.0790E+01    1.300000E+10  0.00400  1.883E-05    0   0.4927   age193_m42            0.0000     7.0796E+00     2.5748   0.3932   101.0697
 16      0.0000     0.0000E+00    0.0000E+00    1.000000E+06  0.02000  1.989E-02    0   1.0000   age020_m62            0.0000     5.8639E+02    20.8584   4.0000    82.3870
 17      0.0000     0.0000E+00    0.0000E+00    3.160000E+06  0.02000  3.772E-02    0   0.9858   age045_m62            0.0000     4.3553E+02    18.3762   4.0000    84.1872
 18      0.0000     0.0000E+00    0.0000E+00    5.010000E+06  0.02000  3.227E-02    0   0.9342   age055_m62            0.0000     1.3586E+02    11.9540   3.9187    89.2830
 19      0.0000     0.0000E+00    0.0000E+00    1.000000E+07  0.02000  1.011E-02    0   0.8751   age070_m62            0.0000     2.8342E+02    16.6617   3.3792    82.6830
 20      0.0000     0.0000E+00    0.0000E+00    2.512000E+07  0.02000  4.206E-03    0   0.8099   age090_m62            0.0000     2.2078E+02    14.8226   3.2920    84.5182
 21      0.0000     0.0000E+00    0.0000E+00    4.000000E+07  0.02000  3.373E-03    0   0.7799   age104_m62            0.0000     1.3022E+02    11.2707   2.9905    97.7927
 22      0.0000     0.0000E+00    0.0000E+00    1.015200E+08  0.02000  1.878E-03    0   0.7221   age116_m62            0.0000     2.5538E+02    12.3723   2.6415   112.8881
 23      0.0000     0.0000E+00    0.0000E+00    2.861200E+08  0.02000  8.869E-04    0   0.6700   age125_m62            0.0000     4.9139E+02    15.2030   2.0139   125.1096
 24      0.0000     0.0000E+00    0.0000E+00    6.405400E+08  0.02000  3.657E-04    0   0.6322   age132_m62            0.0000     3.3314E+02    12.7673   1.3488   127.9645
 25      0.0000     0.0000E+00    0.0000E+00    9.047900E+08  0.02000  2.312E-04    0   0.6152   age135_m62            0.0000     1.9895E+02     9.9405   1.0227   124.7363
 26      0.0000     0.0000E+00    0.0000E+00    1.434000E+09  0.02000  1.168E-04    0   0.5865   age139_m62            0.0000     5.6377E+01     5.6217   0.6984   114.4704
 27      0.0000     0.0000E+00    0.0000E+00    2.500000E+09  0.02000  5.505E-05    0   0.5610   age150_m62            0.0000     2.5228E+01     3.9161   0.3539   110.0583
 28      1.6054     1.7286E+00    1.8402E+00    5.000000E+09  0.02000  2.596E-05    0   0.5353   age161_m62            0.0000     3.9773E+01     5.4699   0.0154   110.1423
 29      0.0004     9.6356E-04    9.7788E-04    1.100000E+10  0.02000  1.169E-05    0   0.5103   age185_m62            0.0000     8.0477E+01     7.8606  -0.3789   112.5999
 30      0.0000     0.0000E+00    0.0000E+00    1.300000E+10  0.02000  9.691E-06    0   0.5047   age193_m62            0.0000     8.9419E+01     8.2675  -0.4300   113.0191
 31      0.0000     0.0000E+00    0.0000E+00    1.000000E+06  0.05000  2.651E-02    0   0.9998   age020_m72            0.0000     5.6521E+02    20.4885   4.0000    83.5589
 32      0.0000     0.0000E+00    0.0000E+00    3.160000E+06  0.05000  4.817E-02    0   0.9577   age045_m72            0.0000     2.7179E+02    15.0537   4.0000    87.4068
 33      0.5609     5.0561E-04    9.1976E-04    5.010000E+06  0.05000  3.101E-02    0   0.9147   age055_m72            0.0000     1.7647E+02    13.3602   3.9799    85.7149
 34      0.0000     0.0000E+00    0.0000E+00    1.000000E+07  0.05000  8.954E-03    0   0.8524   age070_m72            0.0000     2.1770E+02    13.4216   4.0000    87.1880
 35      0.0000     0.0000E+00    0.0000E+00    2.512000E+07  0.05000  4.207E-03    0   0.7902   age090_m72            0.0000     1.3059E+02    11.2775   3.7310    91.8122
 36      0.0000     0.0000E+00    0.0000E+00    4.000000E+07  0.05000  3.198E-03    0   0.7618   age104_m72            0.0000     1.6907E+02    10.9468   3.0711   105.7073
 37      0.0000     0.0000E+00    0.0000E+00    1.015200E+08  0.05000  1.716E-03    0   0.7092   age116_m72            0.0000     2.9520E+02    12.9596   2.6977   114.0876
 38      0.0000     0.0000E+00    0.0000E+00    2.861200E+08  0.05000  7.047E-04    0   0.6618   age125_m72            0.0000     4.7684E+02    14.8737   1.7892   126.0859
 39      0.0000     0.0000E+00    0.0000E+00    6.405400E+08  0.05000  2.633E-04    0   0.6253   age132_m72            0.0000     2.5522E+02    11.1939   0.9829   126.5725
 40      0.0000     0.0000E+00    0.0000E+00    9.047900E+08  0.05000  1.484E-04    0   0.6088   age135_m72            0.0000     9.1306E+01     7.1975   0.5843   117.3706
 41      0.0000     0.0000E+00    0.0000E+00    1.434000E+09  0.05000  7.827E-05    0   0.5847   age139_m72            0.0000     4.4135E+01     5.2166   0.2336   111.7342
 42      0.0000     0.0000E+00    0.0000E+00    2.500000E+09  0.05000  3.759E-05    0   0.5583   age150_m72            0.0000     4.5648E+01     5.9611  -0.0767   110.2246
 43      0.0000     0.0000E+00    0.0000E+00    5.000000E+09  0.05000  1.548E-05    0   0.5320   age161_m72            0.0000     7.8454E+01     7.7765  -0.5166   110.6496
 44      0.0000     0.0000E+00    0.0000E+00    1.100000E+10  0.05000  6.532E-06    0   0.5070   age185_m72            0.0000     1.4827E+02    10.3522  -0.9613   112.6288
 45      0.0000     0.0000E+00    0.0000E+00    1.300000E+10  0.05000  5.316E-06    0   0.5018   age193_m72            0.0000     1.8839E+02    10.8569  -1.0000   111.3445


## Synthesis Results - Average & Chains ##

# j      x_j: min, <> & last-chain-values for 1 ...  7 chains
  1      1.5207      1.2771      1.1514      1.2970      1.3231      1.5793      1.2124      1.3629      1.2396
  2      2.0078      0.5904      1.1014      0.7373      0.7402      0.4833      0.7895      0.8366      0.6422
  3      0.0000      0.1813      0.2286      0.0858      0.0000      0.2170      0.2370      0.1425      0.5332
  4      0.9612      0.3245      0.4453      0.2995      0.7397      0.6114      0.6061      0.3413      0.3057
  5      0.0000      0.1401      0.2621      0.2266      0.0000      0.0000      0.0812      0.0991      0.0000
  6      0.0000      0.0311      0.0000      0.0970      0.0000      0.1625      0.3084      0.0041      0.0205
  7      0.0000      0.0198      0.0000      0.0000      0.0000      0.0000      0.0000      0.0000      0.0176
  8      0.0000      0.0189      0.0000      0.0742      0.0000      0.0000      0.0000      0.0000      0.0000
  9      0.0000      0.0199      0.0000      0.0000      0.0000      0.0000      0.0000      0.0000      0.0000
 10      0.0000      0.0295      0.0000      0.0000      0.0000      0.0000      0.0000      0.0000      0.0412
 11      0.0000      0.0828      0.0000      0.0021      0.0000      0.0340      0.0000      0.0000      0.0000
 12      0.0041      0.2786      0.0000      0.1830      0.3955      0.4941      0.7429      0.0833      0.3437
 13     35.8486     37.4188     37.4672     37.7520     37.4038     38.7116     37.5499     38.6585     38.5144
 14     44.0236     38.2128     38.4206     38.4279     38.4656     38.3325     38.3781     36.9082     38.9271
 15     14.2935     17.9463     18.1101     18.2497     17.4875     17.3148     17.6117     18.3678     17.7058
 16      0.0000      0.5671      0.4946      0.6121      0.5943      0.5666      0.4605      0.4770      0.5980
 17      0.0000      0.1673      0.5061      0.1290      0.1273      0.1193      0.0000      0.3989      0.1332
 18      0.0000      0.1243      0.0393      0.0932      0.0000      0.0769      0.0000      0.0320      0.0000
 19      0.0000      0.1153      0.0000      0.0404      0.1278      0.0099      0.0329      0.0000      0.0000
 20      0.0000      0.0149      0.0000      0.0000      0.0000      0.0000      0.0000      0.0000      0.0021
 21      0.0000      0.0301      0.0000      0.0231      0.0000      0.0000      0.0000      0.0000      0.0000
 22      0.0000      0.0056      0.0000      0.0000      0.0000      0.0000      0.0000      0.0000      0.0000
 23      0.0000      0.0062      0.0000      0.0000      0.0000      0.0000      0.0000      0.0000      0.0000
 24      0.0000      0.0106      0.0000      0.0000      0.0000      0.0000      0.0000      0.0000      0.0000
 25      0.0000      0.0156      0.0000      0.0000      0.0000      0.0000      0.0000      0.0000      0.0000
 26      0.0000      0.0537      0.0213      0.0000      0.0409      0.1615      0.0283      0.0000      0.0000
 27      0.0000      0.1472      0.0000      0.0000      0.5515      0.0000      0.1612      0.0000      0.0000
 28      1.6054      0.6051      1.1262      0.7672      1.0455      0.6345      0.7378      0.0000      0.3750
 29      0.0004      0.9427      0.6947      0.9756      0.3876      0.6094      0.7399      0.9881      1.0976
 30      0.0000      0.4822      0.4100      0.0000      0.1718      0.4840      0.3906      1.2119      0.0183
 31      0.0000      0.2011      0.0000      0.0000      0.0000      0.0000      0.2232      0.0000      0.1998
 32      0.0000      0.0518      0.0000      0.0000      0.0000      0.1303      0.0000      0.0000      0.0890
 33      0.5609      0.1646      0.1381      0.5259      0.5695      0.0090      0.5791      0.4803      0.0513
 34      0.0000      0.0215      0.0000      0.0000      0.0000      0.0917      0.0000      0.0114      0.0000
 35      0.0000      0.0099      0.0000      0.0000      0.0000      0.0000      0.0000      0.0000      0.0000
 36      0.0000      0.0177      0.0000      0.0275      0.0000      0.0000      0.0753      0.0000      0.0000
 37      0.0000      0.0131      0.0000      0.0000      0.0000      0.0971      0.0000      0.0000      0.0000
 38      0.0000      0.0072      0.0000      0.0000      0.0000      0.0000      0.0001      0.0000      0.0000
 39      0.0000      0.0152      0.0309      0.0000      0.0000      0.0000      0.0000      0.0000      0.0000
 40      0.0000      0.0396      0.0000      0.0000      0.0000      0.0000      0.0000      0.0000      0.0000
 41      0.0000      0.0797      0.0385      0.0000      0.0806      0.0000      0.0000      0.0000      0.0000
 42      0.0000      0.2657      0.1994      0.3011      0.5440      0.0000      0.0000      0.5132      0.0771
 43      0.0000      0.1306      0.0142      0.0000      0.1877      0.0000      0.0000      0.0000      0.0000
 44      0.0000      0.0887      0.0089      0.0000      0.0000      0.0000      0.0167      0.0000      0.0000
 45      0.0000      0.0559      0.0368      0.0000      0.0000      0.0000      0.0000      0.0000      0.0000

# j      m_j: min, <> & last-chain-values for 1 ...  7 chains
  1  7.5884E-03  6.1920E-03  5.6175E-03  6.3691E-03  6.5562E-03  7.8037E-03  5.9831E-03  6.5879E-03  6.0833E-03
  2  2.7401E-03  7.8286E-04  1.4695E-03  9.9016E-04  1.0030E-03  6.5312E-04  1.0655E-03  1.1059E-03  8.6189E-04
  3  0.0000E+00  3.6659E-04  4.6514E-04  1.7584E-04  0.0000E+00  4.4735E-04  4.8778E-04  2.8725E-04  1.0915E-03
  4  3.7256E-03  1.2222E-03  1.6874E-03  1.1423E-03  2.8471E-03  2.3466E-03  2.3232E-03  1.2812E-03  1.1653E-03
  5  0.0000E+00  1.2201E-03  2.2961E-03  1.9983E-03  0.0000E+00  0.0000E+00  7.1961E-04  8.6050E-04  0.0000E+00
  6  0.0000E+00  3.7673E-04  0.0000E+00  1.1884E-03  0.0000E+00  2.0033E-03  3.7969E-03  4.9771E-05  2.5164E-04
  7  0.0000E+00  3.3944E-04  0.0000E+00  0.0000E+00  0.0000E+00  0.0000E+00  0.0000E+00  0.0000E+00  3.0520E-04
  8  0.0000E+00  6.2462E-04  0.0000E+00  2.4880E-03  0.0000E+00  0.0000E+00  0.0000E+00  0.0000E+00  0.0000E+00
  9  0.0000E+00  1.3149E-03  0.0000E+00  0.0000E+00  0.0000E+00  0.0000E+00  0.0000E+00  0.0000E+00  0.0000E+00
 10  0.0000E+00  2.7176E-03  0.0000E+00  0.0000E+00  0.0000E+00  0.0000E+00  0.0000E+00  0.0000E+00  3.8340E-03
 11  0.0000E+00  1.3392E-02  0.0000E+00  3.4490E-04  0.0000E+00  5.5981E-03  0.0000E+00  0.0000E+00  0.0000E+00
 12  1.2801E-03  8.3736E-02  0.0000E+00  5.5702E-02  1.2147E-01  1.5134E-01  2.2724E-01  2.4963E-02  1.0456E-01
 13  2.2082E+01  2.2396E+01  2.2564E+01  2.2885E+01  2.2878E+01  2.3613E+01  2.2874E+01  2.3066E+01  2.3332E+01
 14  5.5270E+01  4.6616E+01  4.7159E+01  4.7478E+01  4.7954E+01  4.7656E+01  4.7649E+01  4.4885E+01  4.8064E+01
 15  2.0790E+01  2.5364E+01  2.5753E+01  2.6123E+01  2.5258E+01  2.4939E+01  2.5333E+01  2.5879E+01  2.5327E+01
 16  0.0000E+00  1.5399E-03  1.3515E-03  1.6835E-03  1.6492E-03  1.5681E-03  1.2728E-03  1.2913E-03  1.6436E-03
 17  0.0000E+00  2.3622E-04  7.1885E-04  1.8441E-04  1.8366E-04  1.7164E-04  0.0000E+00  5.6141E-04  1.9031E-04
 18  0.0000E+00  1.9435E-04  6.1882E-05  1.4765E-04  0.0000E+00  1.2255E-04  0.0000E+00  4.9812E-05  0.0000E+00
 19  0.0000E+00  5.3900E-04  0.0000E+00  1.9114E-04  6.1083E-04  4.7346E-05  1.5644E-04  0.0000E+00  0.0000E+00
 20  0.0000E+00  1.5545E-04  0.0000E+00  0.0000E+00  0.0000E+00  0.0000E+00  0.0000E+00  0.0000E+00  2.1683E-05
 21  0.0000E+00  3.7543E-04  0.0000E+00  2.9205E-04  0.0000E+00  0.0000E+00  0.0000E+00  0.0000E+00  0.0000E+00
 22  0.0000E+00  1.1576E-04  0.0000E+00  0.0000E+00  0.0000E+00  0.0000E+00  0.0000E+00  0.0000E+00  0.0000E+00
 23  0.0000E+00  2.5377E-04  0.0000E+00  0.0000E+00  0.0000E+00  0.0000E+00  0.0000E+00  0.0000E+00  0.0000E+00
 24  0.0000E+00  9.8603E-04  0.0000E+00  0.0000E+00  0.0000E+00  0.0000E+00  0.0000E+00  0.0000E+00  0.0000E+00
 25  0.0000E+00  2.2444E-03  0.0000E+00  0.0000E+00  0.0000E+00  0.0000E+00  0.0000E+00  0.0000E+00  0.0000E+00
 26  0.0000E+00  1.4555E-02  5.8031E-03  0.0000E+00  1.1341E-02  4.4628E-02  7.8034E-03  0.0000E+00  0.0000E+00
 27  0.0000E+00  8.1024E-02  0.0000E+00  0.0000E+00  3.1020E-01  0.0000E+00  9.0283E-02  0.0000E+00  0.0000E+00
 28  1.8402E+00  6.7398E-01  1.2621E+00  8.6547E-01  1.1900E+00  7.2025E-01  8.3628E-01  0.0000E+00  4.2279E-01
 29  9.7788E-04  2.2227E+00  1.6481E+00  2.3298E+00  9.3387E-01  1.4643E+00  1.7755E+00  2.3225E+00  2.6194E+00
 30  0.0000E+00  1.3564E+00  1.1605E+00  0.0000E+00  4.9378E-01  1.3875E+00  1.1182E+00  3.3986E+00  5.2138E-02
 31  0.0000E+00  4.0958E-04  0.0000E+00  0.0000E+00  0.0000E+00  0.0000E+00  4.6280E-04  0.0000E+00  4.1201E-04
 32  0.0000E+00  5.5579E-05  0.0000E+00  0.0000E+00  0.0000E+00  1.4262E-04  0.0000E+00  0.0000E+00  9.6713E-05
 33  9.1976E-04  2.6228E-04  2.2138E-04  8.4861E-04  9.2722E-04  1.4533E-05  9.3897E-04  7.6282E-04  8.2789E-05
 34  0.0000E+00  1.1040E-04  0.0000E+00  0.0000E+00  0.0000E+00  4.8047E-04  0.0000E+00  5.8463E-05  0.0000E+00
 35  0.0000E+00  1.0015E-04  0.0000E+00  0.0000E+00  0.0000E+00  0.0000E+00  0.0000E+00  0.0000E+00  0.0000E+00
 36  0.0000E+00  2.2778E-04  0.0000E+00  3.5873E-04  0.0000E+00  0.0000E+00  9.8620E-04  0.0000E+00  0.0000E+00
 37  0.0000E+00  2.9342E-04  0.0000E+00  0.0000E+00  0.0000E+00  2.2082E-03  0.0000E+00  0.0000E+00  0.0000E+00
 38  0.0000E+00  3.6306E-04  0.0000E+00  0.0000E+00  0.0000E+00  0.0000E+00  5.2995E-06  0.0000E+00  0.0000E+00
 39  0.0000E+00  1.9532E-03  3.9895E-03  0.0000E+00  0.0000E+00  0.0000E+00  0.0000E+00  0.0000E+00  0.0000E+00
 40  0.0000E+00  8.7687E-03  0.0000E+00  0.0000E+00  0.0000E+00  0.0000E+00  0.0000E+00  0.0000E+00  0.0000E+00
 41  0.0000E+00  3.2159E-02  1.5642E-02  0.0000E+00  3.3246E-02  0.0000E+00  0.0000E+00  0.0000E+00  0.0000E+00
 42  0.0000E+00  2.1316E-01  1.6095E-01  2.4467E-01  4.4597E-01  0.0000E+00  0.0000E+00  4.1047E-01  6.2637E-02
 43  0.0000E+00  2.4241E-01  2.6545E-02  0.0000E+00  3.5606E-01  0.0000E+00  0.0000E+00  0.0000E+00  0.0000E+00
 44  0.0000E+00  3.7169E-01  3.7717E-02  0.0000E+00  0.0000E+00  0.0000E+00  7.1221E-02  0.0000E+00  0.0000E+00
 45  0.0000E+00  2.8503E-01  1.8858E-01  0.0000E+00  0.0000E+00  0.0000E+00  0.0000E+00  0.0000E+00  0.0000E+00

# AV, chi2 & Mass for <> & i_chain = 1 ...  7 solutions
AV       0.6185      0.5935      0.6010      0.6035      0.6017      0.6080      0.6106      0.5984      0.6007
chi2 2.5908E+00  2.6429E+00  2.6166E+00  2.6170E+00  2.6202E+00  2.6150E+00  2.6140E+00  2.6235E+00  2.6180E+00
Mass 7.3569E-10  7.3219E-10  7.3505E-10  7.3262E-10  7.2436E-10  7.3255E-10  7.3611E-10  7.3923E-10  7.3043E-10
   5.98                                  [v0_min (km/s) before EX0s...]
  76.03                                  [vd_min (km/s) before EX0s...]


## Synthetic spectrum (Best Model) ##l_obs f_obs f_syn wei
 3070    [Nl_obs]
 3359.00    0.00000   0.44041   -2.000
 3360.00    0.22523   0.40385   -1.000
 3361.00    0.22510   0.39457   -1.000
 3362.00    0.24452   0.41728   -1.000
 3363.00    0.27387   0.45765   -1.000
 3364.00    0.30388   0.49255   -1.000
 3365.00    0.30649   0.50592   -1.000
 3366.00    0.31021   0.49406   -1.000
 3367.00    0.31151   0.46543   -1.000
 3368.00    0.31185   0.43674   -1.000
 3369.00    0.29816   0.41853   -1.000
 3370.00    0.28736   0.40962   -1.000
 3371.00    0.27431   0.40598   -1.000
 3372.00    0.29888   0.40910   -1.000
 3373.00    0.30974   0.42563   -1.000
 3374.00    0.30838   0.45755   -1.000
 3375.00    0.33263   0.49697   -1.000
 3376.00    0.35501   0.52521   -1.000
 3377.00    0.35583   0.52669   -1.000
 3378.00    0.36028   0.50433   -1.000
 3379.00    0.35151   0.47388   -1.000
 3380.00    0.35123   0.45277   -1.000
 3381.00    0.34465   0.45170   -1.000
 3382.00    0.34890   0.46834   -1.000
 3383.00    0.36488   0.48912   -1.000
 3384.00    0.36084   0.50553   -1.000
 3385.00    0.37055   0.51911   -1.000
 3386.00    0.37690   0.52883   -1.000
 3387.00    0.38928   0.53145   -1.000
 3388.00    0.38965   0.52884   -1.000
 3389.00    0.39721   0.52433   -1.000
 3390.00    0.40585   0.51796   -1.000
 3391.00    0.41242   0.50714   -1.000
 3392.00    0.41435   0.49214   -1.000
 3393.00    0.39959   0.48308   -1.000
 3394.00    0.42088   0.49094   -1.000
 3395.00    0.42484   0.51443   -1.000
 3396.00    0.44152   0.54395   -1.000
 3397.00    0.45469   0.57044   -1.000
 3398.00    0.47793   0.58643   -1.000
 3399.00    0.49257   0.58845   -1.000
 3400.00    0.48874   0.57985   -1.000
 3401.00    0.50638   0.56530   -1.000
 3402.00    0.48937   0.54747   -1.000
 3403.00    0.47122   0.53124   -1.000
 3404.00    0.45787   0.52112   -1.000
 3405.00    0.45839   0.51500   -1.000
 3406.00    0.45224   0.50800   -1.000
 3407.00    0.43751   0.50083   -1.000
 3408.00    0.44140   0.49848   -1.000
 3409.00    0.43073   0.50401   -1.000
 3410.00    0.43405   0.51279   -1.000
 3411.00    0.44399   0.51471   -1.000
 3412.00    0.46020   0.50543   -1.000
 3413.00    0.43640   0.49086   -1.000
 3414.00    0.43399   0.48212   -1.000
 3415.00    0.43080   0.48566   -1.000
 3416.00    0.43135   0.49987   -1.000
 3417.00    0.45214   0.51949   -1.000
 3418.00    0.48131   0.54117   -1.000
 3419.00    0.49563   0.56184   -1.000
 3420.00    0.49429   0.57553   -1.000
 3421.00    0.49879   0.57732   -1.000
 3422.00    0.49482   0.56908   -1.000
 3423.00    0.50544   0.55774   -1.000
 3424.00    0.49480   0.55077   -1.000
 3425.00    0.48971   0.55064   -1.000
 3426.00    0.49329   0.55577   -1.000
 3427.00    0.48659   0.56740   -1.000
 3428.00    0.51077   0.58714   -1.000
 3429.00    0.52209   0.60606   -1.000
 3430.00    0.53329   0.61094   -1.000
 3431.00    0.53941   0.59771   -1.000
 3432.00    0.51688   0.57527   -1.000
 3433.00    0.51506   0.55741   -1.000
 3434.00    0.50701   0.55291   -1.000
 3435.00    0.52422   0.55903   -1.000
 3436.00    0.52776   0.56341   -1.000
 3437.00    0.52410   0.55626   -1.000
 3438.00    0.49089   0.53418   -1.000
 3439.00    0.46869   0.49940   -1.000
 3440.00    0.44465   0.45930  215.909
 3441.00    0.41371   0.42858  224.593
 3442.00    0.41131   0.41848  224.953
 3443.00    0.43057   0.42654  223.991
 3444.00    0.43584   0.44344  215.070
 3445.00    0.44762   0.46370  203.277
 3446.00    0.47921   0.48907  192.020
 3447.00    0.50981   0.52072  185.353
 3448.00    0.52629   0.55205   -1.000
 3449.00    0.53726   0.57315   -1.000
 3450.00    0.54306   0.57777   -1.000
 3451.00    0.54903   0.56620   -1.000
 3452.00    0.53011   0.54699   -1.000
 3453.00    0.52705   0.53507   -1.000
 3454.00    0.54430   0.53776   -1.000
 3455.00    0.54526   0.54835  810.257
 3456.00    0.55698   0.55284   -1.000
 3457.00    0.55196   0.54258   -1.000
 3458.00    0.53810   0.52315   -1.000
 3459.00    0.52279   0.50360   -1.000
 3460.00    0.51112   0.48930   -1.000
 3461.00    0.51429   0.48821   -1.000
 3462.00    0.51610   0.50464   -1.000
 3463.00    0.53543   0.52732   -1.000
 3464.00    0.55639   0.54096   -1.000
 3465.00    0.55168   0.54215   -1.000
 3466.00    0.54774   0.53956   -1.000
 3467.00    0.55377   0.54409   -1.000
 3468.00    0.56191   0.55703   -1.000
 3469.00    0.57409   0.57130   -1.000
 3470.00    0.59231   0.57811   -1.000
 3471.00    0.59372   0.57223   -1.000
 3472.00    0.58316   0.55387   -1.000
 3473.00    0.54734   0.52641   -1.000
 3474.00    0.52510   0.49520   -1.000
 3475.00    0.50017   0.47209   -1.000
 3476.00    0.48580   0.46903   -1.000
 3477.00    0.48389   0.48651  184.836
 3478.00    0.51828   0.51410   -1.000
 3479.00    0.55094   0.53960   -1.000
 3480.00    0.57048   0.55489   -1.000
 3481.00    0.58390   0.55795   -1.000
 3482.00    0.57784   0.55139   -1.000
 3483.00    0.58455   0.54172   -1.000
 3484.00    0.57289   0.53826   -1.000
 3485.00    0.58345   0.54840   -1.000
 3486.00    0.59426   0.56792   -1.000
 3487.00    0.61167   0.57887   -1.000
 3488.00    0.60095   0.56866   -1.000
 3489.00    0.58992   0.54264   -1.000
 3490.00    0.55116   0.51827   -1.000
 3491.00    0.52293   0.50858   -1.000
 3492.00    0.53264   0.51222   -1.000
 3493.00    0.54053   0.51960   -1.000
 3494.00    0.55027   0.52157   -1.000
 3495.00    0.54382   0.51570   -1.000
 3496.00    0.52804   0.50919   -1.000
 3497.00    0.53169   0.51500   -1.000
 3498.00    0.55638   0.53652   -1.000
 3499.00    0.58159   0.56041   -1.000
 3500.00    0.61296   0.57523   -1.000
 3501.00    0.62533   0.58322   -1.000
 3502.00    0.63660   0.59035   -1.000
 3503.00    0.62649   0.59641   -1.000
 3504.00    0.62564   0.59520   -1.000
 3505.00    0.62053   0.58590   -1.000
 3506.00    0.60931   0.57588   -1.000
 3507.00    0.59378   0.57075   -1.000
 3508.00    0.60609   0.56816   -1.000
 3509.00    0.60444   0.56182   -1.000
 3510.00    0.59651   0.55059   -1.000
 3511.00    0.58780   0.53912   -1.000
 3512.00    0.57777   0.52820   -1.000
 3513.00    0.56086   0.51679   -1.000
 3514.00    0.55938   0.51368   -1.000
 3515.00    0.56036   0.52902   -1.000
 3516.00    0.58256   0.56036   -1.000
 3517.00    0.61895   0.59149   -1.000
 3518.00    0.62522   0.60462   -1.000
 3519.00    0.61713   0.59431   -1.000
 3520.00    0.59390   0.56780   -1.000
 3521.00    0.56376   0.53858   -1.000
 3522.00    0.54338   0.51332   -1.000
 3523.00    0.52993   0.49007   -1.000
 3524.00    0.51640   0.47105   -1.000
 3525.00    0.49122   0.46382   -1.000
 3526.00    0.49348   0.47527   -1.000
 3527.00    0.51643   0.50496   -1.000
 3528.00    0.54788   0.54119   -1.000
 3529.00    0.57652   0.56918   -1.000
 3530.00    0.59885   0.58213   -1.000
 3531.00    0.59894   0.58336   -1.000
 3532.00    0.58689   0.58237   -1.000
 3533.00    0.59119   0.58728  810.257
 3534.00    0.60347   0.59738   -1.000
 3535.00    0.61316   0.60609   -1.000
 3536.00    0.62250   0.61111   -1.000
 3537.00    0.62109   0.61687  810.257
 3538.00    0.61087   0.62672   -1.000
 3539.00    0.63115   0.63537   -1.000
 3540.00    0.63420   0.63464  810.257
 3541.00    0.61827   0.62816   -1.000
 3542.00    0.61618   0.62641   -1.000
 3543.00    0.62185   0.63175   -1.000
 3544.00    0.62066   0.63921   -1.000
 3545.00    0.62432   0.64163   -1.000
 3546.00    0.61949   0.63699   -1.000
 3547.00    0.60782   0.63013   -1.000
 3548.00    0.60152   0.62649   -1.000
 3549.00    0.61267   0.62742   -1.000
 3550.00    0.60795   0.62970   -1.000
 3551.00    0.59417   0.62788   -1.000
 3552.00    0.60312   0.61875   -1.000
 3553.00    0.58568   0.60651   -1.000
 3554.00    0.57101   0.59848   -1.000
 3555.00    0.56837   0.59818   -1.000
 3556.00    0.58038   0.60157   -1.000
 3557.00    0.58443   0.60096   -1.000
 3558.00    0.58301   0.59559   -1.000
 3559.00    0.59305   0.59263  810.257
 3560.00    0.58807   0.59931   -1.000
 3561.00    0.57362   0.61461   -1.000
 3562.00    0.59062   0.62575   -1.000
 3563.00    0.59399   0.61428   -1.000
 3564.00    0.55843   0.57455   -1.000
 3565.00    0.51690   0.52948  184.174
 3566.00    0.49283   0.50413  189.842
 3567.00    0.49545   0.49817  187.645
 3568.00    0.49899   0.49427  186.603
 3569.00    0.50068   0.48019   -1.000
 3570.00    0.47355   0.46608  196.559
 3571.00    0.47107   0.46882  190.380
 3572.00    0.49625   0.48680  181.845
 3573.00    0.51415   0.50669   -1.000
 3574.00    0.53122   0.51898   -1.000
 3575.00    0.53337   0.52418   -1.000
 3576.00    0.52842   0.52707  810.257
 3577.00    0.53921   0.52540   -1.000
 3578.00    0.52739   0.51211   -1.000
 3579.00    0.51212   0.48583   -1.000
 3580.00    0.47789   0.45524   -1.000
 3581.00    0.43954   0.43334  214.650
 3582.00    0.44120   0.42843   -1.000
 3583.00    0.45315   0.43474   -1.000
 3584.00    0.44324   0.43585  222.427
 3585.00    0.43010   0.42666  229.788
 3586.00    0.41434   0.41819  233.026
 3587.00    0.42096   0.42276  221.213
 3588.00    0.44072   0.44473  209.409
 3589.00    0.47258   0.47887  199.291
 3590.00    0.50767   0.51630  181.417
 3591.00    0.54364   0.54684  810.257
 3592.00    0.57349   0.56300   -1.000
 3593.00    0.57324   0.56775   -1.000
 3594.00    0.57115   0.57336  810.257
 3595.00    0.58300   0.58852   -1.000
 3596.00    0.60193   0.60916   -1.000
 3597.00    0.61285   0.62810   -1.000
 3598.00    0.63100   0.64285   -1.000
 3599.00    0.64277   0.65077   -1.000
 3600.00    0.64032   0.64643   -1.000
 3601.00    0.62417   0.62614   -1.000
 3602.00    0.60169   0.59465   -1.000
 3603.00    0.57922   0.56415   -1.000
 3604.00    0.56274   0.54592   -1.000
 3605.00    0.56365   0.54141   -1.000
 3606.00    0.56101   0.54086   -1.000
 3607.00    0.54758   0.53393   -1.000
 3608.00    0.53173   0.52005   -1.000
 3609.00    0.52001   0.51088   -1.000
 3610.00    0.52095   0.51762   -1.000
 3611.00    0.53642   0.53502  810.257
 3612.00    0.55224   0.55223  810.257
 3613.00    0.56615   0.56704  810.257
 3614.00    0.57690   0.58167   -1.000
 3615.00    0.59227   0.59243  810.257
 3616.00    0.59025   0.58401   -1.000
 3617.00    0.56244   0.54909   -1.000
 3618.00    0.52506   0.51074   -1.000
 3619.00    0.50701   0.49838  181.453
 3620.00    0.52096   0.51780   -1.000
 3621.00    0.56028   0.55310   -1.000
 3622.00    0.59989   0.58532  146.544
 3623.00    0.61071   0.60724  141.718
 3624.00    0.62887   0.62598  139.979
 3625.00    0.64005   0.65070  134.762
 3626.00    0.66093   0.67906  129.088
 3627.00    0.67836   0.69895  127.206
 3628.00    0.66433   0.69354   -1.000
 3629.00    0.63960   0.65455  137.608
 3630.00    0.59336   0.59743  154.173
 3631.00    0.54211   0.55119  167.064
 3632.00    0.52897   0.53527  168.989
 3633.00    0.53870   0.54575  163.711
 3634.00    0.55014   0.56504  157.896
 3635.00    0.57053   0.58054  154.268
 3636.00    0.59351   0.59323  148.461
 3637.00    0.61456   0.61144  141.438
 3638.00    0.64132   0.63672  135.064
 3639.00    0.65466   0.66133  130.542
 3640.00    0.66676   0.67307  130.413
 3641.00    0.65713   0.66533  133.733
 3642.00    0.63227   0.64219  138.269
 3643.00    0.61087   0.61443  145.837
 3644.00    0.59197   0.59224  150.082
 3645.00    0.57604   0.57726  152.638
 3646.00    0.57216   0.56484  154.967
 3647.00    0.55819   0.55564  157.829
 3648.00    0.55797   0.55457  157.939
 3649.00    0.56519   0.56393  153.603
 3650.00    0.58970   0.58352  147.370
 3651.00    0.61192   0.61095  140.205
 3652.00    0.63943   0.63976  134.322
 3653.00    0.65911   0.66308  131.035
 3654.00    0.66869   0.67765  129.221
 3655.00    0.66677   0.68702   -1.000
 3656.00    0.68246   0.69741  127.293
 3657.00    0.69695   0.70851  125.979
 3658.00    0.69413   0.71651   -1.000
 3659.00    0.70437   0.72054  123.968
 3660.00    0.68979   0.71992   -1.000
 3661.00    0.68357   0.71289   -1.000
 3662.00    0.68906   0.70035  126.692
 3663.00    0.67181   0.68669  128.883
 3664.00    0.66334   0.67816  129.855
 3665.00    0.67665   0.67673  128.245
 3666.00    0.68786   0.67734  128.344
 3667.00    0.67710   0.67256  131.096
 3668.00    0.65228   0.66091  132.521
 3669.00    0.64186   0.65217  135.841
 3670.00    0.64351   0.65651  134.927
 3671.00    0.67424   0.67298  129.797
 3672.00    0.68536   0.69071  127.210
 3673.00    0.69344   0.69960  126.781
 3674.00    0.68538   0.69674  126.755
 3675.00    0.68707   0.68305  127.051
 3676.00    0.67459   0.66211  131.047
 3677.00    0.64815   0.63914  135.131
 3678.00    0.63639   0.61915  139.230
 3679.00    0.62855   0.60678  142.772
 3680.00    0.60491   0.60420  142.342
 3681.00    0.62584   0.61162  138.573
 3682.00    0.65136   0.62522   -1.000
 3683.00    0.65838   0.63568  133.331
 3684.00    0.65672   0.63223   -1.000
 3685.00    0.63390   0.61168  142.298
 3686.00    0.60167   0.58634  148.160
 3687.00    0.58866   0.57396  150.789
 3688.00    0.61742   0.58449   -1.000
 3689.00    0.63887   0.61507   -1.000
 3690.00    0.66847   0.65245  127.635
 3691.00    0.70263   0.67878  123.812
 3692.00    0.70449   0.68543  124.804
 3693.00    0.68626   0.67881  128.316
 3694.00    0.67889   0.66952  130.052
 3695.00    0.68980   0.66395  129.456
 3696.00    0.68747   0.66558  128.294
 3697.00    0.69093   0.67731  126.718
 3698.00    0.70773   0.69836  122.517
 3699.00    0.73171   0.72072  119.417
 3700.00    0.74096   0.73178  117.836
 3701.00    0.73411   0.71998  120.141
 3702.00    0.70062   0.68213  125.723
 3703.00    0.66664   0.62922   -1.000
 3704.00    0.62120   0.57848   -1.000
 3705.00    0.56752   0.54593   -1.000
 3706.00    0.56086   0.53689   -1.000
 3707.00    0.57310   0.54334   -1.000
 3708.00    0.57940   0.55548   -1.000
 3709.00    0.59656   0.57030   -1.000
 3710.00    0.62555   0.59008   -1.000
 3711.00    0.65592   0.61861   -1.000
 3712.00    0.68539   0.65588   -1.000
 3713.00    0.71659   0.69329  120.088
 3714.00    0.74602   0.71997  117.153
 3715.00    0.75604   0.72828  116.807
 3716.00    0.74306   0.71509   -1.000
 3717.00    0.71727   0.68120   -1.000
 3718.00    0.66858   0.62721   -1.000
 3719.00    0.58578   0.55883   -1.000
 3720.00    0.52766   0.49996   -1.000
 3721.00    0.51237   0.47534   18.517
 3722.00    0.53300   0.49154   -1.000
 3723.00    0.58094   0.53797   -1.000
 3724.00    0.64404   0.59210   -1.000
 3725.00    0.68632   0.62849   -1.000
 3726.00    0.68782   0.63924   -1.000
 3727.00    0.66034   0.63821   -1.000
 3728.00    0.64692   0.63924  136.851
 3729.00    0.66708   0.64142   -1.000
 3730.00    0.65523   0.63287   -1.000
 3731.00    0.63921   0.60218   -1.000
 3732.00    0.59033   0.55075   -1.000
 3733.00    0.53324   0.49117   18.176
 3734.00    0.46714   0.44029   20.158
 3735.00    0.45079   0.41523   20.918
 3736.00    0.46231   0.42494   19.873
 3737.00    0.49814   0.46636   17.999
 3738.00    0.55114   0.52854   -1.000
 3739.00    0.60826   0.59186   -1.000
 3740.00    0.65838   0.63532   -1.000
 3741.00    0.67432   0.64869   -1.000
 3742.00    0.66247   0.63384   -1.000
 3743.00    0.62779   0.60032   -1.000
 3744.00    0.58970   0.56300   -1.000
 3745.00    0.55630   0.53158   -1.000
 3746.00    0.53477   0.50447   -1.000
 3747.00    0.52428   0.47589   18.440
 3748.00    0.48181   0.44731   19.428
 3749.00    0.46524   0.43577   19.640
 3750.00    0.50245   0.45773   -1.000
 3751.00    0.57084   0.51062   -1.000
 3752.00    0.63236   0.57716   -1.000
 3753.00    0.67583   0.64017   -1.000
 3754.00    0.72081   0.68463   -1.000
 3755.00    0.73973   0.69840   -1.000
 3756.00    0.72127   0.67702   -1.000
 3757.00    0.66047   0.63172   -1.000
 3758.00    0.58793   0.58727  159.966
 3759.00    0.57934   0.56677  159.215
 3760.00    0.59983   0.57325   -1.000
 3761.00    0.63603   0.59104   -1.000
 3762.00    0.64697   0.60641   -1.000
 3763.00    0.65325   0.61594   -1.000
 3764.00    0.65462   0.61934   -1.000
 3765.00    0.65852   0.61568   -1.000
 3766.00    0.64448   0.60699   -1.000
 3767.00    0.64749   0.59763   -1.000
 3768.00    0.65237   0.58973   -1.000
 3769.00    0.64290   0.58345   -1.000
 3770.00    0.64125   0.58165   -1.000
 3771.00    0.65686   0.59278   -1.000
 3772.00    0.69508   0.61964   -1.000
 3773.00    0.71203   0.65043   -1.000
 3774.00    0.71973   0.67270   -1.000
 3775.00    0.72177   0.68596   -1.000
 3776.00    0.71501   0.69604  124.329
 3777.00    0.72468   0.70854  123.985
 3778.00    0.74082   0.72502  122.233
 3779.00    0.75404   0.74336  118.081
 3780.00    0.77223   0.76032  115.341
 3781.00    0.78303   0.77292  114.584
 3782.00    0.78367   0.77999  113.888
 3783.00    0.77891   0.77900  113.962
 3784.00    0.76651   0.76405  116.637
 3785.00    0.74979   0.73296  122.930
 3786.00    0.71095   0.69395  132.269
 3787.00    0.66743   0.65973  138.841
 3788.00    0.64996   0.63928  141.369
 3789.00    0.64834   0.63375  141.239
 3790.00    0.65047   0.63741  138.680
 3791.00    0.65638   0.64033  137.271
 3792.00    0.65874   0.63326   -1.000
 3793.00    0.64645   0.61490   -1.000
 3794.00    0.62761   0.59049   -1.000
 3795.00    0.60872   0.56522   -1.000
 3796.00    0.58465   0.53847   -1.000
 3797.00    0.55945   0.51069   -1.000
 3798.00    0.54643   0.49761   -1.000
 3799.00    0.57467   0.51671   -1.000
 3800.00    0.61775   0.56491   -1.000
 3801.00    0.65314   0.62498   -1.000
 3802.00    0.69831   0.67734  130.289
 3803.00    0.73108   0.70947  127.434
 3804.00    0.74190   0.71915   -1.000
 3805.00    0.71930   0.70975  128.725
 3806.00    0.69437   0.69270  133.698
 3807.00    0.68431   0.68692  136.279
 3808.00    0.68962   0.70122  132.632
 3809.00    0.71089   0.72533  127.427
 3810.00    0.73460   0.74007  126.048
 3811.00    0.73688   0.73285  128.579
 3812.00    0.70501   0.70429  135.635
 3813.00    0.65849   0.66313  144.108
 3814.00    0.62716   0.62364  152.754
 3815.00    0.59643   0.60139  159.689
 3816.00    0.59374   0.60118  156.785
 3817.00    0.62779   0.60913   -1.000
 3818.00    0.62385   0.60597   -1.000
 3819.00    0.59041   0.58555  164.409
 3820.00    0.55312   0.56248  172.934
 3821.00    0.55665   0.55594  168.759
 3822.00    0.58346   0.56302   -1.000
 3823.00    0.58912   0.56392   -1.000
 3824.00    0.56150   0.54746   -1.000
 3825.00    0.52137   0.52124   19.065
 3826.00    0.51063   0.50009   19.265
 3827.00    0.50962   0.49115   19.093
 3828.00    0.51403   0.49149   18.782
 3829.00    0.52937   0.49270   18.472
 3830.00    0.53139   0.48749   18.710
 3831.00    0.49917   0.47212   19.576
 3832.00    0.46298   0.44803   21.165
 3833.00    0.43580   0.42189   21.800
 3834.00    0.45028   0.40494   21.357
 3835.00    0.46301   0.40298   20.483
 3836.00    0.47228   0.41027   20.040
 3837.00    0.46742   0.41730   20.481
 3838.00    0.45720   0.42238   20.979
 3839.00    0.46371   0.43418   20.594
 3840.00    0.48990   0.46315   19.403
 3841.00    0.53118   0.50976   -1.000
 3842.00    0.58288   0.56450   -1.000
 3843.00    0.62876   0.61342   -1.000
 3844.00    0.64749   0.64598  146.279
 3845.00    0.65864   0.66400  146.308
 3846.00    0.65567   0.67595  146.221
 3847.00    0.66349   0.68459  146.505
 3848.00    0.65536   0.68580   -1.000
 3849.00    0.63219   0.68068   -1.000
 3850.00    0.61855   0.67736   -1.000
 3851.00    0.63021   0.68214   -1.000
 3852.00    0.65433   0.69237   -1.000
 3853.00    0.65701   0.69645   -1.000
 3854.00    0.64508   0.68621   -1.000
 3855.00    0.62396   0.66581   -1.000
 3856.00    0.60724   0.64172   -1.000
 3857.00    0.58885   0.61533   -1.000
 3858.00    0.56094   0.58931   18.057
 3859.00    0.52441   0.57367   18.997
 3860.00    0.52429   0.58086   18.557
 3861.00    0.56665   0.61251   -1.000
 3862.00    0.63995   0.65540  149.329
 3863.00    0.67912   0.68746  142.668
 3864.00    0.67651   0.69866  143.729
 3865.00    0.67154   0.69690   -1.000
 3866.00    0.66433   0.69234   -1.000
 3867.00    0.65179   0.68947   -1.000
 3868.00    0.63611   0.68560   -1.000
 3869.00    0.61690   0.67311   -1.000
 3870.00    0.58753   0.64876   -1.000
 3871.00    0.55685   0.61960   18.291
 3872.00    0.54810   0.60096   -1.000
 3873.00    0.58000   0.60561   -1.000
 3874.00    0.62741   0.63203  144.535
 3875.00    0.66163   0.65808  139.176
 3876.00    0.65688   0.66145  143.694
 3877.00    0.61678   0.64301   -1.000
 3878.00    0.58264   0.62172   -1.000
 3879.00    0.58246   0.61265   -1.000
 3880.00    0.59767   0.61539  167.509
 3881.00    0.58451   0.62078   -1.000
 3882.00    0.57518   0.62263   -1.000
 3883.00    0.60221   0.61982  152.348
 3884.00    0.63258   0.60888   -1.000
 3885.00    0.62684   0.58407   -1.000
 3886.00    0.60535   0.54758   -1.000
 3887.00    0.58116   0.51511   -1.000
 3888.00    0.57569   0.50219   -1.000
 3889.00    0.58903   0.51650   -1.000
 3890.00    0.62568   0.55523   -1.000
 3891.00    0.68235   0.60434   -1.000
 3892.00    0.72496   0.64181   -1.000
 3893.00    0.73134   0.65647   -1.000
 3894.00    0.71794   0.65745   -1.000
 3895.00    0.71469   0.66082   -1.000
 3896.00    0.72870   0.67294   -1.000
 3897.00    0.74659   0.68612   -1.000
 3898.00    0.74464   0.69235   -1.000
 3899.00    0.72974   0.69413   -1.000
 3900.00    0.72899   0.69803   -1.000
 3901.00    0.74066   0.70359   -1.000
 3902.00    0.74438   0.70378   -1.000
 3903.00    0.72571   0.69380   -1.000
 3904.00    0.70205   0.67833   -1.000
 3905.00    0.67934   0.66911  131.520
 3906.00    0.67110   0.67566  130.346
 3907.00    0.71216   0.69990  122.584
 3908.00    0.75326   0.73439  114.279
 3909.00    0.77702   0.76485  111.630
 3910.00    0.79600   0.78443  110.650
 3911.00    0.81093   0.79597  109.590
 3912.00    0.80951   0.80089  108.948
 3913.00    0.79831   0.79824  110.272
 3914.00    0.77705   0.78948  112.588
 3915.00    0.75903   0.77762  115.251
 3916.00    0.75490   0.76507  116.693
 3917.00    0.74900   0.75045  118.256
 3918.00    0.73383   0.73039  121.761
 3919.00    0.70438   0.70561  127.205
 3920.00    0.67318   0.68179  133.323
 3921.00    0.65088   0.66789  136.007
 3922.00    0.65874   0.66789  134.715
 3923.00    0.66663   0.67451  132.195
 3924.00    0.67287   0.67399  133.298
 3925.00    0.63874   0.65665  140.088
 3926.00    0.59536   0.62059   -1.000
 3927.00    0.52774   0.56853   -1.000
 3928.00    0.45429   0.50749   20.190
 3929.00    0.39128   0.44403   23.379
 3930.00    0.33332   0.38044   27.350
 3931.00    0.28381   0.32125   32.374
 3932.00    0.24676   0.27247   37.868
 3933.00    0.22223   0.24301   41.360
 3934.00    0.22366   0.24229   39.613
 3935.00    0.25699   0.27179   34.361
 3936.00    0.30698   0.32387   28.404
 3937.00    0.36768   0.38956   23.321
 3938.00    0.43237   0.45816   19.604
 3939.00    0.49588   0.52005  158.185
 3940.00    0.54149   0.56913  160.654
 3941.00    0.57638   0.60103  154.604
 3942.00    0.59302   0.61739  153.227
 3943.00    0.59757   0.62576   -1.000
 3944.00    0.61161   0.63695   -1.000
 3945.00    0.65627   0.65788  131.952
 3946.00    0.70398   0.68320   -1.000
 3947.00    0.71716   0.70316  123.051
 3948.00    0.71268   0.71734  122.165
 3949.00    0.73218   0.73107  117.619
 3950.00    0.75596   0.74369  113.773
 3951.00    0.76005   0.75064  114.346
 3952.00    0.75730   0.75359  116.057
 3953.00    0.76219   0.75814  113.956
 3954.00    0.78193   0.76320  111.079
 3955.00    0.78879   0.76109   -1.000
 3956.00    0.76218   0.75131  116.526
 3957.00    0.74601   0.74224  118.396
 3958.00    0.75104   0.73500  116.242
 3959.00    0.74703   0.71780   -1.000
 3960.00    0.70562   0.68035   -1.000
 3961.00    0.63346   0.62760  149.159
 3962.00    0.56649   0.57628  165.024
 3963.00    0.52087   0.53480  173.084
 3964.00    0.47316   0.49497   18.996
 3965.00    0.41838   0.44339   22.031
 3966.00    0.35553   0.37631   27.195
 3967.00    0.29126   0.31095   33.271
 3968.00    0.25364   0.27023   36.745
 3969.00    0.25469   0.26570   34.102
 3970.00    0.30177   0.29664   28.097
 3971.00    0.36784   0.35358   23.081
 3972.00    0.44013   0.42251   19.309
 3973.00    0.51147   0.49445   -1.000
 3974.00    0.57410   0.56446  147.106
 3975.00    0.64856   0.62834   -1.000
 3976.00    0.70482   0.68478  122.166
 3977.00    0.74179   0.73374  114.994
 3978.00    0.78922   0.77676  108.969
 3979.00    0.83306   0.81055  103.087
 3980.00    0.85266   0.82884  101.910
 3981.00    0.84585   0.83169  102.652
 3982.00    0.82629   0.82777  104.674
 3983.00    0.82502   0.82828  103.876
 3984.00    0.85097   0.83746  101.682
 3985.00    0.87644   0.85115   99.676
 3986.00    0.88501   0.86552   98.071
 3987.00    0.89478   0.88005   96.180
 3988.00    0.90630   0.89349   95.269
 3989.00    0.90708   0.90399   95.645
 3990.00    0.91638   0.91246   95.022
 3991.00    0.92187   0.92228   92.782
 3992.00    0.94002   0.93309   90.519
 3993.00    0.95774   0.93818   91.671
 3994.00    0.94264   0.93133   93.918
 3995.00    0.91516   0.91418   96.081
 3996.00    0.89285   0.89587   97.920
 3997.00    0.88359   0.88707   98.725
 3998.00    0.89261   0.89318   96.443
 3999.00    0.92439   0.91174   91.948
 4000.00    0.96359   0.93647   88.850
 4001.00    0.98401   0.95748   87.459
 4002.00    0.99790   0.96404   86.210
 4003.00    0.99384   0.94982   -1.000
 4004.00    0.93845   0.91791   94.091
 4005.00    0.88457   0.88463   98.941
 4006.00    0.88788   0.87366   98.075
 4007.00    0.92574   0.89256   92.282
 4008.00    0.96662   0.92664   -1.000
 4009.00    0.98845   0.95695   87.534
 4010.00    0.99430   0.97489   86.590
 4011.00    1.00661   0.98253   86.313
 4012.00    0.99165   0.98550   86.955
 4013.00    0.99749   0.98774   87.426
 4014.00    1.00762   0.98981   86.750
 4015.00    1.00823   0.99019   85.497
 4016.00    1.00336   0.98831   86.278
 4017.00    0.99887   0.98692   87.359
 4018.00    0.99797   0.99013   86.910
 4019.00    1.00741   0.99695   85.535
 4020.00    1.02213   1.00298   85.771
 4021.00    1.00337   1.00505   87.061
 4022.00    1.00239   1.00362   87.557
 4023.00    0.99327   1.00006   88.132
 4024.00    0.98370   0.99679   88.827
 4025.00    0.99946   1.00002   86.563
 4026.00    1.02810   1.01306   83.441
 4027.00    1.05842   1.02778   81.775
 4028.00    1.06020   1.02663   82.564
 4029.00    1.02548   1.00037   86.047
 4030.00    0.97379   0.95819   92.038
 4031.00    0.91424   0.91772   95.876
 4032.00    0.91243   0.89392   96.975
 4033.00    0.91593   0.89239   95.695
 4034.00    0.94450   0.91149   92.520
 4035.00    0.97582   0.94674   87.897
 4036.00    1.02415   0.99228   83.556
 4037.00    1.05727   1.03580   80.636
 4038.00    1.07316   1.06036   80.379
 4039.00    1.06677   1.05992   82.139
 4040.00    1.02925   1.04611   84.115
 4041.00    1.03177   1.03069   85.010
 4042.00    1.03458   1.01012   85.410
 4043.00    0.99972   0.97187   89.633
 4044.00    0.91332   0.91621   98.562
 4045.00    0.84455   0.87101   -1.000
 4046.00    0.85846   0.86483  101.609
 4047.00    0.92688   0.89990   91.581
 4048.00    1.00000   0.95591   -1.000
 4049.00    1.03706   1.00668   83.665
 4050.00    1.04173   1.03648   82.724
 4051.00    1.04068   1.04352   83.327
 4052.00    1.02862   1.03338   85.669
 4053.00    1.00762   1.01481   87.891
 4054.00    0.98227   0.99770   89.239
 4055.00    0.97958   0.98551   89.936
 4056.00    0.97304   0.97595   90.542
 4057.00    0.96599   0.97110   91.503
 4058.00    0.96844   0.97667   90.381
 4059.00    0.98913   0.99215   87.038
 4060.00    1.02325   1.00380   85.339
 4061.00    1.02445   0.99261   86.876
 4062.00    0.96791   0.95632   93.403
 4063.00    0.89756   0.91390   99.901
 4064.00    0.89600   0.88984   98.188
 4065.00    0.92191   0.89312   93.251
 4066.00    0.96120   0.91515   -1.000
 4067.00    0.97835   0.94395   88.555
 4068.00    1.00611   0.96952   85.677
 4069.00    1.04521   0.98007   -1.000
 4070.00    1.01757   0.96910   -1.000
 4071.00    0.96226   0.94731   92.149
 4072.00    0.95864   0.93529   91.394
 4073.00    0.97897   0.94057   87.950
 4074.00    0.99684   0.94772   -1.000
 4075.00    0.96621   0.93839   91.905
 4076.00    0.90472   0.91383   99.891
 4077.00    0.84224   0.89253   -1.000
 4078.00    0.85296   0.89406   -1.000
 4079.00    0.92118   0.92297   92.370
 4080.00    0.98888   0.96555   85.990
 4081.00    1.03441   0.99711   83.441
 4082.00    1.03009   1.00298   84.940
 4083.00    1.00319   0.98988   87.909
 4084.00    0.97820   0.97764   89.223
 4085.00    0.97899   0.98283   87.837
 4086.00    1.00665   1.00691   84.819
 4087.00    1.06339   1.03896   81.540
 4088.00    1.09082   1.06356   78.922
 4089.00    1.10664   1.07109   79.343
 4090.00    1.09008   1.06328   81.026
 4091.00    1.06704   1.04974   82.540
 4092.00    1.05794   1.03815   83.459
 4093.00    1.05746   1.02740   83.513
 4094.00    1.04435   1.01194   85.090
 4095.00    1.01000   0.98858   89.085
 4096.00    0.97878   0.96054   92.049
 4097.00    0.95968   0.93134   92.662
 4098.00    0.94422   0.89766   -1.000
 4099.00    0.90910   0.85262   -1.000
 4100.00    0.84652   0.79835   -1.000
 4101.00    0.78610   0.75547  116.461
 4102.00    0.77292   0.74775  113.846
 4103.00    0.83086   0.78125   -1.000
 4104.00    0.90338   0.84126   -1.000
 4105.00    0.97439   0.90124   -1.000
 4106.00    0.99540   0.94333   -1.000
 4107.00    1.00383   0.96686   87.716
 4108.00    0.99858   0.97655   88.586
 4109.00    0.98830   0.97849   90.351
 4110.00    0.97492   0.98066   91.682
 4111.00    0.97641   0.98742   90.484
 4112.00    0.99865   0.99926   88.407
 4113.00    1.02078   1.01516   86.898
 4114.00    1.03854   1.03289   85.565
 4115.00    1.06205   1.04648   84.739
 4116.00    1.05717   1.04993   85.188
 4117.00    1.04814   1.04269   87.047
 4118.00    1.01191   1.03005   90.039
 4119.00    0.99686   1.01935   91.050
 4120.00    1.00147   1.01597   89.856
 4121.00    1.00431   1.01940   88.928
 4122.00    1.00558   1.02536   89.045
 4123.00    1.00529   1.03226   -1.000
 4124.00    1.02199   1.04029   86.475
 4125.00    1.04132   1.04640   86.212
 4126.00    1.03928   1.04559   87.415
 4127.00    1.02404   1.03801   89.333
 4128.00    1.00582   1.02914   90.044
 4129.00    0.99378   1.02095   -1.000
 4130.00    0.98675   1.00767   91.652
 4131.00    0.97177   0.98565   94.604
 4132.00    0.94788   0.96317   97.603
 4133.00    0.92746   0.95466   -1.000
 4134.00    0.94465   0.96869   94.492
 4135.00    0.98822   1.00091   89.655
 4136.00    1.03464   1.03908   86.771
 4137.00    1.05475   1.07145   85.404
 4138.00    1.06169   1.09270   -1.000
 4139.00    1.06925   1.09929   -1.000
 4140.00    1.06624   1.08513   85.533
 4141.00    1.02873   1.04916   90.135
 4142.00    0.95874   1.00344   -1.000
 4143.00    0.91298   0.96837   -1.000
 4144.00    0.91360   0.96252   -1.000
 4145.00    0.96980   0.98645   92.984
 4146.00    1.01367   1.01980   89.560
 4147.00    1.02755   1.04181   88.684
 4148.00    1.01695   1.04772   -1.000
 4149.00    1.00148   1.04696   -1.000
 4150.00    0.98866   1.04810   -1.000
 4151.00    0.98190   1.04884   -1.000
 4152.00    0.99362   1.04248   -1.000
 4153.00    0.98853   1.02811   -1.000
 4154.00    0.96997   1.01405   -1.000
 4155.00    0.96255   1.01023   -1.000
 4156.00    1.01336   1.01896   92.115
 4157.00    1.21566   1.03583   -1.000
 4158.00    1.08955   1.05600   89.169
 4159.00    0.84257   1.07549   -1.000
 4160.00    0.93949   1.09130   -1.000
 4161.00    1.06478   1.10322   -1.000
 4162.00    1.06057   1.11271   -1.000
 4163.00    1.06497   1.11916   -1.000
 4164.00    1.05882   1.11849   -1.000
 4165.00    1.04144   1.10710   -1.000
 4166.00    1.02678   1.08853   -1.000
 4167.00    1.00351   1.07232   -1.000
 4168.00    1.00732   1.06421   -1.000
 4169.00    1.02265   1.05874   -1.000
 4170.00    1.01609   1.04366   -1.000
 4171.00    0.97793   1.01491   -1.000
 4172.00    0.92664   0.98319   -1.000
 4173.00    0.89991   0.96745   -1.000
 4174.00    0.91259   0.97633   -1.000
 4175.00    0.95277   0.99917   -1.000
 4176.00    0.97024   1.02024   -1.000
 4177.00    0.96602   1.03565   -1.000
 4178.00    0.96765   1.05000   -1.000
 4179.00    0.99682   1.06252   -1.000
 4180.00    1.01139   1.06588   -1.000
 4181.00    0.99228   1.05864   -1.000
 4182.00    0.99111   1.05065   -1.000
 4183.00    1.00346   1.05122   -1.000
 4184.00    1.01698   1.05680   -1.000
 4185.00    1.02626   1.05553   -1.000
 4186.00    0.99963   1.04310   -1.000
 4187.00    0.96482   1.02807   -1.000
 4188.00    0.96429   1.02200   -1.000
 4189.00    0.99075   1.02854   -1.000
 4190.00    1.00009   1.04289   -1.000
 4191.00    1.00726   1.06005   -1.000
 4192.00    1.02654   1.07686   -1.000
 4193.00    1.05495   1.08716   -1.000
 4194.00    1.03981   1.08307   -1.000
 4195.00    1.00564   1.06238   -1.000
 4196.00    0.97020   1.03173   -1.000
 4197.00    0.94603   1.00217   -1.000
 4198.00    0.93516   0.98076   -1.000
 4199.00    0.93854   0.96870   -1.000
 4200.00    0.95224   0.96584   96.352
 4201.00    0.95790   0.97097   96.134
 4202.00    0.96157   0.98210   95.501
 4203.00    0.97113   0.99933   -1.000
 4204.00    0.98442   1.02280   -1.000
 4205.00    0.99637   1.04926   -1.000
 4206.00    1.02470   1.07399   -1.000
 4207.00    1.03529   1.09271   -1.000
 4208.00    1.04858   1.10228   -1.000
 4209.00    1.04748   1.10357   -1.000
 4210.00    1.05247   1.10243   -1.000
 4211.00    1.05354   1.10437   -1.000
 4212.00    1.05118   1.10605   -1.000
 4213.00    1.04220   1.09744   -1.000
 4214.00    1.00509   1.07558   -1.000
 4215.00    0.96119   1.05068   -1.000
 4216.00    0.96061   1.03755   -1.000
 4217.00    1.00272   1.04528   -1.000
 4218.00    1.06103   1.07037   83.484
 4219.00    1.09451   1.09767   81.202
 4220.00    1.10702   1.11243   80.371
 4221.00    1.11976   1.10594   81.152
 4222.00    1.07748   1.07334   84.605
 4223.00    1.01991   1.01462   90.659
 4224.00    0.95616   0.93957   99.765
 4225.00    0.84329   0.86805   -1.000
 4226.00    0.75575   0.82643   -1.000
 4227.00    0.77892   0.83569   -1.000
 4228.00    0.88493   0.89279   98.591
 4229.00    1.00357   0.96518   -1.000
 4230.00    1.06308   1.01915   -1.000
 4231.00    1.08031   1.04350   83.568
 4232.00    1.05757   1.04484   85.549
 4233.00    1.04336   1.03513   87.820
 4234.00    1.03084   1.02233   88.633
 4235.00    1.01020   1.01021   90.775
 4236.00    0.98739   1.00259   92.406
 4237.00    0.97977   1.00401   91.636
 4238.00    0.99680   1.01626   89.427
 4239.00    1.01310   1.03520   88.192
 4240.00    1.03052   1.05410   86.467
 4241.00    1.05561   1.06922   85.322
 4242.00    1.06654   1.08137   84.980
 4243.00    1.07422   1.09319   83.472
 4244.00    1.08839   1.10313   81.692
 4245.00    1.09561   1.10303   82.648
 4246.00    1.06937   1.08542   86.611
 4247.00    1.02062   1.05432   -1.000
 4248.00    0.99584   1.02458   -1.000
 4249.00    0.98352   1.00950   -1.000
 4250.00    0.98802   1.01203   92.783
 4251.00    1.00432   1.02404   90.002
 4252.00    1.05046   1.03265   87.463
 4253.00    1.05065   1.02925   88.078
 4254.00    1.00846   1.01928   90.581
 4255.00    0.99917   1.01942   89.269
 4256.00    1.04841   1.03440   85.667
 4257.00    1.07154   1.04758   85.070
 4258.00    1.05001   1.04021   88.515
 4259.00    0.99942   1.01464   93.505
 4260.00    0.96007   0.99532   -1.000
 4261.00    0.97187   1.00405   -1.000
 4262.00    1.02857   1.03966   86.184
 4263.00    1.08444   1.08213   82.150
 4264.00    1.11406   1.11260   80.302
 4265.00    1.12546   1.12445   80.169
 4266.00    1.12327   1.12003   81.546
 4267.00    1.08884   1.10318   84.327
 4268.00    1.05630   1.07429   86.879
 4269.00    1.03254   1.03355   90.261
 4270.00    0.97512   0.98671   96.355
 4271.00    0.91858   0.94477   -1.000
 4272.00    0.90537   0.91948  103.188
 4273.00    0.91121   0.91701  100.741
 4274.00    0.92777   0.93519   98.198
 4275.00    0.95876   0.96959   93.715
 4276.00    1.01402   1.01493   87.533
 4277.00    1.07139   1.05762   83.521
 4278.00    1.09354   1.08008   83.615
 4279.00    1.05876   1.07706   87.537
 4280.00    1.01621   1.06131   -1.000
 4281.00    1.01007   1.04999   -1.000
 4282.00    1.01890   1.04829   -1.000
 4283.00    1.03766   1.04784   88.539
 4284.00    1.02886   1.03987   89.765
 4285.00    0.99075   1.02520   -1.000
 4286.00    0.96021   1.00743   -1.000
 4287.00    0.94214   0.98628   -1.000
 4288.00    0.92661   0.95964   -1.000
 4289.00    0.89069   0.93192   -1.000
 4290.00    0.87349   0.91842   -1.000
 4291.00    0.90737   0.93034   99.527
 4292.00    0.96078   0.95966   93.109
 4293.00    0.99901   0.98649   91.504
 4294.00    1.00790   0.99507   92.456
 4295.00    0.98103   0.98270   94.015
 4296.00    0.95140   0.95454   96.194
 4297.00    0.91668   0.91456  101.198
 4298.00    0.85455   0.86679  110.197
 4299.00    0.78131   0.82189   -1.000
 4300.00    0.75401   0.79275   -1.000
 4301.00    0.77031   0.78365  115.815
 4302.00    0.78511   0.78976  114.128
 4303.00    0.80227   0.80342  112.391
 4304.00    0.81105   0.81662  111.045
 4305.00    0.82232   0.81969  111.598
 4306.00    0.81583   0.80614  115.638
 4307.00    0.77490   0.78080  122.018
 4308.00    0.74396   0.75933  124.918
 4309.00    0.74340   0.75817  122.204
 4310.00    0.77120   0.78251  115.429
 4311.00    0.81485   0.82482  107.817
 4312.00    0.86486   0.87754  102.429
 4313.00    0.90752   0.93984   -1.000
 4314.00    0.96239   1.01138   -1.000
 4315.00    1.04516   1.08722   -1.000
 4316.00    1.13898   1.15592   78.053
 4317.00    1.20436   1.20394   75.430
 4318.00    1.21303   1.22476   75.535
 4319.00    1.19632   1.22148   76.774
 4320.00    1.17772   1.19976   78.545
 4321.00    1.14473   1.15927   81.259
 4322.00    1.09051   1.09891   85.336
 4323.00    1.02093   1.02832   91.769
 4324.00    0.94052   0.96929   -1.000
 4325.00    0.88811   0.94509   -1.000
 4326.00    0.92314   0.96708   -1.000
 4327.00    1.02680   1.02590   86.370
 4328.00    1.11705   1.09319   80.294
 4329.00    1.15729   1.14227   78.938
 4330.00    1.15505   1.16702   79.362
 4331.00    1.16131   1.17771   78.880
 4332.00    1.16640   1.18566   77.445
 4333.00    1.17001   1.19143   76.684
 4334.00    1.17700   1.18679   76.547
 4335.00    1.17301   1.16109   77.939
 4336.00    1.12940   1.10674   83.169
 4337.00    1.04858   1.02748   91.436
 4338.00    0.94688   0.94307   99.918
 4339.00    0.86904   0.88039  108.149
 4340.00    0.82968   0.86008   -1.000
 4341.00    0.87217   0.88857  101.872
 4342.00    0.96310   0.95120   91.679
 4343.00    1.03739   1.01937   86.197
 4344.00    1.09065   1.07346   83.595
 4345.00    1.13098   1.11271   81.334
 4346.00    1.14482   1.14294   79.996
 4347.00    1.14927   1.16740   79.179
 4348.00    1.16756   1.18220   77.846
 4349.00    1.17997   1.17746   78.142
 4350.00    1.13602   1.14846   82.719
 4351.00    1.06397   1.10735   -1.000
 4352.00    1.01470   1.07893   -1.000
 4353.00    1.05298   1.08035   86.108
 4354.00    1.09963   1.10768   82.180
 4355.00    1.13320   1.14180   79.710
 4356.00    1.16101   1.16654   78.088
 4357.00    1.18348   1.17875   78.208
 4358.00    1.16402   1.18229   80.014
 4359.00    1.12904   1.18382   -1.000
 4360.00    1.14790   1.19096   -1.000
 4361.00    1.17029   1.20617   -1.000
 4362.00    1.19041   1.22398   -1.000
 4363.00    1.20108   1.23855   -1.000
 4364.00    1.21139   1.24743   -1.000
 4365.00    1.23022   1.24667   74.828
 4366.00    1.20602   1.23326   77.288
 4367.00    1.15885   1.21230   -1.000
 4368.00    1.13313   1.19236   -1.000
 4369.00    1.13680   1.17696   -1.000
 4370.00    1.15647   1.16482   79.568
 4371.00    1.15555   1.15222   79.520
 4372.00    1.14234   1.13514   80.364
 4373.00    1.11023   1.11307   83.808
 4374.00    1.06955   1.09265   87.142
 4375.00    1.04708   1.08625   -1.000
 4376.00    1.08713   1.10133   83.230
 4377.00    1.13950   1.13037   79.004
 4378.00    1.17475   1.15607   77.744
 4379.00    1.17790   1.16310   78.303
 4380.00    1.15971   1.14201   79.757
 4381.00    1.14105   1.09096   -1.000
 4382.00    1.04897   1.02025   93.315
 4383.00    0.94490   0.95618  103.939
 4384.00    0.89487   0.93139   -1.000
 4385.00    0.95243   0.95855   94.336
 4386.00    1.05088   1.01464   85.413
 4387.00    1.11369   1.06428   -1.000
 4388.00    1.11692   1.09036   83.098
 4389.00    1.10008   1.09915   84.053
 4390.00    1.09690   1.10502   84.283
 4391.00    1.11148   1.11623   82.542
 4392.00    1.13829   1.13112   80.667
 4393.00    1.14336   1.14214   81.350
 4394.00    1.12712   1.14734   83.240
 4395.00    1.11824   1.15476   -1.000
 4396.00    1.15638   1.17019   78.812
 4397.00    1.19708   1.18632   76.601
 4398.00    1.19434   1.19063   77.865
 4399.00    1.16295   1.18092   80.865
 4400.00    1.12796   1.16604   -1.000
 4401.00    1.13169   1.15346   82.067
 4402.00    1.15533   1.14029   80.555
 4403.00    1.14502   1.11833   83.654
 4404.00    1.07585   1.08970   88.697
 4405.00    1.04666   1.06965   89.166
 4406.00    1.07957   1.07026   85.965
 4407.00    1.10026   1.08931   84.816
 4408.00    1.09876   1.11875   84.083
 4409.00    1.13065   1.15648   80.715
 4410.00    1.18397   1.20027   77.233
 4411.00    1.23544   1.23632   74.651
 4412.00    1.26051   1.24783   73.863
 4413.00    1.24124   1.23012   76.035
 4414.00    1.17871   1.19319   80.588
 4415.00    1.12099   1.15814   -1.000
 4416.00    1.11574   1.14809   -1.000
 4417.00    1.15068   1.17120   79.694
 4418.00    1.19431   1.21429   76.350
 4419.00    1.23453   1.25473   74.254
 4420.00    1.25140   1.27493   74.834
 4421.00    1.22171   1.27128   -1.000
 4422.00    1.18448   1.25530   -1.000
 4423.00    1.17404   1.24062   -1.000
 4424.00    1.17925   1.23212   -1.000
 4425.00    1.18699   1.22628   -1.000
 4426.00    1.18125   1.22093   -1.000
 4427.00    1.17485   1.21990   -1.000
 4428.00    1.17981   1.22553   -1.000
 4429.00    1.18207   1.23444   -1.000
 4430.00    1.17360   1.24229   -1.000
 4431.00    1.18290   1.24516   -1.000
 4432.00    1.20604   1.23858   -1.000
 4433.00    1.18936   1.21895   -1.000
 4434.00    1.13428   1.19134   -1.000
 4435.00    1.10176   1.17388   -1.000
 4436.00    1.14208   1.18444   -1.000
 4437.00    1.21541   1.22153   75.459
 4438.00    1.27185   1.26417   72.370
 4439.00    1.29087   1.28854   72.324
 4440.00    1.26650   1.28336   74.774
 4441.00    1.21325   1.25526   -1.000
 4442.00    1.16747   1.22516   -1.000
 4443.00    1.14818   1.21527   -1.000
 4444.00    1.16699   1.23263   -1.000
 4445.00    1.21490   1.26538   -1.000
 4446.00    1.25728   1.29456   -1.000
 4447.00    1.25963   1.31008   -1.000
 4448.00    1.25730   1.31405   -1.000
 4449.00    1.26525   1.31270   -1.000
 4450.00    1.24703   1.30776   -1.000
 4451.00    1.24562   1.29618   -1.000
 4452.00    1.24769   1.27326   75.680
 4453.00    1.23333   1.23658   78.624
 4454.00    1.17592   1.19300   82.312
 4455.00    1.12763   1.15902   -1.000
 4456.00    1.13756   1.14704   82.301
 4457.00    1.16507   1.15487   80.836
 4458.00    1.16588   1.17008   80.973
 4459.00    1.16320   1.18268   81.412
 4460.00    1.15071   1.19163   -1.000
 4461.00    1.14086   1.20098   -1.000
 4462.00    1.15686   1.21486   -1.000
 4463.00    1.20037   1.23482   -1.000
 4464.00    1.23642   1.25661   76.183
 4465.00    1.24604   1.27158   76.166
 4466.00    1.23341   1.27452   -1.000
 4467.00    1.22485   1.26780   -1.000
 4468.00    1.20864   1.25916   -1.000
 4469.00    1.19278   1.25729   -1.000
 4470.00    1.19504   1.26862   -1.000
 4471.00    1.23335   1.29365   -1.000
 4472.00    1.28310   1.32538   -1.000
 4473.00    1.32108   1.35280   70.797
 4474.00    1.33959   1.36844   70.270
 4475.00    1.33920   1.37330   -1.000
 4476.00    1.34306   1.37332   69.777
 4477.00    1.35605   1.37098   69.383
 4478.00    1.35532   1.36225   70.070
 4479.00    1.31843   1.34143   72.793
 4480.00    1.26081   1.31057   -1.000
 4481.00    1.22044   1.28290   -1.000
 4482.00    1.22186   1.27394   -1.000
 4483.00    1.26480   1.28909   73.785
 4484.00    1.31514   1.32136   71.018
 4485.00    1.34256   1.35484   69.562
 4486.00    1.36458   1.37305   69.753
 4487.00    1.34938   1.36991   71.433
 4488.00    1.29404   1.35196   -1.000
 4489.00    1.24843   1.33242   -1.000
 4490.00    1.24780   1.32315   -1.000
 4491.00    1.29034   1.32809   -1.000
 4492.00    1.31915   1.33918   71.746
 4493.00    1.31187   1.34320   72.950
 4494.00    1.28261   1.33539   -1.000
 4495.00    1.25138   1.32465   -1.000
 4496.00    1.25001   1.32298   -1.000
 4497.00    1.27722   1.33285   -1.000
 4498.00    1.31342   1.34861   -1.000
 4499.00    1.34804   1.36309   70.470
 4500.00    1.32958   1.37298   -1.000
 4501.00    1.31216   1.38177   -1.000
 4502.00    1.33701   1.39605   -1.000
 4503.00    1.38365   1.41684   67.335
 4504.00    1.41939   1.43777   66.210
 4505.00    1.42206   1.45103   66.747
 4506.00    1.40822   1.45294   -1.000
 4507.00    1.39282   1.44702   -1.000
 4508.00    1.37833   1.44026   -1.000
 4509.00    1.37773   1.43702   -1.000
 4510.00    1.39646   1.43559   -1.000
 4511.00    1.39149   1.43113   -1.000
 4512.00    1.36215   1.42108   -1.000
 4513.00    1.33787   1.40781   -1.000
 4514.00    1.32937   1.39599   -1.000
 4515.00    1.33686   1.38849   -1.000
 4516.00    1.34110   1.38487   -1.000
 4517.00    1.32557   1.38205   -1.000
 4518.00    1.31853   1.37874   -1.000
 4519.00    1.33213   1.37844   -1.000
 4520.00    1.35490   1.38320   69.618
 4521.00    1.36733   1.38800   69.918
 4522.00    1.33625   1.38537   -1.000
 4523.00    1.31009   1.37275   -1.000
 4524.00    1.30064   1.35328   -1.000
 4525.00    1.28242   1.32990   -1.000
 4526.00    1.24767   1.30225   -1.000
 4527.00    1.21515   1.27177   -1.000
 4528.00    1.19771   1.24658   -1.000
 4529.00    1.20666   1.23612   -1.000
 4530.00    1.21833   1.24143   78.267
 4531.00    1.24260   1.25303   76.834
 4532.00    1.25093   1.25847   76.512
 4533.00    1.22814   1.25197   78.802
 4534.00    1.18390   1.24102   -1.000
 4535.00    1.17072   1.24180   -1.000
 4536.00    1.21727   1.26643   -1.000
 4537.00    1.31592   1.31191   71.030
 4538.00    1.36494   1.36015   69.234
 4539.00    1.36768   1.39185   70.035
 4540.00    1.35284   1.40143   -1.000
 4541.00    1.33203   1.39846   -1.000
 4542.00    1.34065   1.39432   -1.000
 4543.00    1.34494   1.39134   -1.000
 4544.00    1.34905   1.38475   -1.000
 4545.00    1.21057   1.37258   -1.000
 4546.00    0.16854   1.35815   -1.000
 4547.00   -0.04083   1.34376    0.000
 4548.00    0.09611   1.32914   -1.000
 4549.00    1.04435   1.31740   -1.000
 4550.00    0.29714   1.31535   -1.000
 4551.00    1.04144   1.32421   -1.000
 4552.00    1.35045   1.33486   74.283
 4553.00    1.26187   1.33759   -1.000
 4554.00    1.24777   1.33360   -1.000
 4555.00    1.25860   1.33322   -1.000
 4556.00    1.30175   1.34625   -1.000
 4557.00    1.35645   1.37336   69.179
 4558.00    1.39592   1.40473   68.041
 4559.00    1.39815   1.42939   68.496
 4560.00    1.39605   1.44290   -1.000
 4561.00    1.39944   1.44555   -1.000
 4562.00    1.38150   1.43844   -1.000
 4563.00    1.34999   1.42318   -1.000
 4564.00    1.31597   1.40502   -1.000
 4565.00    1.31067   1.39362   -1.000
 4566.00    1.34462   1.39701   -1.000
 4567.00    1.39162   1.41331   68.449
 4568.00    1.41321   1.43037   67.816
 4569.00    1.41087   1.43537   68.633
 4570.00    1.37846   1.42507   -1.000
 4571.00    1.32537   1.40758   -1.000
 4572.00    1.31718   1.39675   -1.000
 4573.00    1.36571   1.40131   -1.000
 4574.00    1.39894   1.41731   68.468
 4575.00    1.39446   1.43281   -1.000
 4576.00    1.38548   1.43941   -1.000
 4577.00    1.37725   1.43515   -1.000
 4578.00    1.36619   1.42021   -1.000
 4579.00    1.34262   1.39686   -1.000
 4580.00    1.30879   1.37157   -1.000
 4581.00    1.30577   1.35312   -1.000
 4582.00    1.32004   1.34696   72.782
 4583.00    1.32484   1.35114   72.268
 4584.00    1.32194   1.35790   -1.000
 4585.00    1.31197   1.36212   -1.000
 4586.00    1.31892   1.36702   -1.000
 4587.00    1.34396   1.37896   -1.000
 4588.00    1.38323   1.39776   68.506
 4589.00    1.40275   1.41501   68.466
 4590.00    1.38549   1.42104   -1.000
 4591.00    1.35617   1.41341   -1.000
 4592.00    1.33427   1.39896   -1.000
 4593.00    1.32734   1.38831   -1.000
 4594.00    1.33366   1.38732   -1.000
 4595.00    1.35087   1.39368   -1.000
 4596.00    1.35809   1.40207   -1.000
 4597.00    1.35798   1.40879   -1.000
 4598.00    1.36557   1.41121   -1.000
 4599.00    1.37110   1.40761   -1.000
 4600.00    1.35108   1.39916   -1.000
 4601.00    1.33371   1.39037   -1.000
 4602.00    1.33989   1.38608   -1.000
 4603.00    1.36288   1.38819   70.277
 4604.00    1.36025   1.39499   -1.000
 4605.00    1.37086   1.40381   70.306
 4606.00    1.36908   1.41378   -1.000
 4607.00    1.38650   1.42611   -1.000
 4608.00    1.42765   1.44171   66.641
 4609.00    1.45294   1.45764   65.885
 4610.00    1.45901   1.46695   66.228
 4611.00    1.44646   1.46508   67.172
 4612.00    1.41548   1.45591   -1.000
 4613.00    1.41521   1.44722   68.336
 4614.00    1.41501   1.44326   67.962
 4615.00    1.42140   1.44341   67.343
 4616.00    1.42052   1.44405   67.089
 4617.00    1.42680   1.44254   67.573
 4618.00    1.41723   1.43992   68.077
 4619.00    1.41267   1.43988   67.986
 4620.00    1.42342   1.44562   67.309
 4621.00    1.44784   1.45617   66.216
 4622.00    1.44717   1.46565   66.245
 4623.00    1.44629   1.46866   66.420
 4624.00    1.44116   1.46569   66.549
 4625.00    1.44076   1.46063   67.187
 4626.00    1.43597   1.45617   67.329
 4627.00    1.43473   1.45380   67.284
 4628.00    1.42759   1.45409   67.744
 4629.00    1.40693   1.45595   -1.000
 4630.00    1.41404   1.45864   -1.000
 4631.00    1.44658   1.46218   66.708
 4632.00    1.44329   1.46421   67.058
 4633.00    1.41017   1.46099   -1.000
 4634.00    1.40260   1.45293   -1.000
 4635.00    1.41012   1.44385   68.713
 4636.00    1.39852   1.43566   -1.000
 4637.00    1.38441   1.42810   -1.000
 4638.00    1.37330   1.42231   -1.000
 4639.00    1.37397   1.42159   -1.000
 4640.00    1.38705   1.42881   -1.000
 4641.00    1.41179   1.44292   67.412
 4642.00    1.43878   1.45750   66.522
 4643.00    1.44053   1.46371   66.849
 4644.00    1.43128   1.45631   68.145
 4645.00    1.40047   1.43697   -1.000
 4646.00    1.35664   1.41265   -1.000
 4647.00    1.34731   1.39368   -1.000
 4648.00    1.36309   1.38948   70.919
 4649.00    1.38966   1.40101   69.239
 4650.00    1.40880   1.41943   68.322
 4651.00    1.41789   1.43359   68.241
 4652.00    1.42629   1.43812   68.097
 4653.00    1.41461   1.43425   68.956
 4654.00    1.39266   1.42576   70.602
 4655.00    1.36030   1.41816   -1.000
 4656.00    1.35618   1.41915   -1.000
 4657.00    1.39045   1.43454   -1.000
 4658.00    1.44361   1.46274   65.716
 4659.00    1.49042   1.49348   64.291
 4660.00    1.50323   1.51355   64.290
 4661.00    1.48699   1.51602   65.133
 4662.00    1.45610   1.50344   -1.000
 4663.00    1.43021   1.48264   -1.000
 4664.00    1.43356   1.45826   68.180
 4665.00    1.42716   1.43045   69.353
 4666.00    1.37426   1.39852   72.441
 4667.00    1.30726   1.36775   -1.000
 4668.00    1.28085   1.35041   -1.000
 4669.00    1.31556   1.35596   -1.000
 4670.00    1.36539   1.38108   69.862
 4671.00    1.41068   1.41198   68.022
 4672.00    1.43265   1.43586   67.687
 4673.00    1.43091   1.44935   67.760
 4674.00    1.42285   1.45735   67.682
 4675.00    1.43804   1.46535   66.760
 4676.00    1.46290   1.47199   65.746
 4677.00    1.46910   1.47014   66.143
 4678.00    1.44528   1.45627   67.641
 4679.00    1.41903   1.43533   68.972
 4680.00    1.39501   1.41627   70.102
 4681.00    1.37958   1.40547   70.757
 4682.00    1.38321   1.40487   69.799
 4683.00    1.40891   1.41333   67.989
 4684.00    1.43944   1.42663   67.139
 4685.00    1.44707   1.43883   67.423
 4686.00    1.43572   1.44609   67.437
 4687.00    1.43026   1.44846   67.843
 4688.00    1.43395   1.44786   67.827
 4689.00    1.43699   1.44619   67.834
 4690.00    1.42003   1.44462   68.350
 4691.00    1.41506   1.44416   68.473
 4692.00    1.42982   1.44669   67.613
 4693.00    1.44597   1.45331   66.596
 4694.00    1.46919   1.46186   65.083
 4695.00    1.49581   1.46848   64.284
 4696.00    1.50140   1.46993   64.658
 4697.00    1.48200   1.46331   66.609
 4698.00    1.44162   1.44802   68.629
 4699.00    1.41487   1.42785   69.366
 4700.00    1.41176   1.40789   68.742
 4701.00    1.41248   1.39073   69.313
 4702.00    1.39678   1.37751   70.581
 4703.00    1.37776   1.37163   70.903
 4704.00    1.39415   1.37637   69.473
 4705.00    1.42340   1.38761   68.464
 4706.00    1.42859   1.39484   69.520
 4707.00    1.40471   1.39243   70.941
 4708.00    1.37319   1.38617   71.588
 4709.00    1.36663   1.38626   71.161
 4710.00    1.39382   1.39697   68.978
 4711.00    1.43529   1.41468   67.094
 4712.00    1.46320   1.43167   66.487
 4713.00    1.46133   1.44042   67.189
 4714.00    1.43463   1.44034   68.498
 4715.00    1.42409   1.43954   68.435
 4716.00    1.44042   1.44646   67.008
 4717.00    1.47202   1.46148   65.722
 4718.00    1.48775   1.47788   65.359
 4719.00    1.49315   1.48917   65.134
 4720.00    1.49539   1.49366   64.911
 4721.00    1.49425   1.49354   65.506
 4722.00    1.47327   1.49213   65.966
 4723.00    1.47754   1.49188   65.537
 4724.00    1.50228   1.49241   64.809
 4725.00    1.51036   1.48976   64.950
 4726.00    1.48741   1.47879   66.607
 4727.00    1.43914   1.45841   69.198
 4728.00    1.40415   1.43532   70.694
 4729.00    1.39967   1.41959   70.345
 4730.00    1.42057   1.41557   69.604
 4731.00    1.42207   1.42023   69.065
 4732.00    1.43002   1.42899   68.216
 4733.00    1.43722   1.43821   67.636
 4734.00    1.45532   1.44456   67.262
 4735.00    1.46165   1.44653   66.887
 4736.00    1.45189   1.44544   67.664
 4737.00    1.44038   1.44432   67.717
 4738.00    1.44738   1.44653   66.791
 4739.00    1.47088   1.45284   66.867
 4740.00    1.47174   1.45991   67.274
 4741.00    1.44865   1.46476   67.347
 4742.00    1.45642   1.46872   66.776
 4743.00    1.47277   1.47383   66.036
 4744.00    1.48388   1.47926   66.213
 4745.00    1.48808   1.48350   66.266
 4746.00    1.48557   1.48727   65.743
 4747.00    1.49686   1.49286   65.068
 4748.00    1.49728   1.50060   64.957
 4749.00    1.49747   1.50797   65.068
 4750.00    1.50698   1.51210   65.108
 4751.00    1.50674   1.51080   65.605
 4752.00    1.49676   1.50256   66.364
 4753.00    1.48410   1.48860   66.911
 4754.00    1.46904   1.47412   67.365
 4755.00    1.45522   1.46540   67.218
 4756.00    1.45259   1.46487   67.500
 4757.00    1.43851   1.47051   68.014
 4758.00    1.43236   1.47878   -1.000
 4759.00    1.46062   1.48589   67.471
 4760.00    1.46515   1.48710   67.370
 4761.00    1.43414   1.47803   -1.000
 4762.00    1.39907   1.45854   -1.000
 4763.00    1.37787   1.43505   -1.000
 4764.00    1.38223   1.41653   -1.000
 4765.00    1.38898   1.40739   71.007
 4766.00    1.39153   1.40764   70.491
 4767.00    1.41036   1.41728   69.491
 4768.00    1.44027   1.43541   67.880
 4769.00    1.45573   1.45626   66.967
 4770.00    1.45750   1.47136   67.129
 4771.00    1.44603   1.47710   67.721
 4772.00    1.42982   1.47788   -1.000
 4773.00    1.44102   1.48104   -1.000
 4774.00    1.47654   1.48962   65.988
 4775.00    1.49062   1.49996   65.583
 4776.00    1.50028   1.50637   65.657
 4777.00    1.48096   1.50647   65.857
 4778.00    1.47628   1.50157   66.299
 4779.00    1.46973   1.49422   67.063
 4780.00    1.45554   1.48638   67.441
 4781.00    1.45612   1.47866   67.600
 4782.00    1.45196   1.47063   67.939
 4783.00    1.44272   1.46250   68.499
 4784.00    1.43358   1.45550   68.443
 4785.00    1.44336   1.45018   68.687
 4786.00    1.43040   1.44636   69.396
 4787.00    1.41683   1.44442   69.781
 4788.00    1.41783   1.44568   69.690
 4789.00    1.42573   1.45166   69.334
 4790.00    1.42903   1.46297   68.903
 4791.00    1.44060   1.47875   68.169
 4792.00    1.44731   1.49698   -1.000
 4793.00    1.48485   1.51562   65.515
 4794.00    1.51806   1.53280   64.407
 4795.00    1.52745   1.54532   64.210
 4796.00    1.52004   1.54906   64.898
 4797.00    1.50009   1.54263   -1.000
 4798.00    1.47138   1.52925   -1.000
 4799.00    1.44957   1.51538   -1.000
 4800.00    1.44848   1.50833   -1.000
 4801.00    1.47195   1.51192   -1.000
 4802.00    1.49890   1.52269   65.262
 4803.00    1.50460   1.53235   65.405
 4804.00    1.48608   1.53486   -1.000
 4805.00    1.45184   1.53018   -1.000
 4806.00    1.44327   1.52232   -1.000
 4807.00    1.44998   1.51535   -1.000
 4808.00    1.45799   1.51201   -1.000
 4809.00    1.46932   1.51387   -1.000
 4810.00    1.47010   1.52002   -1.000
 4811.00    1.47062   1.52715   -1.000
 4812.00    1.47515   1.53267   -1.000
 4813.00    1.49010   1.53685   -1.000
 4814.00    1.49157   1.54175   -1.000
 4815.00    1.48700   1.54918   -1.000
 4816.00    1.50683   1.55866   -1.000
 4817.00    1.51419   1.56708   -1.000
 4818.00    1.51852   1.57142   -1.000
 4819.00    1.51845   1.57143   -1.000
 4820.00    1.52206   1.56776   -1.000
 4821.00    1.51432   1.55854   -1.000
 4822.00    1.49881   1.54148   -1.000
 4823.00    1.46505   1.51963   -1.000
 4824.00    1.44661   1.50283   -1.000
 4825.00    1.46741   1.50003   66.440
 4826.00    1.49706   1.50981   65.419
 4827.00    1.50435   1.52201   65.747
 4828.00    1.49359   1.52826   66.550
 4829.00    1.48228   1.52760   -1.000
 4830.00    1.48174   1.52266   -1.000
 4831.00    1.46330   1.51479   -1.000
 4832.00    1.46127   1.50619   -1.000
 4833.00    1.46989   1.50208   66.517
 4834.00    1.50329   1.50575   65.643
 4835.00    1.50873   1.51469   65.426
 4836.00    1.51517   1.52250   65.548
 4837.00    1.51417   1.52393   65.871
 4838.00    1.48512   1.51779   66.800
 4839.00    1.46274   1.50620   -1.000
 4840.00    1.44649   1.49339   -1.000
 4841.00    1.45141   1.48419   67.852
 4842.00    1.46868   1.48143   67.503
 4843.00    1.47304   1.48465   66.991
 4844.00    1.48424   1.49251   66.314
 4845.00    1.50343   1.50397   65.255
 4846.00    1.52476   1.51511   64.947
 4847.00    1.50993   1.51975   66.339
 4848.00    1.47476   1.51694   -1.000
 4849.00    1.47043   1.51270   -1.000
 4850.00    1.48394   1.51211   66.286
 4851.00    1.48593   1.51334   66.163
 4852.00    1.48735   1.51036   66.562
 4853.00    1.49379   1.49835   67.137
 4854.00    1.45771   1.47637   69.209
 4855.00    1.41615   1.44878   71.171
 4856.00    1.40811   1.42286   70.930
 4857.00    1.41490   1.39983   70.186
 4858.00    1.39985   1.36790   72.215
 4859.00    1.32439   1.31179   78.633
 4860.00    1.18394   1.23545   -1.000
 4861.00    1.08436   1.16884   -1.000
 4862.00    1.12009   1.14651   -1.000
 4863.00    1.22346   1.17931   78.374
 4864.00    1.32201   1.24750   -1.000
 4865.00    1.37729   1.32082   -1.000
 4866.00    1.40649   1.37977   69.793
 4867.00    1.42936   1.41910   69.185
 4868.00    1.43665   1.43954   68.898
 4869.00    1.43147   1.44115   69.529
 4870.00    1.40835   1.42455   71.549
 4871.00    1.36236   1.39775   -1.000
 4872.00    1.35297   1.37849   72.591
 4873.00    1.38401   1.38268   70.465
 4874.00    1.42096   1.40867   69.269
 4875.00    1.43369   1.43926   68.754
 4876.00    1.44076   1.45967   68.383
 4877.00    1.44570   1.47000   68.160
 4878.00    1.45482   1.47979   67.137
 4879.00    1.47737   1.49408   66.431
 4880.00    1.48689   1.50818   67.065
 4881.00    1.45855   1.51440   -1.000
 4882.00    1.43903   1.51106   -1.000
 4883.00    1.45518   1.50267   -1.000
 4884.00    1.44757   1.49217   -1.000
 4885.00    1.43388   1.47931   -1.000
 4886.00    1.42424   1.46547   -1.000
 4887.00    1.43020   1.45377   69.758
 4888.00    1.44593   1.44405   69.671
 4889.00    1.43513   1.43173   70.740
 4890.00    1.39165   1.41576   72.336
 4891.00    1.39105   1.40608   71.796
 4892.00    1.42697   1.41828   68.842
 4893.00    1.48687   1.45845   65.615
 4894.00    1.54623   1.51422   63.710
 4895.00    1.58051   1.56405   62.532
 4896.00    1.59610   1.59452   62.254
 4897.00    1.59181   1.60482   62.401
 4898.00    1.57452   1.60032   63.795
 4899.00    1.52958   1.58778   -1.000
 4900.00    1.51164   1.57361   -1.000
 4901.00    1.51853   1.56130   -1.000
 4902.00    1.51685   1.55021   65.767
 4903.00    1.50300   1.53980   66.606
 4904.00    1.50054   1.53476   65.840
 4905.00    1.53351   1.54097   64.403
 4906.00    1.56990   1.55511   63.925
 4907.00    1.56282   1.56469   64.546
 4908.00    1.52720   1.55970   66.138
 4909.00    1.49779   1.54081   -1.000
 4910.00    1.46412   1.51828   -1.000
 4911.00    1.46098   1.50462   -1.000
 4912.00    1.49796   1.50643   66.713
 4913.00    1.51845   1.52078   65.806
 4914.00    1.54281   1.53905   64.950
 4915.00    1.56438   1.55224   64.381
 4916.00    1.57085   1.55108   64.708
 4917.00    1.54443   1.52716   67.029
 4918.00    1.46484   1.47991   70.758
 4919.00    1.38440   1.42218   -1.000
 4920.00    1.34687   1.37649   74.931
 4921.00    1.37580   1.36152   72.419
 4922.00    1.42899   1.37869   -1.000
 4923.00    1.46206   1.41268   -1.000
 4924.00    1.46710   1.44630   68.727
 4925.00    1.47352   1.47411   67.833
 4926.00    1.50875   1.50045   66.031
 4927.00    1.54205   1.52870   64.862
 4928.00    1.55765   1.55618   64.264
 4929.00    1.57827   1.57715   63.827
 4930.00    1.58950   1.58722   63.443
 4931.00    1.59211   1.58343   64.091
 4932.00    1.55713   1.56482   65.871
 4933.00    1.49142   1.53687   -1.000
 4934.00    1.46020   1.51161   -1.000
 4935.00    1.48320   1.49816   67.155
 4936.00    1.50472   1.49325   67.134
 4937.00    1.48323   1.48495   69.168
 4938.00    1.44264   1.46912   71.082
 4939.00    1.42406   1.45763   70.415
 4940.00    1.45777   1.46564   67.969
 4941.00    1.52168   1.49520   65.787
 4942.00    1.55490   1.53303   64.589
 4943.00    1.56347   1.56243   64.010
 4944.00    1.57762   1.57584   64.069
 4945.00    1.57903   1.57659   64.538
 4946.00    1.56325   1.57367   64.671
 4947.00    1.56801   1.57568   64.072
 4948.00    1.58405   1.58562   63.306
 4949.00    1.59251   1.59879   63.127
 4950.00    1.59731   1.60742   62.858
 4951.00    1.59532   1.60784   63.199
 4952.00    1.59311   1.60172   63.637
 4953.00    1.58245   1.59110   64.382
 4954.00    1.55985   1.57374   65.187
 4955.00    1.53411   1.54284   66.953
 4956.00    1.47344   1.49530   70.463
 4957.00    1.39718   1.44418   -1.000
 4958.00    1.39288   1.41575   71.749
 4959.00    1.46150   1.42734   67.572
 4960.00    1.53064   1.47064   -1.000
 4961.00    1.55823   1.51930   64.796
 4962.00    1.54840   1.55167   65.115
 4963.00    1.54578   1.56251   65.640
 4964.00    1.53385   1.55682   66.424
 4965.00    1.49698   1.54186   -1.000
 4966.00    1.47883   1.52466   -1.000
 4967.00    1.48566   1.51096   68.726
 4968.00    1.48594   1.50386   68.521
 4969.00    1.49359   1.50420   68.008
 4970.00    1.50007   1.51156   67.275
 4971.00    1.51181   1.52432   66.553
 4972.00    1.52959   1.53988   65.755
 4973.00    1.53219   1.55517   65.137
 4974.00    1.55228   1.56671   64.877
 4975.00    1.55492   1.57146   65.343
 4976.00    1.55254   1.56825   66.038
 4977.00    1.52496   1.55786   66.941
 4978.00    1.50662   1.54194   68.039
 4979.00    1.48643   1.52153   68.873
 4980.00    1.47342   1.49514   69.851
 4981.00    1.42825   1.45993   72.185
 4982.00    1.37575   1.41846   -1.000
 4983.00    1.36155   1.38354   74.499
 4984.00    1.38333   1.37143   73.073
 4985.00    1.41706   1.38837   71.006
 4986.00    1.46604   1.42526   68.743
 4987.00    1.50230   1.46527   67.044
 4988.00    1.51391   1.49414   67.130
 4989.00    1.50541   1.50526   68.140
 4990.00    1.48205   1.50166   68.838
 4991.00    1.47533   1.49355   68.858
 4992.00    1.48987   1.49035   68.231
 4993.00    1.50088   1.49424   67.948
 4994.00    1.50303   1.50177   67.921
 4995.00    1.51303   1.50961   67.564
 4996.00    1.52071   1.51603   67.227
 4997.00    1.51145   1.51786   67.648
 4998.00    1.50140   1.51006   68.566
 4999.00    1.47390   1.49069   69.965
 5000.00    1.44424   1.46536   70.835
 5001.00    1.44456   1.44472   70.872
 5002.00    1.45579   1.43629   70.186
 5003.00    1.47287   1.43764   69.725
 5004.00    1.46596   1.43796   70.751
 5005.00    1.43130   1.42847   72.579
 5006.00    1.40901   1.41310   72.966
 5007.00    1.41521   1.40649   71.141
 5008.00    1.45663   1.41845   68.958
 5009.00    1.49856   1.44239   -1.000
 5010.00    1.50919   1.46047   -1.000
 5011.00    1.46766   1.45812   71.270
 5012.00    1.42157   1.43495   73.964
 5013.00    1.38447   1.40390   75.675
 5014.00    1.36588   1.38069   75.278
 5015.00    1.38265   1.37306   73.586
 5016.00    1.42280   1.37879   72.044
 5017.00    1.42302   1.39137   71.760
 5018.00    1.42917   1.40631   71.782
 5019.00    1.44286   1.42194   70.949
 5020.00    1.46270   1.43554   70.371
 5021.00    1.46102   1.44331   70.700
 5022.00    1.44712   1.44525   70.854
 5023.00    1.45763   1.44723   70.439
 5024.00    1.47301   1.45545   69.685
 5025.00    1.48346   1.46762   69.221
 5026.00    1.48364   1.47507   69.566
 5027.00    1.47431   1.47465   69.901
 5028.00    1.47647   1.47261   69.245
 5029.00    1.51298   1.47696   67.924
 5030.00    1.53622   1.49072   66.961
 5031.00    1.54738   1.51070   65.868
 5032.00    1.57182   1.52962   65.114
 5033.00    1.58196   1.53887   65.236
 5034.00    1.55279   1.53177   67.373
 5035.00    1.49401   1.50877   70.072
 5036.00    1.45473   1.47942   71.206
 5037.00    1.44821   1.45425   71.440
 5038.00    1.44004   1.43367   72.337
 5039.00    1.40214   1.40892   75.230
 5040.00    1.35049   1.37774   78.308
 5041.00    1.32937   1.35455   78.288
 5042.00    1.36869   1.35873   74.428
 5043.00    1.44742   1.39548   -1.000
 5044.00    1.51084   1.45042   -1.000
 5045.00    1.54708   1.50194   -1.000
 5046.00    1.65320   1.53506   -1.000
 5047.00    1.10987   1.54409   -1.000
 5048.00    0.20929   1.53021   -1.000
 5049.00   -0.03904   1.50146    0.000
 5050.00    0.48429   1.47178   -1.000
 5051.00    1.49158   1.45522   70.288
 5052.00    1.48597   1.45898   68.705
 5053.00    1.53686   1.47992   -1.000
 5054.00    1.57043   1.50711   -1.000
 5055.00    1.58825   1.52994   -1.000
 5056.00    1.59723   1.54523   -1.000
 5057.00    1.59767   1.55536   65.063
 5058.00    1.60028   1.56270   65.184
 5059.00    1.59004   1.56783   65.155
 5060.00    1.58852   1.57047   64.700
 5061.00    1.60080   1.56965   64.747
 5062.00    1.60019   1.56213   65.641
 5063.00    1.56690   1.54362   67.585
 5064.00    1.51032   1.51579   70.015
 5065.00    1.47490   1.48895   70.784
 5066.00    1.49062   1.47365   69.885
 5067.00    1.51545   1.47173   68.819
 5068.00    1.52412   1.47701   -1.000
 5069.00    1.53203   1.48321   -1.000
 5070.00    1.54247   1.48783   -1.000
 5071.00    1.54974   1.48919   -1.000
 5072.00    1.52854   1.48627   68.954
 5073.00    1.53354   1.48240   -1.000
 5074.00    1.54568   1.48309   -1.000
 5075.00    1.54915   1.48866   -1.000
 5076.00    1.55234   1.49251   -1.000
 5077.00    1.55010   1.48657   -1.000
 5078.00    1.51883   1.46721   -1.000
 5079.00    1.45183   1.43898   73.914
 5080.00    1.40771   1.41374   74.704
 5081.00    1.42932   1.40224   73.068
 5082.00    1.46283   1.40638   -1.000
 5083.00    1.48012   1.42125   -1.000
 5084.00    1.50061   1.44209   -1.000
 5085.00    1.53829   1.46640   -1.000
 5086.00    1.56272   1.49059   -1.000
 5087.00    1.56065   1.50949   -1.000
 5088.00    1.56018   1.52085   67.131
 5089.00    1.56755   1.52712   66.641
 5090.00    1.58063   1.53232   -1.000
 5091.00    1.58490   1.53916   -1.000
 5092.00    1.58810   1.54815   65.159
 5093.00    1.60327   1.55668   -1.000
 5094.00    1.64904   1.55847   -1.000
 5095.00    1.65964   1.54692   -1.000
 5096.00    1.57002   1.52125   -1.000
 5097.00    1.53686   1.48896   -1.000
 5098.00    1.48901   1.46139   71.145
 5099.00    1.48267   1.44774   71.337
 5100.00    1.51407   1.45158   -1.000
 5101.00    1.54907   1.46891   -1.000
 5102.00    1.58098   1.48902   -1.000
 5103.00    1.57097   1.50120   -1.000
 5104.00    1.56745   1.50141   -1.000
 5105.00    1.55226   1.49168   -1.000
 5106.00    1.51123   1.47610   69.983
 5107.00    1.49625   1.45944   70.864
 5108.00    1.48903   1.44719   70.727
 5109.00    1.49026   1.44396   -1.000
 5110.00    1.49321   1.45148   69.756
 5111.00    1.50904   1.46788   68.736
 5112.00    1.53726   1.48851   -1.000
 5113.00    1.55363   1.50868   -1.000
 5114.00    1.57274   1.52639   -1.000
 5115.00    1.58856   1.54164   -1.000
 5116.00    1.59725   1.55390   65.413
 5117.00    1.61898   1.56168   -1.000
 5118.00    1.63419   1.56349   -1.000
 5119.00    1.61713   1.55834   -1.000
 5120.00    1.58420   1.54595   66.959
 5121.00    1.56360   1.52744   68.069
 5122.00    1.53045   1.50499   69.847
 5123.00    1.49045   1.48084   71.970
 5124.00    1.46199   1.45835   72.418
 5125.00    1.46980   1.44250   71.737
 5126.00    1.48724   1.43624   -1.000
 5127.00    1.49331   1.43732   -1.000
 5128.00    1.49186   1.44098   -1.000
 5129.00    1.48613   1.44508   71.017
 5130.00    1.49739   1.45106   -1.000
 5131.00    1.52528   1.46091   -1.000
 5132.00    1.54444   1.47410   -1.000
 5133.00    1.55600   1.48750   -1.000
 5134.00    1.56963   1.49774   -1.000
 5135.00    1.58196   1.50239   -1.000
 5136.00    1.58439   1.49935   -1.000
 5137.00    1.55959   1.48775   -1.000
 5138.00    1.51495   1.47022   -1.000
 5139.00    1.49190   1.45293   70.999
 5140.00    1.50557   1.44185   -1.000
 5141.00    1.50051   1.43857   -1.000
 5142.00    1.48993   1.44056   -1.000
 5143.00    1.47785   1.44510   71.607
 5144.00    1.49560   1.45071   -1.000
 5145.00    1.52492   1.45516   -1.000
 5146.00    1.51298   1.45550   -1.000
 5147.00    1.50026   1.45266   -1.000
 5148.00    1.50696   1.45202   -1.000
 5149.00    1.52206   1.45543   -1.000
 5150.00    1.51193   1.45745   -1.000
 5151.00    1.47864   1.45293   71.941
 5152.00    1.46679   1.44364   72.384
 5153.00    1.46896   1.43604   71.987
 5154.00    1.49462   1.43693   -1.000
 5155.00    1.52796   1.45038   -1.000
 5156.00    1.58006   1.47504   -1.000
 5157.00    1.61697   1.50405   -1.000
 5158.00    1.62183   1.52926   -1.000
 5159.00    1.61548   1.54573   -1.000
 5160.00    1.62576   1.55226   -1.000
 5161.00    1.60998   1.54900   -1.000
 5162.00    1.59579   1.53569   -1.000
 5163.00    1.57175   1.51105   -1.000
 5164.00    1.53382   1.47089   -1.000
 5165.00    1.45716   1.40931   -1.000
 5166.00    1.31973   1.32869   84.430
 5167.00    1.21031   1.24925   -1.000
 5168.00    1.20100   1.19981   87.895
 5169.00    1.27435   1.19068   -1.000
 5170.00    1.32977   1.19941   -1.000
 5171.00    1.27782   1.19481   -1.000
 5172.00    1.18419   1.17451   93.260
 5173.00    1.17266   1.16820   89.048
 5174.00    1.28321   1.20457   -1.000
 5175.00    1.43809   1.28004   -1.000
 5176.00    1.52274   1.36366   -1.000
 5177.00    1.55327   1.42666   -1.000
 5178.00    1.56775   1.45852   -1.000
 5179.00    1.54746   1.45984   -1.000
 5180.00    1.51174   1.43028   -1.000
 5181.00    1.43994   1.36855   -1.000
 5182.00    1.31021   1.28464   87.104
 5183.00    1.17875   1.20734   -1.000
 5184.00    1.16557   1.17314   89.013
 5185.00    1.27985   1.20065   -1.000
 5186.00    1.43176   1.27479   -1.000
 5187.00    1.51358   1.35878   -1.000
 5188.00    1.54244   1.42167   -1.000
 5189.00    1.54633   1.45488   -1.000
 5190.00    1.53890   1.46352   -1.000
 5191.00    1.49860   1.45452   -1.000
 5192.00    1.45880   1.43678   74.212
 5193.00    1.45341   1.42226   73.538
 5194.00    1.48409   1.41985   -1.000
 5195.00    1.49775   1.43053   -1.000
 5196.00    1.51584   1.45006   -1.000
 5197.00    1.54224   1.47452   -1.000
 5198.00    1.56691   1.50093   -1.000
 5199.00    1.58301   1.52440   -1.000
 5200.00    1.60095   1.53866   -1.000
 5201.00    1.58973   1.53878   -1.000
 5202.00    1.57844   1.52229   -1.000
 5203.00    1.53710   1.49001   -1.000
 5204.00    1.48203   1.44712   72.651
 5205.00    1.44395   1.40271   74.887
 5206.00    1.43500   1.36649   -1.000
 5207.00    1.42921   1.34426   -1.000
 5208.00    1.42315   1.33733   -1.000
 5209.00    1.43473   1.34655   -1.000
 5210.00    1.47152   1.37427   -1.000
 5211.00    1.52721   1.41996   -1.000
 5212.00    1.58869   1.47444   -1.000
 5213.00    1.62476   1.52099   -1.000
 5214.00    1.62196   1.54495   -1.000
 5215.00    1.59210   1.54445   -1.000
 5216.00    1.56737   1.53231   68.503
 5217.00    1.56438   1.52665   67.869
 5218.00    1.58963   1.53789   -1.000
 5219.00    1.62370   1.56319   -1.000
 5220.00    1.64685   1.59143   -1.000
 5221.00    1.66249   1.61145   -1.000
 5222.00    1.65331   1.61584   65.536
 5223.00    1.61677   1.60043   67.600
 5224.00    1.55519   1.56374   70.433
 5225.00    1.49038   1.51057   73.761
 5226.00    1.43324   1.45694   75.736
 5227.00    1.43523   1.42557   73.952
 5228.00    1.50347   1.43070   -1.000
 5229.00    1.58252   1.46565   -1.000
 5230.00    1.63085   1.50713   -1.000
 5231.00    1.64814   1.53318   -1.000
 5232.00    1.61971   1.53722   -1.000
 5233.00    1.58739   1.52892   -1.000
 5234.00    1.57614   1.52507   -1.000
 5235.00    1.59643   1.53727   -1.000
 5236.00    1.63338   1.56458   -1.000
 5237.00    1.66982   1.59632   -1.000
 5238.00    1.67284   1.62107   -1.000
 5239.00    1.66119   1.63386   64.398
 5240.00    1.66333   1.63643   64.266
 5241.00    1.66357   1.63336   63.872
 5242.00    1.66802   1.62945   63.996
 5243.00    1.66750   1.62839   63.850
 5244.00    1.67864   1.62966   -1.000
 5245.00    1.66782   1.62709   65.108
 5246.00    1.62344   1.61461   67.194
 5247.00    1.58502   1.59343   68.728
 5248.00    1.57314   1.57171   68.829
 5249.00    1.57661   1.55689   68.958
 5250.00    1.56704   1.55047   69.420
 5251.00    1.55799   1.55022   69.048
 5252.00    1.58307   1.55395   68.056
 5253.00    1.60374   1.55963   -1.000
 5254.00    1.59513   1.56609   67.445
 5255.00    1.60309   1.57529   66.931
 5256.00    1.63874   1.59061   -1.000
 5257.00    1.68638   1.61128   -1.000
 5258.00    1.71088   1.62976   -1.000
 5259.00    1.70692   1.63525   -1.000
 5260.00    1.67375   1.61979   -1.000
 5261.00    1.60538   1.58241   68.333
 5262.00    1.54038   1.52940   71.611
 5263.00    1.49938   1.47179   74.040
 5264.00    1.46600   1.42203   -1.000
 5265.00    1.43703   1.39029   -1.000
 5266.00    1.45292   1.37874   -1.000
 5267.00    1.49843   1.37812   -1.000
 5268.00    1.49898   1.37410   -1.000
 5269.00    1.43051   1.36130   -1.000
 5270.00    1.39706   1.35234   -1.000
 5271.00    1.46592   1.36560   -1.000
 5272.00    1.56089   1.40351   -1.000
 5273.00    1.59919   1.45051   -1.000
 5274.00    1.59975   1.49019   -1.000
 5275.00    1.60121   1.51935   -1.000
 5276.00    1.62246   1.54556   -1.000
 5277.00    1.67094   1.57529   -1.000
 5278.00    1.71099   1.60499   -1.000
 5279.00    1.72203   1.62262   -1.000
 5280.00    1.69153   1.61903   -1.000
 5281.00    1.65360   1.59690   -1.000
 5282.00    1.61177   1.56876   67.955
 5283.00    1.59630   1.54919   -1.000
 5284.00    1.61471   1.54920   -1.000
 5285.00    1.66093   1.57145   -1.000
 5286.00    1.73258   1.60800   -1.000
 5287.00    1.75466   1.64448   -1.000
 5288.00    1.74058   1.67002   -1.000
 5289.00    1.73113   1.68300   -1.000
 5290.00    1.73955   1.68747   -1.000
 5291.00    1.75320   1.68724   -1.000
 5292.00    1.73956   1.68432   -1.000
 5293.00    1.72281   1.67849   63.091
 5294.00    1.72076   1.66651   -1.000
 5295.00    1.68712   1.64366   65.736
 5296.00    1.62512   1.60869   68.312
 5297.00    1.57078   1.56939   70.098
 5298.00    1.55386   1.54070   69.531
 5299.00    1.58932   1.53323   -1.000
 5300.00    1.63675   1.54520   -1.000
 5301.00    1.65553   1.56625   -1.000
 5302.00    1.66639   1.58889   -1.000
 5303.00    1.69588   1.61258   -1.000
 5304.00    1.73749   1.63673   -1.000
 5305.00    1.75862   1.65622   -1.000
 5306.00    1.74794   1.66598   -1.000
 5307.00    1.72720   1.66741   -1.000
 5308.00    1.72697   1.66814   -1.000
 5309.00    1.74919   1.67443   -1.000
 5310.00    1.76321   1.68549   -1.000
 5311.00    1.76126   1.69503   -1.000
 5312.00    1.75341   1.69729   -1.000
 5313.00    1.75608   1.69093   -1.000
 5314.00    1.75216   1.67818   -1.000
 5315.00    1.72880   1.66244   -1.000
 5316.00    1.71160   1.64837   -1.000
 5317.00    1.70408   1.64147   -1.000
 5318.00    1.71248   1.64445   -1.000
 5319.00    1.72650   1.65309   -1.000
 5320.00    1.72387   1.65827   -1.000
 5321.00    1.72922   1.65292   -1.000
 5322.00    1.71323   1.63576   -1.000
 5323.00    1.68706   1.61074   -1.000
 5324.00    1.66281   1.58341   -1.000
 5325.00    1.66722   1.55612   -1.000
 5326.00    1.65396   1.52488   -1.000
 5327.00    1.56002   1.48606   -1.000
 5328.00    1.47494   1.44959   75.383
 5329.00    1.48907   1.43587   -1.000
 5330.00    1.58439   1.45769   -1.000
 5331.00    1.66732   1.50547   -1.000
 5332.00    1.69167   1.55613   -1.000
 5333.00    1.68835   1.59424   -1.000
 5334.00    1.72161   1.61898   -1.000
 5335.00    1.73911   1.63454   -1.000
 5336.00    1.73807   1.64178   -1.000
 5337.00    1.72516   1.63900   -1.000
 5338.00    1.71131   1.62520   -1.000
 5339.00    1.68144   1.60233   -1.000
 5340.00    1.63531   1.57797   -1.000
 5341.00    1.62612   1.56388   -1.000
 5342.00    1.66781   1.56835   -1.000
 5343.00    1.71119   1.58707   -1.000
 5344.00    1.72272   1.60600   -1.000
 5345.00    1.70991   1.61361   -1.000
 5346.00    1.70207   1.60882   -1.000
 5347.00    1.69920   1.59859   -1.000
 5348.00    1.68515   1.59066   -1.000
 5349.00    1.67232   1.59006   -1.000
 5350.00    1.68099   1.59906   -1.000
 5351.00    1.71395   1.61687   -1.000
 5352.00    1.74680   1.63838   -1.000
 5353.00    1.76178   1.65753   -1.000
 5354.00    1.76195   1.67293   -1.000
 5355.00    1.78754   1.68689   -1.000
 5356.00    1.80444   1.70050   -1.000
 5357.00    1.80072   1.71126   -1.000
 5358.00    1.80150   1.71627   -1.000
 5359.00    1.79856   1.71476   -1.000
 5360.00    1.77998   1.70693   -1.000
 5361.00    1.75488   1.69310   -1.000
 5362.00    1.72934   1.67461   -1.000
 5363.00    1.72301   1.65394   -1.000
 5364.00    1.70203   1.63450   -1.000
 5365.00    1.69951   1.61982   -1.000
 5366.00    1.69493   1.61152   -1.000
 5367.00    1.69908   1.60638   -1.000
 5368.00    1.70096   1.59698   -1.000
 5369.00    1.67649   1.57674   -1.000
 5370.00    1.62390   1.54733   -1.000
 5371.00    1.59570   1.52154   -1.000
 5372.00    1.62704   1.51621   -1.000
 5373.00    1.69822   1.54008   -1.000
 5374.00    1.75850   1.58487   -1.000
 5375.00    1.78487   1.63196   -1.000
 5376.00    1.78084   1.66583   -1.000
 5377.00    1.77477   1.68235   -1.000
 5378.00    1.77219   1.68590   -1.000
 5379.00    1.76209   1.68227   -1.000
 5380.00    1.74720   1.67470   -1.000
 5381.00    1.73784   1.66432   -1.000
 5382.00    1.73179   1.65276   -1.000
 5383.00    1.72043   1.64425   -1.000
 5384.00    1.72759   1.64400   -1.000
 5385.00    1.75419   1.65379   -1.000
 5386.00    1.76734   1.66856   -1.000
 5387.00    1.76499   1.67967   -1.000
 5388.00    1.75072   1.68075   -1.000
 5389.00    1.72210   1.67110   -1.000
 5390.00    1.70046   1.65473   -1.000
 5391.00    1.69425   1.63676   -1.000
 5392.00    1.69142   1.62061   -1.000
 5393.00    1.68955   1.60786   -1.000
 5394.00    1.68574   1.59719   -1.000
 5395.00    1.66983   1.58469   -1.000
 5396.00    1.63491   1.56886   -1.000
 5397.00    1.60503   1.55449   -1.000
 5398.00    1.63470   1.55185   -1.000
 5399.00    1.69549   1.56605   -1.000
 5400.00    1.72924   1.59032   -1.000
 5401.00    1.73198   1.61089   -1.000
 5402.00    1.73023   1.61592   -1.000
 5403.00    1.69924   1.60038   -1.000
 5404.00    1.63093   1.56920   -1.000
 5405.00    1.59234   1.53661   -1.000
 5406.00    1.59928   1.51787   -1.000
 5407.00    1.63626   1.51907   -1.000
 5408.00    1.65187   1.53207   -1.000
 5409.00    1.63486   1.54466   -1.000
 5410.00    1.63012   1.55421   -1.000
 5411.00    1.66963   1.56690   -1.000
 5412.00    1.71956   1.58739   -1.000
 5413.00    1.75518   1.61105   -1.000
 5414.00    1.74236   1.62997   -1.000
 5415.00    1.74279   1.64297   -1.000
 5416.00    1.74895   1.65400   -1.000
 5417.00    1.75869   1.66535   -1.000
 5418.00    1.76760   1.67495   -1.000
 5419.00    1.75591   1.67958   -1.000
 5420.00    1.74420   1.67848   -1.000
 5421.00    1.75327   1.67291   -1.000
 5422.00    1.74773   1.66361   -1.000
 5423.00    1.73414   1.65234   -1.000
 5424.00    1.71953   1.64337   -1.000
 5425.00    1.70496   1.64267   -1.000
 5426.00    1.73961   1.65035   -1.000
 5427.00    1.77404   1.65528   -1.000
 5428.00    1.73616   1.64573   -1.000
 5429.00    1.66847   1.62174   -1.000
 5430.00    1.64795   1.59713   -1.000
 5431.00    1.68299   1.58505   -1.000
 5432.00    1.70817   1.58417   -1.000
 5433.00    1.68262   1.58451   -1.000
 5434.00    1.64898   1.58111   -1.000
 5435.00    1.65105   1.58017   -1.000
 5436.00    1.67534   1.59207   -1.000
 5437.00    1.71502   1.61934   -1.000
 5438.00    1.75931   1.65433   -1.000
 5439.00    1.79220   1.68552   -1.000
 5440.00    1.80997   1.70732   -1.000
 5441.00    1.81180   1.71989   -1.000
 5442.00    1.80509   1.72341   -1.000
 5443.00    1.79059   1.71480   -1.000
 5444.00    1.75510   1.69006   -1.000
 5445.00    1.70021   1.65140   -1.000
 5446.00    1.64072   1.61002   69.175
 5447.00    1.61175   1.58237   68.447
 5448.00    1.65014   1.58036   -1.000
 5449.00    1.71540   1.60161   -1.000
 5450.00    1.75050   1.63246   -1.000
 5451.00    1.74942   1.65686   -1.000
 5452.00    1.75014   1.66453   -1.000
 5453.00    1.73264   1.65262   -1.000
 5454.00    1.69016   1.62607   -1.000
 5455.00    1.64142   1.59733   -1.000
 5456.00    1.64629   1.58385   -1.000
 5457.00    1.69334   1.59468   -1.000
 5458.00    1.74909   1.62322   -1.000
 5459.00    1.76940   1.65171   -1.000
 5460.00    1.75534   1.66498   -1.000
 5461.00    1.73054   1.65949   -1.000
 5462.00    1.69309   1.64276   -1.000
 5463.00    1.67814   1.62725   -1.000
 5464.00    1.69523   1.62239   -1.000
 5465.00    1.71651   1.63024   -1.000
 5466.00    1.71272   1.64559   -1.000
 5467.00    1.72706   1.66160   -1.000
 5468.00    1.74119   1.67391   -1.000
 5469.00    1.74187   1.68035   -1.000
 5470.00    1.73285   1.68040   -1.000
 5471.00    1.72178   1.67500   -1.000
 5472.00    1.71158   1.66548   -1.000
 5473.00    1.70286   1.65208   -1.000
 5474.00    1.68632   1.63374   -1.000
 5475.00    1.65948   1.61054   -1.000
 5476.00    1.63249   1.58814   -1.000
 5477.00    1.61918   1.57589   -1.000
 5478.00    1.65632   1.58028   -1.000
 5479.00    1.70877   1.59794   -1.000
 5480.00    1.71099   1.61690   -1.000
 5481.00    1.68048   1.62887   -1.000
 5482.00    1.67198   1.63536   67.180
 5483.00    1.68814   1.64365   -1.000
 5484.00    1.72536   1.65710   -1.000
 5485.00    1.75359   1.67065   -1.000
 5486.00    1.74540   1.67701   -1.000
 5487.00    1.72264   1.67387   -1.000
 5488.00    1.70385   1.66635   66.071
 5489.00    1.70440   1.66189   -1.000
 5490.00    1.71073   1.66363   -1.000
 5491.00    1.71665   1.66972   -1.000
 5492.00    1.73248   1.67618   -1.000
 5493.00    1.73719   1.68055   -1.000
 5494.00    1.73243   1.68174   -1.000
 5495.00    1.74249   1.67861   -1.000
 5496.00    1.72749   1.67097   -1.000
 5497.00    1.70580   1.66119   -1.000
 5498.00    1.71671   1.65330   -1.000
 5499.00    1.73435   1.64922   -1.000
 5500.00    1.73594   1.64569   -1.000
 5501.00    1.70659   1.63927   -1.000
 5502.00    1.70574   1.63236   -1.000
 5503.00    1.70303   1.62873   -1.000
 5504.00    1.70521   1.62800   -1.000
 5505.00    1.70471   1.62582   -1.000
 5506.00    1.67426   1.62012   -1.000
 5507.00    1.67272   1.61606   -1.000
 5508.00    1.70504   1.61920   -1.000
 5509.00    1.72588   1.62856   -1.000
 5510.00    1.72769   1.63601   -1.000
 5511.00    1.69560   1.63353   -1.000
 5512.00    1.66340   1.62090   -1.000
 5513.00    1.64733   1.60610   -1.000
 5514.00    1.65759   1.59943   -1.000
 5515.00    1.69501   1.60584   -1.000
 5516.00    1.72207   1.62333   -1.000
 5517.00    1.74707   1.64598   -1.000
 5518.00    1.77396   1.66800   -1.000
 5519.00    1.78636   1.68510   -1.000
 5520.00    1.78886   1.69549   -1.000
 5521.00    1.78621   1.69983   -1.000
 5522.00    1.78127   1.70039   -1.000
 5523.00    1.77612   1.69826   -1.000
 5524.00    1.77453   1.69121   -1.000
 5525.00    1.75625   1.67607   -1.000
 5526.00    1.72244   1.65191   -1.000
 5527.00    1.67948   1.62435   -1.000
 5528.00    1.65205   1.60405   -1.000
 5529.00    1.67655   1.60166   -1.000
 5530.00    1.71430   1.61869   -1.000
 5531.00    1.74290   1.64462   -1.000
 5532.00    1.74864   1.66550   -1.000
 5533.00    1.73675   1.67391   -1.000
 5534.00    1.72280   1.67208   -1.000
 5535.00    1.73284   1.66745   -1.000
 5536.00    1.74589   1.66645   -1.000
 5537.00    1.75572   1.67030   -1.000
 5538.00    1.76613   1.67644   -1.000
 5539.00    1.77113   1.68302   -1.000
 5540.00    1.78894   1.68966   -1.000
 5541.00    1.79773   1.69430   -1.000
 5542.00    1.78953   1.69424   -1.000
 5543.00    1.77366   1.68943   -1.000
 5544.00    1.76136   1.68387   -1.000
 5545.00    1.76643   1.68208   -1.000
 5546.00    1.76495   1.68523   -1.000
 5547.00    1.77595   1.69218   -1.000
 5548.00    1.79365   1.70157   -1.000
 5549.00    1.81373   1.71111   -1.000
 5550.00    1.81131   1.71795   -1.000
 5551.00    1.81234   1.71987   -1.000
 5552.00    1.79943   1.71630   -1.000
 5553.00    1.78036   1.70899   -1.000
 5554.00    1.76680   1.70149   -1.000
 5555.00    1.76596   1.69724   -1.000
 5556.00    1.77960   1.69700   -1.000
 5557.00    1.78883   1.69938   -1.000
 5558.00    1.78479   1.70293   -1.000
 5559.00    1.78505   1.70605   -1.000
 5560.00    1.78038   1.70628   -1.000
 5561.00    1.77208   1.70142   -1.000
 5562.00    1.76261   1.69202   -1.000
 5563.00    1.75048   1.68125   -1.000
 5564.00    1.74045   1.67196   -1.000
 5565.00    1.73393   1.66500   -1.000
 5566.00    1.73727   1.65986   -1.000
 5567.00    1.74272   1.65598   -1.000
 5568.00    1.74206   1.65297   -1.000
 5569.00    1.73144   1.65047   -1.000
 5570.00    1.73514   1.64785   -1.000
 5571.00    1.74517   1.64470   -1.000
 5572.00    1.72594   1.64125   -1.000
 5573.00    1.67948   1.63959   66.001
 5574.00    1.54847   1.64226   -1.000
 5575.00    1.16177   1.64887   -1.000
 5576.00    0.66050   1.65752   -1.000
 5577.00    0.57013   1.66727   -1.000
 5578.00    1.01665   1.67736   -1.000
 5579.00    1.34733   1.68586   -1.000
 5580.00    1.75303   1.69073   -1.000
 5581.00    1.77049   1.69179   -1.000
 5582.00    1.76763   1.69038   -1.000
 5583.00    1.77448   1.68691   -1.000
 5584.00    1.76713   1.67918   -1.000
 5585.00    1.74680   1.66231   -1.000
 5586.00    1.70710   1.63358   -1.000
 5587.00    1.65456   1.59897   -1.000
 5588.00    1.64079   1.57017   -1.000
 5589.00    1.64649   1.55775   -1.000
 5590.00    1.67723   1.56429   -1.000
 5591.00    1.71318   1.58366   -1.000
 5592.00    1.72154   1.60501   -1.000
 5593.00    1.71725   1.62036   -1.000
 5594.00    1.71188   1.62922   -1.000
 5595.00    1.73127   1.63565   -1.000
 5596.00    1.75468   1.64163   -1.000
 5597.00    1.73382   1.64371   -1.000
 5598.00    1.69919   1.63831   -1.000
 5599.00    1.68760   1.62759   -1.000
 5600.00    1.67674   1.61589   -1.000
 5601.00    1.66921   1.60643   -1.000
 5602.00    1.66746   1.60360   -1.000
 5603.00    1.67830   1.61246   -1.000
 5604.00    1.72092   1.63497   -1.000
 5605.00    1.76328   1.66672   -1.000
 5606.00    1.78577   1.69839   -1.000
 5607.00    1.79161   1.72221   -1.000
 5608.00    1.78463   1.73580   -1.000
 5609.00    1.79103   1.74159   -1.000
 5610.00    1.79806   1.74322   -1.000
 5611.00    1.78954   1.74179   -1.000
 5612.00    1.78563   1.73386   -1.000
 5613.00    1.77147   1.71415   -1.000
 5614.00    1.72969   1.68219   -1.000
 5615.00    1.67916   1.64625   69.195
 5616.00    1.66529   1.62219   -1.000
 5617.00    1.70030   1.62009   -1.000
 5618.00    1.74506   1.63637   -1.000
 5619.00    1.75568   1.65939   -1.000
 5620.00    1.75997   1.67901   -1.000
 5621.00    1.76304   1.69056   -1.000
 5622.00    1.75847   1.69300   -1.000
 5623.00    1.74923   1.68668   -1.000
 5624.00    1.71783   1.67553   -1.000
 5625.00    1.70928   1.66709   -1.000
 5626.00    1.71515   1.66772   -1.000
 5627.00    1.74685   1.67852   -1.000
 5628.00    1.76363   1.69481   -1.000
 5629.00    1.78458   1.71056   -1.000
 5630.00    1.79132   1.72205   -1.000
 5631.00    1.78758   1.72776   -1.000
 5632.00    1.78606   1.72779   -1.000
 5633.00    1.77542   1.72357   -1.000
 5634.00    1.76804   1.71634   -1.000
 5635.00    1.77248   1.70743   -1.000
 5636.00    1.74799   1.69852   -1.000
 5637.00    1.72606   1.69128   66.297
 5638.00    1.73327   1.68709   -1.000
 5639.00    1.73116   1.68599   -1.000
 5640.00    1.72946   1.68601   -1.000
 5641.00    1.73098   1.68589   -1.000
 5642.00    1.74551   1.68634   -1.000
 5643.00    1.74228   1.68819   -1.000
 5644.00    1.73958   1.69151   -1.000
 5645.00    1.75527   1.69591   -1.000
 5646.00    1.76446   1.70035   -1.000
 5647.00    1.76422   1.70349   -1.000
 5648.00    1.76713   1.70456   -1.000
 5649.00    1.77154   1.70407   -1.000
 5650.00    1.78001   1.70394   -1.000
 5651.00    1.78439   1.70535   -1.000
 5652.00    1.78322   1.70716   -1.000
 5653.00    1.79555   1.70676   -1.000
 5654.00    1.78740   1.70186   -1.000
 5655.00    1.76328   1.69148   -1.000
 5656.00    1.75043   1.67537   -1.000
 5657.00    1.71241   1.65493   -1.000
 5658.00    1.67443   1.63579   70.297
 5659.00    1.67886   1.62553   -1.000
 5660.00    1.71116   1.62677   -1.000
 5661.00    1.72479   1.63596   -1.000
 5662.00    1.70738   1.64742   -1.000
 5663.00    1.70787   1.65850   -1.000
 5664.00    1.73599   1.67025   -1.000
 5665.00    1.75729   1.68215   -1.000
 5666.00    1.75580   1.69095   -1.000
 5667.00    1.74538   1.69470   -1.000
 5668.00    1.72598   1.69482   66.376
 5669.00    1.72800   1.69487   66.180
 5670.00    1.73674   1.69743   65.723
 5671.00    1.75449   1.70277   -1.000
 5672.00    1.77616   1.70955   -1.000
 5673.00    1.79867   1.71628   -1.000
 5674.00    1.79852   1.72141   -1.000
 5675.00    1.78491   1.72428   -1.000
 5676.00    1.78766   1.72564   -1.000
 5677.00    1.79485   1.72645   -1.000
 5678.00    1.80052   1.72614   -1.000
 5679.00    1.78913   1.72274   -1.000
 5680.00    1.78500   1.71438   -1.000
 5681.00    1.77903   1.70086   -1.000
 5682.00    1.76338   1.68502   -1.000
 5683.00    1.75249   1.67185   -1.000
 5684.00    1.76331   1.66576   -1.000
 5685.00    1.76250   1.66689   -1.000
 5686.00    1.75883   1.67010   -1.000
 5687.00    1.73906   1.67049   -1.000
 5688.00    1.72914   1.66830   -1.000
 5689.00    1.74323   1.66843   -1.000
 5690.00    1.76706   1.67563   -1.000
 5691.00    1.79035   1.68938   -1.000
 5692.00    1.81029   1.70493   -1.000
 5693.00    1.80819   1.71744   -1.000
 5694.00    1.80576   1.72496   -1.000
 5695.00    1.80129   1.72775   -1.000
 5696.00    1.79275   1.72681   -1.000
 5697.00    1.77846   1.72265   -1.000
 5698.00    1.76482   1.71507   -1.000
 5699.00    1.75578   1.70482   -1.000
 5700.00    1.73827   1.69397   -1.000
 5701.00    1.71937   1.68554   67.352
 5702.00    1.72142   1.68158   -1.000
 5703.00    1.73641   1.68201   -1.000
 5704.00    1.74775   1.68416   -1.000
 5705.00    1.74652   1.68377   -1.000
 5706.00    1.73039   1.67761   -1.000
 5707.00    1.71546   1.66479   -1.000
 5708.00    1.69040   1.64708   -1.000
 5709.00    1.66675   1.62957   70.121
 5710.00    1.67146   1.61877   -1.000
 5711.00    1.68021   1.61920   -1.000
 5712.00    1.71052   1.63208   -1.000
 5713.00    1.75222   1.65431   -1.000
 5714.00    1.77776   1.67943   -1.000
 5715.00    1.78891   1.70070   -1.000
 5716.00    1.78611   1.71506   -1.000
 5717.00    1.79470   1.72377   -1.000
 5718.00    1.79442   1.72995   -1.000
 5719.00    1.80650   1.73620   -1.000
 5720.00    1.81153   1.74351   -1.000
 5721.00    1.82546   1.75116   -1.000
 5722.00    1.82967   1.75771   -1.000
 5723.00    1.83199   1.76196   -1.000
 5724.00    1.83046   1.76307   -1.000
 5725.00    1.81337   1.76005   -1.000
 5726.00    1.78643   1.75312   64.586
 5727.00    1.76339   1.74516   65.076
 5728.00    1.78113   1.73968   -1.000
 5729.00    1.79785   1.73827   -1.000
 5730.00    1.79921   1.73928   -1.000
 5731.00    1.79229   1.74036   -1.000
 5732.00    1.79667   1.74170   -1.000
 5733.00    1.81192   1.74513   -1.000
 5734.00    1.82981   1.75116   -1.000
 5735.00    1.82749   1.75739   -1.000
 5736.00    1.82100   1.76086   -1.000
 5737.00    1.81874   1.76093   -1.000
 5738.00    1.81260   1.75931   -1.000
 5739.00    1.81078   1.75802   -1.000
 5740.00    1.81390   1.75750   -1.000
 5741.00    1.82516   1.75685   -1.000
 5742.00    1.81825   1.75591   -1.000
 5743.00    1.81259   1.75559   -1.000
 5744.00    1.81454   1.75678   -1.000
 5745.00    1.83025   1.75862   -1.000
 5746.00    1.82464   1.75904   -1.000
 5747.00    1.80225   1.75753   -1.000
 5748.00    1.80671   1.75579   -1.000
 5749.00    1.80738   1.75523   -1.000
 5750.00    1.80747   1.75413   -1.000
 5751.00    1.81142   1.74891   -1.000
 5752.00    1.78476   1.73886   -1.000
 5753.00    1.76300   1.72764   65.901
 5754.00    1.75897   1.72189   65.804
 5755.00    1.77129   1.72604   -1.000
 5756.00    1.80789   1.73881   -1.000
 5757.00    1.83471   1.75413   -1.000
 5758.00    1.85032   1.76507   -1.000
 5759.00    1.83464   1.76752   -1.000
 5760.00    1.81168   1.76113   -1.000
 5761.00    1.78668   1.74848   65.745
 5762.00    1.76571   1.73528   65.998
 5763.00    1.75997   1.72849   65.164
 5764.00    1.77856   1.73225   -1.000
 5765.00    1.80553   1.74504   -1.000
 5766.00    1.82203   1.76033   -1.000
 5767.00    1.82555   1.77187   -1.000
 5768.00    1.82828   1.77749   -1.000
 5769.00    1.83140   1.77854   -1.000
 5770.00    1.81526   1.77687   63.299
 5771.00    1.80720   1.77297   63.670
 5772.00    1.79692   1.76683   64.069
 5773.00    1.79204   1.75991   64.197
 5774.00    1.79388   1.75458   -1.000
 5775.00    1.79121   1.75246   64.109
 5776.00    1.79543   1.75324   -1.000
 5777.00    1.79901   1.75393   -1.000
 5778.00    1.76488   1.75030   63.971
 5779.00    1.73791   1.74013   64.995
 5780.00    1.70736   1.72466   66.526
 5781.00    1.70812   1.70853   67.304
 5782.00    1.72872   1.69695   67.075
 5783.00    1.74956   1.69233   -1.000
 5784.00    1.74725   1.69363   -1.000
 5785.00    1.75128   1.69832   -1.000
 5786.00    1.76867   1.70576   -1.000
 5787.00    1.78433   1.71607   -1.000
 5788.00    1.80874   1.72688   -1.000
 5789.00    1.81632   1.73451   -1.000
 5790.00    1.80451   1.73720   -1.000
 5791.00    1.79242   1.73756   -1.000
 5792.00    1.79247   1.74044   -1.000
 5793.00    1.79897   1.74796   -1.000
 5794.00    1.81834   1.75850   -1.000
 5795.00    1.81970   1.76811   -1.000
 5796.00    1.81124   1.77314   -1.000
 5797.00    1.80433   1.77294   63.939
 5798.00    1.80268   1.77083   63.550
 5799.00    1.81977   1.77111   -1.000
 5800.00    1.84796   1.77513   -1.000
 5801.00    1.86478   1.78080   -1.000
 5802.00    1.86083   1.78441   -1.000
 5803.00    1.85048   1.78352   -1.000
 5804.00    1.84042   1.77858   -1.000
 5805.00    1.81844   1.77265   -1.000
 5806.00    1.80388   1.76902   63.404
 5807.00    1.82083   1.76889   -1.000
 5808.00    1.82648   1.77111   -1.000
 5809.00    1.83024   1.77402   -1.000
 5810.00    1.84793   1.77662   -1.000
 5811.00    1.84530   1.77818   -1.000
 5812.00    1.84758   1.77802   -1.000
 5813.00    1.84038   1.77560   -1.000
 5814.00    1.83544   1.77071   -1.000
 5815.00    1.82316   1.76435   -1.000
 5816.00    1.81891   1.75959   -1.000
 5817.00    1.81682   1.75985   -1.000
 5818.00    1.82736   1.76539   -1.000
 5819.00    1.84377   1.77289   -1.000
 5820.00    1.84457   1.77866   -1.000
 5821.00    1.84670   1.78134   -1.000
 5822.00    1.84675   1.78186   -1.000
 5823.00    1.85339   1.78154   -1.000
 5824.00    1.84928   1.78105   -1.000
 5825.00    1.85292   1.78109   -1.000
 5826.00    1.85892   1.78222   -1.000
 5827.00    1.86964   1.78434   -1.000
 5828.00    1.86571   1.78642   -1.000
 5829.00    1.86573   1.78744   -1.000
 5830.00    1.86924   1.78740   -1.000
 5831.00    1.86712   1.78667   -1.000
 5832.00    1.87036   1.78542   -1.000
 5833.00    1.86333   1.78353   -1.000
 5834.00    1.86206   1.78140   -1.000
 5835.00    1.86238   1.78026   -1.000
 5836.00    1.85496   1.78104   -1.000
 5837.00    1.86976   1.78317   -1.000
 5838.00    1.86322   1.78508   -1.000
 5839.00    1.84980   1.78622   -1.000
 5840.00    1.85375   1.78706   -1.000
 5841.00    1.87057   1.78798   -1.000
 5842.00    1.87381   1.78852   -1.000
 5843.00    1.87874   1.78799   -1.000
 5844.00    1.86864   1.78597   -1.000
 5845.00    1.85885   1.78228   -1.000
 5846.00    1.84564   1.77731   -1.000
 5847.00    1.81788   1.77232   -1.000
 5848.00    1.81481   1.76862   -1.000
 5849.00    1.82572   1.76575   -1.000
 5850.00    1.82174   1.76175   -1.000
 5851.00    1.81199   1.75498   -1.000
 5852.00    1.79874   1.74563   -1.000
 5853.00    1.76726   1.73557   64.651
 5854.00    1.76484   1.72564   -1.000
 5855.00    1.77794   1.71486   -1.000
 5856.00    1.76115   1.70119   -1.000
 5857.00    1.74057   1.68620   -1.000
 5858.00    1.73674   1.67702   -1.000
 5859.00    1.75750   1.67912   -1.000
 5860.00    1.78351   1.69153   -1.000
 5861.00    1.80160   1.70807   -1.000
 5862.00    1.79852   1.72236   -1.000
 5863.00    1.79211   1.73229   -1.000
 5864.00    1.79983   1.73766   -1.000
 5865.00    1.79187   1.73818   -1.000
 5866.00    1.78505   1.73526   -1.000
 5867.00    1.78369   1.73226   -1.000
 5868.00    1.78724   1.73337   -1.000
 5869.00    1.79925   1.74029   -1.000
 5870.00    1.82153   1.75026   -1.000
 5871.00    1.82384   1.75863   -1.000
 5872.00    1.82441   1.76229   -1.000
 5873.00    1.81597   1.76151   -1.000
 5874.00    1.81444   1.75847   -1.000
 5875.00    1.82694   1.75502   -1.000
 5876.00    1.83114   1.75154   -1.000
 5877.00    1.81710   1.74754   -1.000
 5878.00    1.80485   1.74240   -1.000
 5879.00    1.78258   1.73598   -1.000
 5880.00    1.75974   1.72864   64.454
 5881.00    1.76034   1.72059   -1.000
 5882.00    1.74630   1.71156   64.283
 5883.00    1.70809   1.70138   64.590
 5884.00    1.71510   1.68954   64.618
 5885.00    1.72090   1.67378   -1.000
 5886.00    1.66995   1.64771   65.724
 5887.00    1.53805   1.60182   -1.000
 5888.00    1.30630   1.53411   -1.000
 5889.00    1.09362   1.45729   -1.000
 5890.00    1.11146   1.39823   -1.000
 5891.00    1.32205   1.37709   -1.000
 5892.00    1.51497   1.38808   -1.000
 5893.00    1.52327   1.40944   -1.000
 5894.00    1.38899   1.41920   72.874
 5895.00    1.28497   1.41462   -1.000
 5896.00    1.32161   1.40977   -1.000
 5897.00    1.47575   1.42244   -1.000
 5898.00    1.62747   1.45909   -1.000
 5899.00    1.70880   1.51052   -1.000
 5900.00    1.74071   1.56467   -1.000
 5901.00    1.75999   1.61241   -1.000
 5902.00    1.77438   1.64976   -1.000
 5903.00    1.78928   1.67617   -1.000
 5904.00    1.78478   1.69286   -1.000
 5905.00    1.77716   1.70278   -1.000
 5906.00    1.77912   1.70929   -1.000
 5907.00    1.77945   1.71436   -1.000
 5908.00    1.78634   1.71891   -1.000
 5909.00    1.79554   1.72302   -1.000
 5910.00    1.79506   1.72592   -1.000
 5911.00    1.78319   1.72623   -1.000
 5912.00    1.77753   1.72253   -1.000
 5913.00    1.76029   1.71467   -1.000
 5914.00    1.73145   1.70548   66.639
 5915.00    1.72987   1.69882   66.438
 5916.00    1.74004   1.69766   -1.000
 5917.00    1.74944   1.70258   -1.000
 5918.00    1.75657   1.71151   -1.000
 5919.00    1.75744   1.72084   -1.000
 5920.00    1.76562   1.72752   -1.000
 5921.00    1.77284   1.73075   -1.000
 5922.00    1.77435   1.73150   -1.000
 5923.00    1.77982   1.73194   -1.000
 5924.00    1.78240   1.73352   -1.000
 5925.00    1.79552   1.73651   -1.000
 5926.00    1.79772   1.73921   -1.000
 5927.00    1.79231   1.73899   -1.000
 5928.00    1.77056   1.73440   -1.000
 5929.00    1.75307   1.72729   65.780
 5930.00    1.75800   1.72173   65.636
 5931.00    1.76595   1.72077   -1.000
 5932.00    1.76885   1.72389   -1.000
 5933.00    1.77497   1.72773   -1.000
 5934.00    1.76951   1.73084   -1.000
 5935.00    1.76268   1.73410   65.747
 5936.00    1.76229   1.73842   65.261
 5937.00    1.78328   1.74317   -1.000
 5938.00    1.78619   1.74591   -1.000
 5939.00    1.78459   1.74490   -1.000
 5940.00    1.76419   1.74060   65.529
 5941.00    1.73691   1.73541   65.831
 5942.00    1.75210   1.73238   65.736
 5943.00    1.76748   1.73275   65.306
 5944.00    1.77607   1.73581   -1.000
 5945.00    1.77101   1.73897   64.693
 5946.00    1.77861   1.73986   -1.000
 5947.00    1.77328   1.73748   -1.000
 5948.00    1.75511   1.73333   66.279
 5949.00    1.74527   1.72987   66.340
 5950.00    1.75285   1.72820   65.944
 5951.00    1.76067   1.72747   65.722
 5952.00    1.75122   1.72583   65.952
 5953.00    1.73837   1.72390   65.852
 5954.00    1.74775   1.72296   65.727
 5955.00    1.75594   1.72262   65.762
 5956.00    1.75475   1.72233   66.071
 5957.00    1.73702   1.72269   66.131
 5958.00    1.74540   1.72527   65.827
 5959.00    1.77635   1.73139   -1.000
 5960.00    1.78948   1.73972   -1.000
 5961.00    1.79784   1.74760   -1.000
 5962.00    1.79967   1.75295   -1.000
 5963.00    1.79982   1.75477   -1.000
 5964.00    1.79157   1.75335   -1.000
 5965.00    1.76893   1.75005   64.903
 5966.00    1.76793   1.74681   65.148
 5967.00    1.77131   1.74552   64.935
 5968.00    1.78752   1.74689   -1.000
 5969.00    1.80453   1.75042   -1.000
 5970.00    1.79791   1.75502   -1.000
 5971.00    1.79934   1.75888   -1.000
 5972.00    1.80593   1.76054   -1.000
 5973.00    1.79450   1.75886   -1.000
 5974.00    1.77968   1.75323   65.015
 5975.00    1.76389   1.74442   65.506
 5976.00    1.74131   1.73495   65.969
 5977.00    1.74523   1.72864   66.239
 5978.00    1.76007   1.72831   65.854
 5979.00    1.76662   1.73345   65.265
 5980.00    1.77382   1.74044   65.069
 5981.00    1.77367   1.74420   65.278
 5982.00    1.77281   1.74180   65.863
 5983.00    1.75926   1.73396   66.441
 5984.00    1.74378   1.72525   66.730
 5985.00    1.74425   1.72064   66.411
 5986.00    1.76865   1.72212   -1.000
 5987.00    1.78214   1.72827   -1.000
 5988.00    1.79194   1.73588   -1.000
 5989.00    1.79043   1.74257   -1.000
 5990.00    1.78974   1.74746   -1.000
 5991.00    1.80052   1.75143   -1.000
 5992.00    1.79110   1.75599   64.703
 5993.00    1.80381   1.76183   -1.000
 5994.00    1.81004   1.76664   -1.000
 5995.00    1.79849   1.76787   64.550
 5996.00    1.79610   1.76504   64.984
 5997.00    1.78551   1.75999   65.247
 5998.00    1.78445   1.75583   65.364
 5999.00    1.78920   1.75356   -1.000
 6000.00    1.78744   1.75225   -1.000
 6001.00    1.78380   1.74997   65.744
 6002.00    1.77885   1.74614   65.926
 6003.00    1.76967   1.74205   65.873
 6004.00    1.76938   1.73908   65.673
 6005.00    1.77167   1.73637   -1.000
 6006.00    1.76813   1.73155   -1.000
 6007.00    1.74159   1.72467   66.981
 6008.00    1.72931   1.71947   66.867
 6009.00    1.74309   1.72003   66.002
 6010.00    1.76897   1.72673   -1.000
 6011.00    1.77141   1.73481   -1.000
 6012.00    1.77185   1.73949   66.039
 6013.00    1.76888   1.73957   66.351
 6014.00    1.75455   1.73655   65.924
 6015.00    1.76035   1.73329   65.982
 6016.00    1.76180   1.73065   66.306
 6017.00    1.75167   1.72841   66.406
 6018.00    1.75646   1.72549   66.192
 6019.00    1.74720   1.72131   66.460
 6020.00    1.74167   1.71653   66.908
 6021.00    1.74369   1.71316   66.545
 6022.00    1.75327   1.71297   -1.000
 6023.00    1.74719   1.71602   65.986
 6024.00    1.75054   1.72222   65.902
 6025.00    1.76143   1.73137   65.457
 6026.00    1.77407   1.74207   65.303
 6027.00    1.77310   1.75240   64.847
 6028.00    1.78044   1.76145   64.592
 6029.00    1.78819   1.76881   64.527
 6030.00    1.78646   1.77447   64.556
 6031.00    1.78754   1.77852   64.727
 6032.00    1.79219   1.78152   64.565
 6033.00    1.80155   1.78415   64.258
 6034.00    1.79856   1.78645   64.117
 6035.00    1.79896   1.78767   64.105
 6036.00    1.80269   1.78720   63.968
 6037.00    1.80069   1.78510   64.071
 6038.00    1.79535   1.78166   64.479
 6039.00    1.78979   1.77752   64.565
 6040.00    1.78698   1.77368   64.790
 6041.00    1.77554   1.77136   64.595
 6042.00    1.78292   1.77138   64.526
 6043.00    1.79197   1.77380   64.153
 6044.00    1.79020   1.77806   63.621
 6045.00    1.80475   1.78309   63.743
 6046.00    1.80667   1.78792   63.740
 6047.00    1.80452   1.79243   63.620
 6048.00    1.80263   1.79620   63.711
 6049.00    1.80093   1.79893   63.955
 6050.00    1.80782   1.80000   64.082
 6051.00    1.80637   1.79914   64.130
 6052.00    1.80961   1.79620   64.265
 6053.00    1.79525   1.79093   64.548
 6054.00    1.77818   1.78401   64.731
 6055.00    1.77791   1.77708   65.120
 6056.00    1.78028   1.77267   65.287
 6057.00    1.78601   1.77227   65.136
 6058.00    1.77877   1.77566   64.761
 6059.00    1.78566   1.78070   64.436
 6060.00    1.79174   1.78500   64.571
 6061.00    1.79021   1.78596   64.718
 6062.00    1.77903   1.78142   65.765
 6063.00    1.73803   1.77093   67.088
 6064.00    1.72362   1.75696   64.363
 6065.00    1.68000   1.74557   -1.000
 6066.00    1.19130   1.74305   -1.000
 6067.00    0.89420   1.75061   -1.000
 6068.00    1.67107   1.76458   -1.000
 6069.00    1.81934   1.77934   -1.000
 6070.00    1.82940   1.79055   -1.000
 6071.00    1.82972   1.79744   62.056
 6072.00    1.89065   1.80097   -1.000
 6073.00    1.81194   1.80270   63.955
 6074.00    1.79864   1.80302   63.994
 6075.00    1.80140   1.80120   64.236
 6076.00    1.78790   1.79647   64.583
 6077.00    1.77431   1.78900   64.955
 6078.00    1.76663   1.78042   65.481
 6079.00    1.76559   1.77281   65.862
 6080.00    1.76193   1.76710   65.851
 6081.00    1.76922   1.76285   65.922
 6082.00    1.74718   1.75964   66.128
 6083.00    1.74405   1.75737   66.094
 6084.00    1.74183   1.75650   66.044
 6085.00    1.74162   1.75775   65.971
 6086.00    1.75296   1.76103   65.763
 6087.00    1.76451   1.76520   65.489
 6088.00    1.76184   1.76804   65.673
 6089.00    1.75360   1.76832   66.102
 6090.00    1.74546   1.76638   66.361
 6091.00    1.72391   1.76418   66.289
 6092.00    1.73379   1.76405   65.815
 6093.00    1.75427   1.76686   65.507
 6094.00    1.77198   1.77212   65.126
 6095.00    1.77833   1.77816   64.857
 6096.00    1.77431   1.78362   64.919
 6097.00    1.76797   1.78702   65.095
 6098.00    1.76821   1.78665   65.119
 6099.00    1.75954   1.77987   65.121
 6100.00    1.76251   1.76423   66.006
 6101.00    1.73535   1.74092   67.730
 6102.00    1.69437   1.71648   68.727
 6103.00    1.67661   1.70124   68.039
 6104.00    1.70818   1.70203   66.659
 6105.00    1.74825   1.71638   65.700
 6106.00    1.75582   1.73678   65.565
 6107.00    1.74910   1.75541   65.865
 6108.00    1.74219   1.76903   66.008
 6109.00    1.74729   1.77809   65.959
 6110.00    1.75361   1.78335   65.804
 6111.00    1.75458   1.78620   65.496
 6112.00    1.75918   1.78816   65.522
 6113.00    1.75634   1.79038   65.123
 6114.00    1.75597   1.79312   64.998
 6115.00    1.75677   1.79509   65.298
 6116.00    1.75352   1.79490   65.749
 6117.00    1.75366   1.79171   65.793
 6118.00    1.75133   1.78376   66.150
 6119.00    1.73970   1.76907   67.192
 6120.00    1.71349   1.74698   68.039
 6121.00    1.67639   1.72085   68.661
 6122.00    1.66083   1.69912   68.644
 6123.00    1.68631   1.68945   67.391
 6124.00    1.71774   1.69433   66.573
 6125.00    1.72646   1.71008   66.651
 6126.00    1.72259   1.72906   67.080
 6127.00    1.71609   1.74615   66.928
 6128.00    1.71710   1.75941   66.784
 6129.00    1.72259   1.77015   66.185
 6130.00    1.73586   1.77949   65.556
 6131.00    1.74550   1.78735   65.483
 6132.00    1.74282   1.79138   65.633
 6133.00    1.74331   1.78765   66.318
 6134.00    1.70970   1.77210   -1.000
 6135.00    1.66060   1.74501   -1.000
 6136.00    1.62102   1.71335   -1.000
 6137.00    1.60079   1.68883   -1.000
 6138.00    1.62271   1.68034   -1.000
 6139.00    1.66908   1.68665   67.730
 6140.00    1.69546   1.70162   67.128
 6141.00    1.69016   1.71894   67.335
 6142.00    1.67614   1.73608   -1.000
 6143.00    1.69009   1.75287   -1.000
 6144.00    1.72056   1.76710   65.848
 6145.00    1.73281   1.77657   65.838
 6146.00    1.72889   1.78029   66.181
 6147.00    1.71442   1.77887   -1.000
 6148.00    1.71033   1.77417   -1.000
 6149.00    1.70304   1.76780   -1.000
 6150.00    1.69052   1.76181   -1.000
 6151.00    1.69460   1.75846   -1.000
 6152.00    1.72263   1.75819   66.667
 6153.00    1.72212   1.75870   66.640
 6154.00    1.71318   1.75747   67.286
 6155.00    1.70310   1.75405   67.590
 6156.00    1.69839   1.74938   67.605
 6157.00    1.69663   1.74329   67.924
 6158.00    1.68135   1.73206   68.700
 6159.00    1.66626   1.71047   70.085
 6160.00    1.62431   1.67646   72.315
 6161.00    1.57461   1.63590   -1.000
 6162.00    1.53728   1.60058   -1.000
 6163.00    1.54122   1.58240   73.601
 6164.00    1.57597   1.58478   71.468
 6165.00    1.60601   1.60157   70.504
 6166.00    1.62668   1.62175   70.284
 6167.00    1.62606   1.63518   70.521
 6168.00    1.60288   1.63898   71.537
 6169.00    1.59616   1.63773   72.218
 6170.00    1.59087   1.64055   71.526
 6171.00    1.61889   1.65148   70.043
 6172.00    1.64039   1.66942   69.131
 6173.00    1.64219   1.68898   69.327
 6174.00    1.64357   1.70537   -1.000
 6175.00    1.63947   1.71695   -1.000
 6176.00    1.64482   1.72429   -1.000
 6177.00    1.65055   1.72932   -1.000
 6178.00    1.65865   1.73343   -1.000
 6179.00    1.67472   1.73762   -1.000
 6180.00    1.67952   1.74245   -1.000
 6181.00    1.67788   1.74803   -1.000
 6182.00    1.68561   1.75322   -1.000
 6183.00    1.68879   1.75603   -1.000
 6184.00    1.67872   1.75480   -1.000
 6185.00    1.66740   1.74944   -1.000
 6186.00    1.63639   1.74091   -1.000
 6187.00    1.62706   1.73047   -1.000
 6188.00    1.62740   1.71845   -1.000
 6189.00    1.61428   1.70449   -1.000
 6190.00    1.60635   1.68980   -1.000
 6191.00    1.58064   1.67881   -1.000
 6192.00    1.58795   1.67716   -1.000
 6193.00    1.60894   1.68572   -1.000
 6194.00    1.63830   1.70077   -1.000
 6195.00    1.65956   1.71664   68.329
 6196.00    1.66246   1.72844   -1.000
 6197.00    1.65798   1.73446   -1.000
 6198.00    1.64484   1.73450   -1.000
 6199.00    1.62196   1.73069   -1.000
 6200.00    1.61147   1.72695   -1.000
 6201.00    1.61988   1.72700   -1.000
 6202.00    1.62755   1.73183   -1.000
 6203.00    1.64625   1.74017   -1.000
 6204.00    1.65071   1.74912   -1.000
 6205.00    1.66175   1.75660   -1.000
 6206.00    1.67948   1.76175   -1.000
 6207.00    1.67634   1.76457   -1.000
 6208.00    1.67394   1.76472   -1.000
 6209.00    1.67821   1.76126   -1.000
 6210.00    1.66526   1.75301   -1.000
 6211.00    1.64060   1.73985   -1.000
 6212.00    1.62375   1.72336   -1.000
 6213.00    1.60345   1.70698   -1.000
 6214.00    1.59455   1.69415   -1.000
 6215.00    1.59922   1.68642   -1.000
 6216.00    1.60498   1.68267   -1.000
 6217.00    1.61303   1.68048   -1.000
 6218.00    1.61879   1.67837   -1.000
 6219.00    1.61430   1.67752   -1.000
 6220.00    1.60820   1.67955   -1.000
 6221.00    1.62081   1.68517   -1.000
 6222.00    1.63460   1.69226   -1.000
 6223.00    1.62918   1.69850   -1.000
 6224.00    1.62598   1.70264   -1.000
 6225.00    1.63181   1.70402   -1.000
 6226.00    1.64027   1.70236   -1.000
 6227.00    1.63785   1.69601   -1.000
 6228.00    1.62747   1.68396   -1.000
 6229.00    1.60241   1.66768   -1.000
 6230.00    1.57201   1.65204   -1.000
 6231.00    1.56659   1.64329   -1.000
 6232.00    1.56879   1.64514   -1.000
 6233.00    1.59541   1.65647   -1.000
 6234.00    1.61461   1.67218   -1.000
 6235.00    1.62036   1.68614   -1.000
 6236.00    1.62490   1.69459   -1.000
 6237.00    1.62024   1.69647   -1.000
 6238.00    1.60526   1.69371   -1.000
 6239.00    1.59670   1.68833   -1.000
 6240.00    1.58165   1.68202   -1.000
 6241.00    1.57622   1.67496   -1.000
 6242.00    1.57574   1.66686   -1.000
 6243.00    1.57413   1.65780   -1.000
 6244.00    1.56118   1.64930   -1.000
 6245.00    1.56690   1.64424   -1.000
 6246.00    1.57910   1.64597   -1.000
 6247.00    1.59313   1.65561   -1.000
 6248.00    1.60790   1.66989   -1.000
 6249.00    1.62342   1.68250   -1.000
 6250.00    1.61924   1.68676   -1.000
 6251.00    1.59312   1.68071   -1.000
 6252.00    1.56632   1.66722   -1.000
 6253.00    1.55463   1.65260   -1.000
 6254.00    1.54652   1.64178   -1.000
 6255.00    1.54980   1.63623   -1.000
 6256.00    1.54135   1.63464   -1.000
 6257.00    1.52028   1.63511   -1.000
 6258.00    1.52019   1.63779   -1.000
 6259.00    1.54499   1.64374   -1.000
 6260.00    1.56378   1.65405   -1.000
 6261.00    1.58930   1.66770   -1.000
 6262.00    1.61195   1.68223   -1.000
 6263.00    1.61688   1.69440   -1.000
 6264.00    1.62427   1.70290   -1.000
 6265.00    1.60836   1.70867   -1.000
 6266.00    1.60716   1.71319   -1.000
 6267.00    1.61605   1.71693   -1.000
 6268.00    1.61398   1.71889   -1.000
 6269.00    1.60681   1.71874   -1.000
 6270.00    1.61050   1.71782   -1.000
 6271.00    1.62181   1.71751   -1.000
 6272.00    1.62079   1.71747   -1.000
 6273.00    1.61123   1.71505   -1.000
 6274.00    1.60446   1.70740   -1.000
 6275.00    1.57958   1.69443   -1.000
 6276.00    1.55990   1.67842   -1.000
 6277.00    1.54468   1.66342   -1.000
 6278.00    1.52008   1.65230   -1.000
 6279.00    1.51294   1.64692   -1.000
 6280.00    1.49806   1.64838   -1.000
 6281.00    1.48702   1.65672   -1.000
 6282.00    1.50263   1.67056   -1.000
 6283.00    1.51847   1.68718   -1.000
 6284.00    1.54265   1.70292   -1.000
 6285.00    1.56963   1.71541   -1.000
 6286.00    1.58908   1.72337   -1.000
 6287.00    1.61062   1.72721   -1.000
 6288.00    1.63157   1.72754   -1.000
 6289.00    1.63278   1.72510   -1.000
 6290.00    1.62778   1.72125   -1.000
 6291.00    1.62052   1.71735   -1.000
 6292.00    1.61697   1.71435   -1.000
 6293.00    1.61219   1.71227   -1.000
 6294.00    1.61157   1.70988   -1.000
 6295.00    1.60901   1.70575   -1.000
 6296.00    1.59353   1.69915   -1.000
 6297.00    1.57063   1.69133   -1.000
 6298.00    1.57035   1.68421   -1.000
 6299.00    1.57942   1.67869   -1.000
 6300.00    1.59405   1.67451   -1.000
 6301.00    1.58818   1.67234   -1.000
 6302.00    1.59006   1.67466   -1.000
 6303.00    1.60680   1.68350   -1.000
 6304.00    1.62616   1.69754   -1.000
 6305.00    1.63823   1.71286   -1.000
 6306.00    1.64264   1.72554   -1.000
 6307.00    1.64737   1.73376   -1.000
 6308.00    1.66411   1.73791   -1.000
 6309.00    1.66315   1.73943   -1.000
 6310.00    1.65041   1.73934   -1.000
 6311.00    1.64107   1.73763   -1.000
 6312.00    1.64012   1.73388   -1.000
 6313.00    1.64176   1.72746   -1.000
 6314.00    1.63137   1.71914   -1.000
 6315.00    1.62239   1.71050   -1.000
 6316.00    1.61672   1.70316   -1.000
 6317.00    1.61371   1.69889   -1.000
 6318.00    1.60097   1.69909   -1.000
 6319.00    1.61607   1.70443   -1.000
 6320.00    1.63900   1.71356   -1.000
 6321.00    1.65190   1.72387   -1.000
 6322.00    1.64928   1.73364   -1.000
 6323.00    1.65468   1.74274   -1.000
 6324.00    1.67488   1.75103   -1.000
 6325.00    1.68702   1.75775   -1.000
 6326.00    1.68565   1.76200   -1.000
 6327.00    1.68073   1.76372   -1.000
 6328.00    1.68107   1.76425   -1.000
 6329.00    1.68020   1.76476   -1.000
 6330.00    1.68883   1.76581   -1.000
 6331.00    1.69340   1.76655   -1.000
 6332.00    1.70098   1.76476   -1.000
 6333.00    1.68989   1.75830   -1.000
 6334.00    1.67262   1.74712   -1.000
 6335.00    1.70654   1.73432   71.148
 6336.00    1.65543   1.72469   -1.000
 6337.00    1.65419   1.72204   -1.000
 6338.00    1.68065   1.72695   69.749
 6339.00    1.68643   1.73721   68.974
 6340.00    1.70138   1.74900   68.683
 6341.00    1.71209   1.75827   68.340
 6342.00    1.70163   1.76276   -1.000
 6343.00    1.68647   1.76281   -1.000
 6344.00    1.69138   1.76125   -1.000
 6345.00    1.69212   1.76136   -1.000
 6346.00    1.69215   1.76509   -1.000
 6347.00    1.71010   1.77228   -1.000
 6348.00    1.71500   1.78102   -1.000
 6349.00    1.71185   1.78867   -1.000
 6350.00    1.71713   1.79316   -1.000
 6351.00    1.71601   1.79355   -1.000
 6352.00    1.70287   1.78980   -1.000
 6353.00    1.69543   1.78273   -1.000
 6354.00    1.67861   1.77394   -1.000
 6355.00    1.66738   1.76530   -1.000
 6356.00    1.66630   1.75786   -1.000
 6357.00    1.66002   1.75126   -1.000
 6358.00    1.64400   1.74517   -1.000
 6359.00    1.62983   1.73953   -1.000
 6360.00    1.63111   1.73445   -1.000
 6361.00    1.64651   1.73021   -1.000
 6362.00    1.64209   1.72746   -1.000
 6363.00    1.64641   1.72724   -1.000
 6364.00    1.65464   1.73011   -1.000
 6365.00    1.66544   1.73582   -1.000
 6366.00    1.67934   1.74322   -1.000
 6367.00    1.69062   1.75082   -1.000
 6368.00    1.70217   1.75710   68.061
 6369.00    1.70644   1.76156   67.912
 6370.00    1.70700   1.76498   67.980
 6371.00    1.71927   1.76858   67.721
 6372.00    1.72769   1.77279   67.452
 6373.00    1.72158   1.77668   67.674
 6374.00    1.71610   1.77889   -1.000
 6375.00    1.71915   1.77847   67.867
 6376.00    1.71528   1.77561   -1.000
 6377.00    1.71071   1.77108   -1.000
 6378.00    1.69371   1.76578   -1.000
 6379.00    1.67548   1.75998   -1.000
 6380.00    1.67842   1.75404   -1.000
 6381.00    1.68657   1.74859   -1.000
 6382.00    1.68378   1.74478   -1.000
 6383.00    1.67965   1.74352   -1.000
 6384.00    1.67466   1.74511   -1.000
 6385.00    1.66638   1.74868   -1.000
 6386.00    1.66255   1.75259   -1.000
 6387.00    1.66299   1.75513   -1.000
 6388.00    1.66180   1.75563   -1.000
 6389.00    1.65402   1.75383   -1.000
 6390.00    1.64287   1.74945   -1.000
 6391.00    1.62814   1.74240   -1.000
 6392.00    1.60452   1.73435   -1.000
 6393.00    1.58160   1.72879   -1.000
 6394.00    1.57924   1.72870   -1.000
 6395.00    1.59609   1.73388   -1.000
 6396.00    1.61062   1.74018   -1.000
 6397.00    1.60307   1.74232   -1.000
 6398.00    1.57795   1.73798   -1.000
 6399.00    1.54928   1.73002   -1.000
 6400.00    1.53570   1.72491   -1.000
 6401.00    1.53307   1.72740   -1.000
 6402.00    1.55312   1.73788   -1.000
 6403.00    1.58069   1.75188   -1.000
 6404.00    1.57786   1.76358   -1.000
 6405.00    1.56423   1.76890   -1.000
 6406.00    1.55693   1.76762   -1.000
 6407.00    1.53786   1.76297   -1.000
 6408.00    1.51315   1.75843   -1.000
 6409.00    1.50992   1.75560   -1.000
 6410.00    1.50845   1.75380   -1.000
 6411.00    1.49875   1.75297   -1.000
 6412.00    1.47804   1.75389   -1.000
 6413.00    1.46102   1.75697   -1.000
 6414.00    1.46267   1.76125   -1.000
 6415.00    1.45521   1.76499   -1.000
 6416.00    1.44644   1.76656   -1.000
 6417.00    1.43503   1.76486   -1.000
 6418.00    1.41941   1.75930   -1.000
 6419.00    1.39449   1.75107   -1.000
 6420.00    1.36102   1.74364   -1.000
 6421.00    1.35002   1.74130   -1.000
 6422.00    1.35201   1.74663   -1.000
 6423.00    1.35684   1.75817   -1.000
 6424.00    1.36752   1.77182   -1.000
 6425.00    1.35429   1.78373   -1.000
 6426.00    1.33915   1.79086   -1.000
 6427.00    1.33352   1.79160   -1.000
 6428.00    1.31473   1.78525   -1.000
