###################################################################
## OUTPUT of StarlightChains_v04.for    [Cid@UFSC - 01/Apr/2007] ##
###################################################################

## Some input info
NGC6569_a_1.cxt                          [arq_obs]
Base.BC03.N                              [arq_base]
NGC6569_a_1.msk                          [arq_masks]
StCv04.C11.config                        [arq_config]
   45                                    [N_base]
    0                                    [N_YAV_components = # of components with extra extinction!]
    0                                    [i_FitPowerLaw (1/0 = Yes/No)]
-9.99                                    [alpha_PowerLaw]
CCM                                      [red_law_option]
 1.458241                                [q_norm = A(l_norm)/A(V)]

## (Re)Sampling Parameters
 3359.00                                 [l_ini (A)]
 6428.00                                 [l_fin (A)]
    1.00                                 [dl    (A)]     (OBS: dl_cushion =    50.00 A)

## Normalization info
 4020.00                                 [l_norm (A) - for base]
 4010.00                                 [llow_norm (A) - window for f_obs]
 4060.00                                 [lupp_norm (A) - window for f_obs]
3.450800E-15                             [fobs_norm (in input units)]

## S/N
 4730.00                                 [llow_SN (A) - window for S/N]
 4780.00                                 [lupp_SN (A) - window for S/N]
  49.160                                 [S/N in S/N window]
  30.918                                 [S/N in norm. window]
 207.538                                 [S/N_err in S/N window]
 130.528                                 [S/N_err in norm. window]
  1.0000                                 [fscale_chi2]

## etc...
  2147483598                             [idum_orig]
  3069                                   [NOl_eff]
   697                                   [Nl_eff]
  2372    NSIGMA                         [Ntot_cliped & clip_method]
  1286460                                [Nglobal_steps]
   7                                     [N_chains]
  12                                     [NEX0s_base = N_base in EX0s-fits]
 0   0   1       50   2.0   3.259E+02    [Clip-Bug, RC-Crash & Burn-In warning-flags, n_censored_weights, wei_nsig_threshold & wei_limit]
    14     13.820     13.820      0.000  [idt_all, wdt_TotTime, wdt_UsrTime & wdt_SysTime (sec)]

## Synthesis Results - Best model ##

 2.80315E+00                             [chi2/Nl_eff]
     1.56781                             [adev (%)]

    98.49367                             [sum-of-x (%)]
 4.38586E-14                             [Flux_tot (units of input spectrum!)]
 9.03311E-10                             [Mini_tot (???)]
 4.64492E-10                             [Mcor_tot (???)]

 -13.02                                  [v0_min  (km/s)]
  24.76                                  [vd_min  (km/s)]
 1.9042                                  [AV_min  (mag)]
 0.0000                                  [YAV_min (mag)]

# j     x_j(%)      Mini_j(%)     Mcor_j(%)     age_j(yr)     Z_j      (L/M)_j    YAV?  Mstars   component_j        a/Fe...       SSP_chi2r SSP_adev(%)   SSP_AV   SSP_x(%)
  1      0.0000     0.0000E+00    0.0000E+00    1.000000E+06  0.00400  1.114E-02    0   1.0000   age020_m42            0.0000     3.5126E+03    32.5240   4.0000   104.7399
  2      6.7254     8.1398E-03    1.5828E-02    3.160000E+06  0.00400  4.073E-02    0   0.9999   age045_m42            0.0000     3.4664E+02     9.7526   4.0000   101.2555
  3      1.6710     3.2507E-03    5.9980E-03    5.010000E+06  0.00400  2.534E-02    0   0.9488   age055_m42            0.0000     1.1397E+03    19.3209   4.0000   104.2021
  4     16.3032     6.3232E-02    1.0898E-01    1.000000E+07  0.00400  1.271E-02    0   0.8862   age070_m42            0.0000     1.7344E+02     8.1713   3.8507    92.3573
  5      2.2612     2.1986E-02    3.4949E-02    2.512000E+07  0.00400  5.070E-03    0   0.8174   age090_m42            0.0000     1.4986E+02     7.5424   3.7250    93.9388
  6      0.0000     0.0000E+00    0.0000E+00    4.000000E+07  0.00400  3.505E-03    0   0.7851   age104_m42            0.0000     1.0519E+02     5.9126   3.4368    96.3417
  7      0.0000     0.0000E+00    0.0000E+00    1.015200E+08  0.00400  2.268E-03    0   0.7207   age116_m42            0.0000     4.7990E+02    11.0689   3.5647   101.4725
  8      0.0000     0.0000E+00    0.0000E+00    2.861200E+08  0.00400  1.079E-03    0   0.6613   age125_m42            0.0000     5.2207E+02    11.8644   3.0824   103.0666
  9      0.0000     0.0000E+00    0.0000E+00    6.405400E+08  0.00400  5.077E-04    0   0.6197   age132_m42            0.0000     5.4883E+02    12.5448   2.7214   106.9392
 10      0.0000     0.0000E+00    0.0000E+00    9.047900E+08  0.00400  3.535E-04    0   0.6024   age135_m42            0.0000     3.9565E+02    10.8269   2.4716   106.6995
 11      0.0000     0.0000E+00    0.0000E+00    1.434000E+09  0.00400  1.910E-04    0   0.5716   age139_m42            0.0000     2.3284E+02     8.6633   1.9431   106.1472
 12      7.6135     3.8227E+00    4.0612E+00    2.500000E+09  0.00400  9.818E-05    0   0.5463   age150_m42            0.0000     1.1664E+02     6.4839   1.6453   102.5192
 13     48.6405     5.0822E+01    5.1671E+01    5.000000E+09  0.00400  4.718E-05    0   0.5228   age161_m42            0.0000     8.0712E+01     5.5525   1.4575   100.0542
 14      8.0416     1.7978E+01    1.7411E+01    1.100000E+10  0.00400  2.205E-05    0   0.4980   age185_m42            0.0000     1.3861E+02     6.8069   1.1930    98.4096
 15      1.1271     2.9506E+00    2.8272E+00    1.300000E+10  0.00400  1.883E-05    0   0.4927   age193_m42            0.0000     1.4779E+02     6.9981   1.1743    98.3649
 16      0.0000     0.0000E+00    0.0000E+00    1.000000E+06  0.02000  1.989E-02    0   1.0000   age020_m62            0.0000     3.3108E+03    31.5800   4.0000   105.1819
 17      0.0000     0.0000E+00    0.0000E+00    3.160000E+06  0.02000  3.772E-02    0   0.9858   age045_m62            0.0000     2.6111E+03    28.7185   4.0000   105.8879
 18      2.7286     4.1682E-03    7.5726E-03    5.010000E+06  0.02000  3.227E-02    0   0.9342   age055_m62            0.0000     7.8105E+02    15.8096   4.0000   104.2477
 19      0.0000     0.0000E+00    0.0000E+00    1.000000E+07  0.02000  1.011E-02    0   0.8751   age070_m62            0.0000     4.1483E+02    13.1873   3.7990    90.4966
 20      0.0000     0.0000E+00    0.0000E+00    2.512000E+07  0.02000  4.206E-03    0   0.8099   age090_m62            0.0000     2.6934E+02    10.8756   3.7583    90.7247
 21      0.0000     0.0000E+00    0.0000E+00    4.000000E+07  0.02000  3.373E-03    0   0.7799   age104_m62            0.0000     1.5179E+02     6.2880   3.6565    97.3446
 22      0.0000     0.0000E+00    0.0000E+00    1.015200E+08  0.02000  1.878E-03    0   0.7221   age116_m62            0.0000     4.1593E+02    10.2559   3.5661   102.6718
 23      0.0000     0.0000E+00    0.0000E+00    2.861200E+08  0.02000  8.869E-04    0   0.6700   age125_m62            0.0000     7.7131E+02    14.4655   3.1190   107.3957
 24      0.0000     0.0000E+00    0.0000E+00    6.405400E+08  0.02000  3.657E-04    0   0.6322   age132_m62            0.0000     6.0168E+02    13.2370   2.4552   110.3120
 25      0.0000     0.0000E+00    0.0000E+00    9.047900E+08  0.02000  2.312E-04    0   0.6152   age135_m62            0.0000     4.0853E+02    11.0701   2.0687   110.0070
 26      0.0000     0.0000E+00    0.0000E+00    1.434000E+09  0.02000  1.168E-04    0   0.5865   age139_m62            0.0000     1.9792E+02     8.0038   1.6165   105.8951
 27      0.0000     0.0000E+00    0.0000E+00    2.500000E+09  0.02000  5.505E-05    0   0.5610   age150_m62            0.0000     2.0316E+02     8.2400   1.2365   103.7938
 28      0.0000     0.0000E+00    0.0000E+00    5.000000E+09  0.02000  2.596E-05    0   0.5353   age161_m62            0.0000     3.5527E+02    10.4506   0.9130   104.0115
 29      0.0000     0.0000E+00    0.0000E+00    1.100000E+10  0.02000  1.169E-05    0   0.5103   age185_m62            0.0000     5.7084E+02    12.8380   0.5623   105.5204
 30      1.2377     6.2960E+00    6.1796E+00    1.300000E+10  0.02000  9.691E-06    0   0.5047   age193_m62            0.0000     6.1099E+02    13.2327   0.5180   105.7894
 31      0.0000     0.0000E+00    0.0000E+00    1.000000E+06  0.05000  2.651E-02    0   0.9998   age020_m72            0.0000     3.3026E+03    31.2735   4.0000   106.3155
 32      0.0000     0.0000E+00    0.0000E+00    3.160000E+06  0.05000  4.817E-02    0   0.9577   age045_m72            0.0000     1.9639E+03    24.6477   4.0000   107.2719
 33      0.0000     0.0000E+00    0.0000E+00    5.010000E+06  0.05000  3.101E-02    0   0.9147   age055_m72            0.0000     7.7129E+02    16.8542   4.0000   102.6775
 34      0.0000     0.0000E+00    0.0000E+00    1.000000E+07  0.05000  8.954E-03    0   0.8524   age070_m72            0.0000     1.4224E+03    21.6599   4.0000   106.3654
 35      0.0000     0.0000E+00    0.0000E+00    2.512000E+07  0.05000  4.207E-03    0   0.7902   age090_m72            0.0000     3.8733E+02    11.4226   4.0000   102.3754
 36      0.0000     0.0000E+00    0.0000E+00    4.000000E+07  0.05000  3.198E-03    0   0.7618   age104_m72            0.0000     2.8675E+02     8.1473   3.9054    99.2767
 37      0.0000     0.0000E+00    0.0000E+00    1.015200E+08  0.05000  1.716E-03    0   0.7092   age116_m72            0.0000     4.8763E+02    11.0730   3.6612   102.5041
 38      0.0000     0.0000E+00    0.0000E+00    2.861200E+08  0.05000  7.047E-04    0   0.6618   age125_m72            0.0000     7.5278E+02    14.4301   2.9284   107.5684
 39      0.0000     0.0000E+00    0.0000E+00    6.405400E+08  0.05000  2.633E-04    0   0.6253   age132_m72            0.0000     4.9726E+02    12.1990   2.0916   109.7712
 40      0.0000     0.0000E+00    0.0000E+00    9.047900E+08  0.05000  1.484E-04    0   0.6088   age135_m72            0.0000     3.0589E+02    10.1173   1.5868   105.9227
 41      0.0000     0.0000E+00    0.0000E+00    1.434000E+09  0.05000  7.827E-05    0   0.5847   age139_m72            0.0000     3.0318E+02    10.1178   1.1817   103.3865
 42      0.0000     0.0000E+00    0.0000E+00    2.500000E+09  0.05000  3.759E-05    0   0.5583   age150_m72            0.0000     3.9702E+02    11.1089   0.8477   103.3712
 43      0.0000     0.0000E+00    0.0000E+00    5.000000E+09  0.05000  1.548E-05    0   0.5320   age161_m72            0.0000     5.8350E+02    12.7132   0.4393   103.5015
 44      1.0717     8.0880E+00    7.9746E+00    1.100000E+10  0.05000  6.532E-06    0   0.5070   age185_m72            0.0000     8.7442E+02    15.3230   0.0916   102.9985
 45      1.0721     9.9420E+00    9.7020E+00    1.300000E+10  0.05000  5.316E-06    0   0.5018   age193_m72            0.0000     1.0020E+03    16.4351  -0.0116   102.8262


## Synthesis Results - Average & Chains ##

# j      x_j: min, <> & last-chain-values for 1 ...  7 chains
  1      0.0000      0.0227      0.0000      0.0000      0.0000      0.0000      0.0000      0.0618      0.0000
  2      6.7254      6.3162      6.4032      6.2403      6.4108      6.4867      6.4799      6.6190      6.5005
  3      1.6710      1.4141      1.3838      1.3547      1.3921      1.4100      1.5111      1.3276      1.5123
  4     16.3032     15.7056     15.7814     15.8230     15.7999     15.6881     15.9751     15.5578     15.6750
  5      2.2612      2.2188      2.2052      2.2906      2.1814      2.1480      2.2304      2.2440      2.1189
  6      0.0000      0.0306      0.0013      0.0000      0.0000      0.0000      0.0000      0.0000      0.0915
  7      0.0000      0.0134      0.0000      0.0000      0.0741      0.0000      0.0000      0.0000      0.0186
  8      0.0000      0.0140      0.0000      0.0169      0.0000      0.0051      0.0000      0.0000      0.0000
  9      0.0000      0.0298      0.0000      0.0818      0.1375      0.0000      0.0000      0.0080      0.0176
 10      0.0000      0.0533      0.0122      0.0000      0.0428      0.2412      0.0000      0.0932      0.0000
 11      0.0000      0.0863      0.0769      0.0205      0.0000      0.0000      0.0536      0.0463      0.0000
 12      7.6135      8.4883      8.3757      8.5661      8.1371      8.3746      8.3206      8.4921      8.4744
 13     48.6405     46.4990     46.9848     46.7857     46.8082     46.6729     46.5625     47.0379     46.7482
 14      8.0416      8.4111      8.4953      8.1943      8.6376      7.9694      8.6035      8.1811      8.2964
 15      1.1271      1.4007      1.2481      1.3512      1.3403      1.3800      1.3583      1.4378      1.4246
 16      0.0000      0.0522      0.0000      0.0000      0.0000      0.2075      0.0000      0.1882      0.0000
 17      0.0000      0.1247      0.0000      0.1545      0.0201      0.1750      0.1924      0.0000      0.0096
 18      2.7286      2.6391      2.9265      2.7384      2.7039      2.5894      2.7000      2.6290      2.6842
 19      0.0000      0.5923      0.6174      0.6103      0.5728      0.7013      0.3949      0.4252      0.5592
 20      0.0000      0.0247      0.0000      0.1613      0.0000      0.0000      0.0000      0.0000      0.0000
 21      0.0000      0.0237      0.0000      0.0000      0.0000      0.0000      0.0000      0.0000      0.0000
 22      0.0000      0.0185      0.0000      0.0000      0.0000      0.0031      0.0000      0.0000      0.0000
 23      0.0000      0.0123      0.0000      0.0385      0.0000      0.0000      0.0000      0.0000      0.0000
 24      0.0000      0.0265      0.0000      0.0000      0.0000      0.0000      0.0093      0.0000      0.0000
 25      0.0000      0.0387      0.0000      0.0000      0.0000      0.0000      0.0000      0.0000      0.0531
 26      0.0000      0.1416      0.0000      0.0000      0.0000      0.3477      0.0270      0.1281      0.0000
 27      0.0000      0.1778      0.0000      0.3148      0.0383      0.0307      0.3571      0.2624      0.2155
 28      0.0000      0.0471      0.0000      0.0000      0.1215      0.1269      0.2689      0.0000      0.0930
 29      0.0000      0.0241      0.0000      0.0000      0.0000      0.0000      0.0000      0.0000      0.1709
 30      1.2377      1.0032      0.9807      0.9954      1.0914      1.0059      0.8594      0.9938      0.9383
 31      0.0000      0.0470      0.0000      0.0809      0.1779      0.0330      0.0000      0.1011      0.0622
 32      0.0000      0.0457      0.0000      0.0000      0.0000      0.0000      0.0000      0.0000      0.0668
 33      0.0000      0.0641      0.0000      0.0000      0.2390      0.0394      0.0024      0.2001      0.0000
 34      0.0000      0.0387      0.2073      0.0000      0.0000      0.0000      0.0000      0.0000      0.0000
 35      0.0000      0.0331      0.0000      0.0000      0.0040      0.0000      0.0000      0.0175      0.3454
 36      0.0000      0.0171      0.0000      0.0000      0.0000      0.0000      0.0471      0.0000      0.0000
 37      0.0000      0.0111      0.0000      0.0000      0.0000      0.0000      0.0000      0.0000      0.0160
 38      0.0000      0.0119      0.0000      0.0000      0.0000      0.0000      0.0000      0.0000      0.0000
 39      0.0000      0.0204      0.0000      0.1769      0.0000      0.0000      0.0000      0.0000      0.0000
 40      0.0000      0.0483      0.3485      0.0000      0.0000      0.0000      0.0364      0.0000      0.0000
 41      0.0000      0.0792      0.0000      0.0000      0.1603      0.1868      0.0762      0.0519      0.1507
 42      0.0000      0.0959      0.0952      0.2976      0.1280      0.3908      0.1575      0.0456      0.0000
 43      0.0000      0.0232      0.0000      0.0000      0.0000      0.0218      0.0229      0.0610      0.0000
 44      1.0717      1.1673      1.1954      1.1189      1.0816      1.1626      1.0866      1.1919      1.1533
 45      1.0721      1.2030      1.1810      1.1637      1.2386      1.1544      1.2060      1.1232      1.1366

# j      m_j: min, <> & last-chain-values for 1 ...  7 chains
  1  0.0000E+00  1.9299E-04  0.0000E+00  0.0000E+00  0.0000E+00  0.0000E+00  0.0000E+00  5.2852E-04  0.0000E+00
  2  1.5828E-02  1.4690E-02  1.4942E-02  1.4658E-02  1.4849E-02  1.5219E-02  1.5147E-02  1.5479E-02  1.5195E-02
  3  5.9980E-03  5.0164E-03  4.9251E-03  4.8532E-03  4.9179E-03  5.0458E-03  5.3875E-03  4.7354E-03  5.3916E-03
  4  1.0898E-01  1.0375E-01  1.0459E-01  1.0556E-01  1.0394E-01  1.0454E-01  1.0606E-01  1.0333E-01  1.0407E-01
  5  3.4949E-02  3.3890E-02  3.3795E-02  3.5335E-02  3.3182E-02  3.3097E-02  3.4240E-02  3.4464E-02  3.2527E-02
  6  0.0000E+00  6.5038E-04  2.6740E-05  0.0000E+00  0.0000E+00  0.0000E+00  0.0000E+00  0.0000E+00  1.9516E-03
  7  0.0000E+00  4.0308E-04  0.0000E+00  0.0000E+00  2.2217E-03  0.0000E+00  0.0000E+00  0.0000E+00  5.6407E-04
  8  0.0000E+00  8.1305E-04  0.0000E+00  9.9361E-04  0.0000E+00  2.9625E-04  0.0000E+00  0.0000E+00  0.0000E+00
  9  0.0000E+00  3.4445E-03  0.0000E+00  9.5481E-03  1.5831E-02  0.0000E+00  0.0000E+00  9.2451E-04  2.0426E-03
 10  0.0000E+00  8.6044E-03  1.9830E-03  0.0000E+00  6.8811E-03  3.9278E-02  0.0000E+00  1.5137E-02  0.0000E+00
 11  0.0000E+00  2.4476E-02  2.1868E-02  5.8812E-03  0.0000E+00  0.0000E+00  1.5283E-02  1.3186E-02  0.0000E+00
 12  4.0612E+00  4.4747E+00  4.4300E+00  4.5605E+00  4.2719E+00  4.4536E+00  4.4085E+00  4.5013E+00  4.4898E+00
 13  5.1671E+01  4.8815E+01  4.9489E+01  4.9604E+01  4.8937E+01  4.9429E+01  4.9129E+01  4.9652E+01  4.9324E+01
 14  1.7411E+01  1.7997E+01  1.8238E+01  1.7708E+01  1.8406E+01  1.7202E+01  1.8502E+01  1.7601E+01  1.7841E+01
 15  2.8272E+00  3.4723E+00  3.1041E+00  3.3827E+00  3.3088E+00  3.4511E+00  3.3842E+00  3.5839E+00  3.5492E+00
 16  0.0000E+00  2.4844E-04  0.0000E+00  0.0000E+00  0.0000E+00  9.9699E-04  0.0000E+00  9.0145E-04  0.0000E+00
 17  0.0000E+00  3.0878E-04  0.0000E+00  3.8646E-04  4.9481E-05  4.3699E-04  4.7892E-04  0.0000E+00  2.3969E-05
 18  7.5726E-03  7.2381E-03  8.0531E-03  7.5852E-03  7.3854E-03  7.1642E-03  7.4428E-03  7.2502E-03  7.3989E-03
 19  0.0000E+00  4.8574E-03  5.0794E-03  5.0547E-03  4.6780E-03  5.8012E-03  3.2551E-03  3.5058E-03  4.6086E-03
 20  0.0000E+00  4.5087E-04  0.0000E+00  2.9722E-03  0.0000E+00  0.0000E+00  0.0000E+00  0.0000E+00  0.0000E+00
 21  0.0000E+00  5.1880E-04  0.0000E+00  0.0000E+00  0.0000E+00  0.0000E+00  0.0000E+00  0.0000E+00  0.0000E+00
 22  0.0000E+00  6.7256E-04  0.0000E+00  0.0000E+00  0.0000E+00  1.1474E-04  0.0000E+00  0.0000E+00  0.0000E+00
 23  0.0000E+00  8.8283E-04  0.0000E+00  2.7812E-03  0.0000E+00  0.0000E+00  0.0000E+00  0.0000E+00  0.0000E+00
 24  0.0000E+00  4.3475E-03  0.0000E+00  0.0000E+00  0.0000E+00  0.0000E+00  1.5256E-03  0.0000E+00  0.0000E+00
 25  0.0000E+00  9.7647E-03  0.0000E+00  0.0000E+00  0.0000E+00  0.0000E+00  0.0000E+00  0.0000E+00  1.3451E-02
 26  0.0000E+00  6.7352E-02  0.0000E+00  0.0000E+00  0.0000E+00  1.6686E-01  1.2894E-02  6.1258E-02  0.0000E+00
 27  0.0000E+00  1.7166E-01  0.0000E+00  3.0697E-01  3.6850E-02  2.9914E-02  3.4654E-01  2.5478E-01  2.0911E-01
 28  0.0000E+00  9.1966E-02  0.0000E+00  0.0000E+00  2.3641E-01  2.5009E-01  5.2795E-01  0.0000E+00  1.8264E-01
 29  0.0000E+00  9.9627E-02  0.0000E+00  0.0000E+00  0.0000E+00  0.0000E+00  0.0000E+00  0.0000E+00  7.1014E-01
 30  6.1796E+00  4.9497E+00  4.8547E+00  4.9601E+00  5.3630E+00  5.0068E+00  4.2619E+00  4.9305E+00  4.6530E+00
 31  0.0000E+00  1.6793E-04  0.0000E+00  2.9210E-04  6.3299E-04  1.1909E-04  0.0000E+00  3.6340E-04  2.2319E-04
 32  0.0000E+00  8.6029E-05  0.0000E+00  0.0000E+00  0.0000E+00  0.0000E+00  0.0000E+00  0.0000E+00  1.2642E-04
 33  0.0000E+00  1.7902E-04  0.0000E+00  0.0000E+00  6.6524E-04  1.1117E-04  6.6329E-06  5.6232E-04  0.0000E+00
 34  0.0000E+00  3.4918E-04  1.8757E-03  0.0000E+00  0.0000E+00  0.0000E+00  0.0000E+00  0.0000E+00  0.0000E+00
 35  0.0000E+00  5.8895E-04  0.0000E+00  0.0000E+00  7.1357E-05  0.0000E+00  0.0000E+00  3.1288E-04  6.1773E-03
 36  0.0000E+00  3.8654E-04  0.0000E+00  0.0000E+00  0.0000E+00  0.0000E+00  1.0691E-03  0.0000E+00  0.0000E+00
 37  0.0000E+00  4.3459E-04  0.0000E+00  0.0000E+00  0.0000E+00  0.0000E+00  0.0000E+00  0.0000E+00  6.3048E-04
 38  0.0000E+00  1.0617E-03  0.0000E+00  0.0000E+00  0.0000E+00  0.0000E+00  0.0000E+00  0.0000E+00  0.0000E+00
 39  0.0000E+00  4.5998E-03  0.0000E+00  4.0203E-02  0.0000E+00  0.0000E+00  0.0000E+00  0.0000E+00  0.0000E+00
 40  0.0000E+00  1.8777E-02  1.3588E-01  0.0000E+00  0.0000E+00  0.0000E+00  1.4225E-02  0.0000E+00  0.0000E+00
 41  0.0000E+00  5.6069E-02  0.0000E+00  0.0000E+00  1.1296E-01  1.3339E-01  5.4231E-02  3.6932E-02  1.0721E-01
 42  0.0000E+00  1.3488E-01  1.3436E-01  4.2284E-01  1.7937E-01  5.5480E-01  2.2276E-01  6.4500E-02  0.0000E+00
 43  0.0000E+00  7.5617E-02  0.0000E+00  0.0000E+00  0.0000E+00  7.1477E-02  7.4902E-02  1.9984E-01  0.0000E+00
 44  7.9746E+00  8.5838E+00  8.8198E+00  8.3093E+00  7.9211E+00  8.6245E+00  8.0306E+00  8.8128E+00  8.5238E+00
 45  9.7020E+00  1.0758E+01  1.0597E+01  1.0510E+01  1.1031E+01  1.0415E+01  1.0840E+01  1.0100E+01  1.0216E+01

# AV, chi2 & Mass for <> & i_chain = 1 ...  7 solutions
AV       1.9042      1.8968      1.8991      1.8985      1.8967      1.8986      1.8963      1.8983      1.9005
chi2 2.8031E+00  2.8233E+00  2.8156E+00  2.8207E+00  2.8203E+00  2.8155E+00  2.8173E+00  2.8148E+00  2.8150E+00
Mass 4.6449E-10  4.6537E-10  4.6522E-10  4.6181E-10  4.6719E-10  4.6240E-10  4.6269E-10  4.6375E-10  4.6531E-10
 -13.02                                  [v0_min (km/s) before EX0s...]
  24.76                                  [vd_min (km/s) before EX0s...]


## Synthetic spectrum (Best Model) ##l_obs f_obs f_syn wei
 3070    [Nl_obs]
 3359.00    0.00000   0.45222   -2.000
 3360.00    0.06634   0.43267   -1.000
 3361.00    0.23380   0.43141   -1.000
 3362.00    0.26744   0.45365   -1.000
 3363.00    0.28680   0.48229   -1.000
 3364.00    0.28503   0.50081   -1.000
 3365.00    0.24681   0.50031   -1.000
 3366.00    0.25984   0.48473   -1.000
 3367.00    0.27531   0.46322   -1.000
 3368.00    0.32031   0.44827   -1.000
 3369.00    0.28700   0.44442   -1.000
 3370.00    0.27122   0.44562   -1.000
 3371.00    0.32512   0.44315   -1.000
 3372.00    0.29951   0.44020   -1.000
 3373.00    0.27664   0.44953   -1.000
 3374.00    0.28629   0.47094   -1.000
 3375.00    0.28970   0.50056   -1.000
 3376.00    0.32065   0.51720   -1.000
 3377.00    0.34979   0.50827   -1.000
 3378.00    0.35164   0.48797   -1.000
 3379.00    0.32892   0.46729   -1.000
 3380.00    0.33641   0.46052   -1.000
 3381.00    0.35680   0.46867   -1.000
 3382.00    0.30036   0.48644   -1.000
 3383.00    0.31409   0.50019   -1.000
 3384.00    0.33243   0.50781   -1.000
 3385.00    0.35919   0.51654   -1.000
 3386.00    0.39588   0.52110   -1.000
 3387.00    0.37163   0.51838   -1.000
 3388.00    0.36153   0.51439   -1.000
 3389.00    0.36838   0.51269   -1.000
 3390.00    0.34798   0.51067   -1.000
 3391.00    0.31964   0.50462   -1.000
 3392.00    0.30681   0.49432   -1.000
 3393.00    0.35688   0.48980   -1.000
 3394.00    0.39709   0.49956   -1.000
 3395.00    0.38778   0.51742   -1.000
 3396.00    0.37498   0.53419   -1.000
 3397.00    0.39285   0.54677   -1.000
 3398.00    0.39418   0.55178   -1.000
 3399.00    0.41366   0.54676   -1.000
 3400.00    0.43479   0.53823   -1.000
 3401.00    0.44206   0.52979   -1.000
 3402.00    0.43542   0.51639   36.869
 3403.00    0.42456   0.50577   -1.000
 3404.00    0.41644   0.50236   -1.000
 3405.00    0.40928   0.50117   -1.000
 3406.00    0.38300   0.49600   -1.000
 3407.00    0.41799   0.49088   40.503
 3408.00    0.40957   0.49002   -1.000
 3409.00    0.39428   0.49691   -1.000
 3410.00    0.42453   0.50595   -1.000
 3411.00    0.45459   0.50584   40.863
 3412.00    0.45702   0.49960   39.880
 3413.00    0.44421   0.49115   40.167
 3414.00    0.41252   0.48970   -1.000
 3415.00    0.40301   0.49544   -1.000
 3416.00    0.42417   0.50701   -1.000
 3417.00    0.44495   0.52000   40.474
 3418.00    0.47241   0.53386   38.669
 3419.00    0.49253   0.54595   36.798
 3420.00    0.49865   0.55083   35.438
 3421.00    0.48574   0.54588   35.287
 3422.00    0.46418   0.53721   35.175
 3423.00    0.46774   0.52988   35.632
 3424.00    0.45818   0.52836   36.624
 3425.00    0.43795   0.53031   -1.000
 3426.00    0.45296   0.53524   35.832
 3427.00    0.49741   0.54294   35.109
 3428.00    0.49354   0.55886   47.021
 3429.00    0.50108   0.57089   -1.000
 3430.00    0.49279   0.56950   -1.000
 3431.00    0.49411   0.55700   -1.000
 3432.00    0.49329   0.54143   -1.000
 3433.00    0.50302   0.53388   98.243
 3434.00    0.50331   0.53550   35.060
 3435.00    0.52291   0.54318   46.804
 3436.00    0.51462   0.54518   -1.000
 3437.00    0.50189   0.53927   -1.000
 3438.00    0.48063   0.52349   35.329
 3439.00    0.47809   0.50100   37.130
 3440.00    0.46397   0.47394   39.570
 3441.00    0.46501   0.45641   42.301
 3442.00    0.44634   0.45567   43.524
 3443.00    0.42617   0.46596   43.508
 3444.00    0.43644   0.47807   42.867
 3445.00    0.44717   0.48889   40.959
 3446.00    0.46165   0.50400   38.703
 3447.00    0.45995   0.52408   36.792
 3448.00    0.46043   0.54427   -1.000
 3449.00    0.47722   0.55550   -1.000
 3450.00    0.49520   0.54979   -1.000
 3451.00    0.52234   0.53489   -1.000
 3452.00    0.54733   0.51742   -1.000
 3453.00    0.52213   0.51094   -1.000
 3454.00    0.51044   0.51645  325.942
 3455.00    0.50456   0.52561   -1.000
 3456.00    0.50036   0.53013   -1.000
 3457.00    0.49828   0.52100   -1.000
 3458.00    0.53142   0.50744   -1.000
 3459.00    0.55599   0.49645   -1.000
 3460.00    0.53272   0.48738   35.113
 3461.00    0.50874   0.48768   35.391
 3462.00    0.49411   0.50365   46.892
 3463.00    0.50624   0.52124   -1.000
 3464.00    0.53763   0.52567   -1.000
 3465.00    0.53042   0.52457  317.834
 3466.00    0.51792   0.52274  316.840
 3467.00    0.51019   0.52864   -1.000
 3468.00    0.50779   0.53753   -1.000
 3469.00    0.54174   0.54496  302.417
 3470.00    0.53512   0.54796   -1.000
 3471.00    0.51450   0.54299   -1.000
 3472.00    0.53557   0.53077  301.257
 3473.00    0.54123   0.51497   -1.000
 3474.00    0.54851   0.49488   -1.000
 3475.00    0.54495   0.48078   -1.000
 3476.00    0.51766   0.48252   35.631
 3477.00    0.49682   0.49566   36.381
 3478.00    0.49817   0.51166   47.384
 3479.00    0.52260   0.52467  325.275
 3480.00    0.53558   0.53148  306.860
 3481.00    0.56407   0.53139   -1.000
 3482.00    0.57305   0.52363   -1.000
 3483.00    0.56368   0.51490   -1.000
 3484.00    0.56558   0.51525   -1.000
 3485.00    0.56890   0.52819   -1.000
 3486.00    0.56182   0.54815   -1.000
 3487.00    0.56464   0.55486   -1.000
 3488.00    0.57240   0.54449   -1.000
 3489.00    0.53910   0.52363   -1.000
 3490.00    0.54633   0.50839   -1.000
 3491.00    0.53571   0.50896   -1.000
 3492.00    0.52807   0.51737   -1.000
 3493.00    0.52636   0.52321  325.942
 3494.00    0.51282   0.51958  324.764
 3495.00    0.49306   0.51007   -1.000
 3496.00    0.50305   0.50400  321.570
 3497.00    0.52008   0.51160   -1.000
 3498.00    0.53487   0.53252  325.312
 3499.00    0.54030   0.54530  310.385
 3500.00    0.55713   0.54506   -1.000
 3501.00    0.58009   0.54610   -1.000
 3502.00    0.56685   0.55125   -1.000
 3503.00    0.57365   0.55741   -1.000
 3504.00    0.58804   0.55332   -1.000
 3505.00    0.57835   0.54278   -1.000
 3506.00    0.55567   0.53711   -1.000
 3507.00    0.53745   0.53782  287.025
 3508.00    0.54795   0.54049  283.341
 3509.00    0.56768   0.53668   -1.000
 3510.00    0.56725   0.52829   -1.000
 3511.00    0.55157   0.52095   -1.000
 3512.00    0.55681   0.51509   -1.000
 3513.00    0.54144   0.50576   -1.000
 3514.00    0.53048   0.50599   -1.000
 3515.00    0.51570   0.52085  321.807
 3516.00    0.53591   0.54384  310.982
 3517.00    0.57019   0.56358  293.859
 3518.00    0.56921   0.56725  279.759
 3519.00    0.54705   0.55709  278.979
 3520.00    0.54697   0.53778   -1.000
 3521.00    0.54177   0.52086   -1.000
 3522.00    0.52135   0.50975   -1.000
 3523.00    0.51580   0.49692   -1.000
 3524.00    0.52257   0.48650   -1.000
 3525.00    0.51017   0.48311   35.293
 3526.00    0.51026   0.49190   36.169
 3527.00    0.53836   0.51381   47.094
 3528.00    0.54092   0.53759  325.942
 3529.00    0.54738   0.55269  307.022
 3530.00    0.57013   0.55631   -1.000
 3531.00    0.55761   0.55386  291.998
 3532.00    0.52425   0.55369   -1.000
 3533.00    0.54232   0.55851   -1.000
 3534.00    0.57108   0.56561  293.830
 3535.00    0.58655   0.56977   -1.000
 3536.00    0.59820   0.57039   -1.000
 3537.00    0.59285   0.57295   -1.000
 3538.00    0.58861   0.58028  280.492
 3539.00    0.60498   0.58600   -1.000
 3540.00    0.60343   0.58291   -1.000
 3541.00    0.60674   0.57679   -1.000
 3542.00    0.59539   0.57912   -1.000
 3543.00    0.57834   0.58551  284.301
 3544.00    0.58946   0.59221  281.767
 3545.00    0.57578   0.59203   -1.000
 3546.00    0.56399   0.58716   -1.000
 3547.00    0.55753   0.58416   -1.000
 3548.00    0.58835   0.58397  289.861
 3549.00    0.59285   0.58679  290.471
 3550.00    0.58316   0.58885  289.448
 3551.00    0.57253   0.58769   -1.000
 3552.00    0.55436   0.57991   -1.000
 3553.00    0.54987   0.57123   -1.000
 3554.00    0.55262   0.56694   -1.000
 3555.00    0.55346   0.56875   -1.000
 3556.00    0.55230   0.57290   -1.000
 3557.00    0.55264   0.57195   -1.000
 3558.00    0.55212   0.56677   -1.000
 3559.00    0.56300   0.56366  311.681
 3560.00    0.54856   0.56817   -1.000
 3561.00    0.53146   0.58110   -1.000
 3562.00    0.54121   0.58988   -1.000
 3563.00    0.55136   0.58127   -1.000
 3564.00    0.55720   0.54650   -1.000
 3565.00    0.52321   0.51617  104.705
 3566.00    0.48597   0.50833   35.685
 3567.00    0.47781   0.51071   36.663
 3568.00    0.48286   0.51095   36.281
 3569.00    0.48900   0.49734   36.446
 3570.00    0.47619   0.48450   37.561
 3571.00    0.46053   0.48801   37.752
 3572.00    0.47400   0.49940   36.416
 3573.00    0.49900   0.50975   45.616
 3574.00    0.51491   0.51448  325.942
 3575.00    0.52365   0.51623   -1.000
 3576.00    0.52003   0.52047  325.942
 3577.00    0.52566   0.52083  325.942
 3578.00    0.54228   0.51215   -1.000
 3579.00    0.53146   0.49291   -1.000
 3580.00    0.48788   0.47316   37.209
 3581.00    0.47899   0.46281   39.961
 3582.00    0.46074   0.46392   41.652
 3583.00    0.45763   0.47083   41.879
 3584.00    0.45272   0.46714   42.274
 3585.00    0.44813   0.45514   43.436
 3586.00    0.42712   0.45023   44.667
 3587.00    0.42668   0.45516   44.523
 3588.00    0.45046   0.47104   42.214
 3589.00    0.48399   0.49332   40.017
 3590.00    0.48044   0.51806   37.635
 3591.00    0.49408   0.53644   45.214
 3592.00    0.52394   0.54299   -1.000
 3593.00    0.53078   0.54282   -1.000
 3594.00    0.52744   0.54523   -1.000
 3595.00    0.54886   0.55753  303.753
 3596.00    0.56192   0.57127  292.649
 3597.00    0.56400   0.58224   -1.000
 3598.00    0.55487   0.59253   -1.000
 3599.00    0.57700   0.59774   -1.000
 3600.00    0.57970   0.59357   -1.000
 3601.00    0.59496   0.57711   -1.000
 3602.00    0.59243   0.55515   -1.000
 3603.00    0.56118   0.53634   -1.000
 3604.00    0.53440   0.52884  308.903
 3605.00    0.53949   0.53239  313.312
 3606.00    0.55904   0.53504   -1.000
 3607.00    0.56001   0.52984   -1.000
 3608.00    0.52615   0.51797   -1.000
 3609.00    0.53411   0.51136   -1.000
 3610.00    0.52980   0.52188   -1.000
 3611.00    0.52317   0.53513   -1.000
 3612.00    0.52260   0.54256   -1.000
 3613.00    0.52858   0.54912   -1.000
 3614.00    0.56154   0.55790  299.804
 3615.00    0.60030   0.56788   -1.000
 3616.00    0.61047   0.56397   -1.000
 3617.00    0.60137   0.53330   -1.000
 3618.00    0.56037   0.50857   -1.000
 3619.00    0.52800   0.50975  108.027
 3620.00    0.53892   0.53018   44.548
 3621.00    0.55410   0.55543  319.250
 3622.00    0.56133   0.57356   -1.000
 3623.00    0.58972   0.58209  279.311
 3624.00    0.59647   0.59064  273.537
 3625.00    0.61842   0.60949  268.468
 3626.00    0.65104   0.62988   -1.000
 3627.00    0.64695   0.64389  248.976
 3628.00    0.63799   0.63777  247.409
 3629.00    0.62167   0.60261   -1.000
 3630.00    0.59775   0.56002   -1.000
 3631.00    0.55359   0.53206   -1.000
 3632.00    0.52886   0.53072  324.641
 3633.00    0.54312   0.54572  324.703
 3634.00    0.55998   0.56109  314.102
 3635.00    0.57865   0.56780   -1.000
 3636.00    0.59547   0.56919   -1.000
 3637.00    0.59890   0.58097   -1.000
 3638.00    0.61226   0.59857   -1.000
 3639.00    0.61694   0.61588  259.257
 3640.00    0.62628   0.62075  252.656
 3641.00    0.62928   0.61094   -1.000
 3642.00    0.62783   0.59287   -1.000
 3643.00    0.61569   0.57391   -1.000
 3644.00    0.58337   0.56240   -1.000
 3645.00    0.58419   0.55739   -1.000
 3646.00    0.60161   0.54987   -1.000
 3647.00    0.60774   0.54462   -1.000
 3648.00    0.58202   0.54557   -1.000
 3649.00    0.55636   0.55303  303.771
 3650.00    0.55265   0.56673   -1.000
 3651.00    0.59334   0.58601  281.808
 3652.00    0.62432   0.60351   -1.000
 3653.00    0.64185   0.61604   -1.000
 3654.00    0.62742   0.62225  252.836
 3655.00    0.64575   0.62586   -1.000
 3656.00    0.66832   0.63508   -1.000
 3657.00    0.62967   0.64351   -1.000
 3658.00    0.61697   0.64689   -1.000
 3659.00    0.62750   0.64696   -1.000
 3660.00    0.63183   0.64411  240.053
 3661.00    0.63705   0.63769  240.667
 3662.00    0.63847   0.62879  243.369
 3663.00    0.63366   0.62047   -1.000
 3664.00    0.61680   0.61729  250.057
 3665.00    0.63101   0.61927   -1.000
 3666.00    0.65053   0.62099   -1.000
 3667.00    0.64212   0.61671   -1.000
 3668.00    0.62469   0.60428   -1.000
 3669.00    0.61127   0.59949   -1.000
 3670.00    0.60355   0.60819  262.684
 3671.00    0.60978   0.62413   -1.000
 3672.00    0.64212   0.63592  250.058
 3673.00    0.65145   0.63657   -1.000
 3674.00    0.65706   0.63123   -1.000
 3675.00    0.65550   0.61964   -1.000
 3676.00    0.63301   0.60496   -1.000
 3677.00    0.61327   0.59096   -1.000
 3678.00    0.60282   0.57843   -1.000
 3679.00    0.58743   0.57344   -1.000
 3680.00    0.59097   0.57511   -1.000
 3681.00    0.60797   0.58384   -1.000
 3682.00    0.59568   0.59414  266.411
 3683.00    0.60509   0.60004  259.933
 3684.00    0.61070   0.59616   -1.000
 3685.00    0.59312   0.57623   -1.000
 3686.00    0.59036   0.55694   -1.000
 3687.00    0.60285   0.55298   -1.000
 3688.00    0.59631   0.57010   -1.000
 3689.00    0.62230   0.59789   -1.000
 3690.00    0.65319   0.62273   -1.000
 3691.00    0.65271   0.63165   -1.000
 3692.00    0.66224   0.62883   -1.000
 3693.00    0.68995   0.62583   -1.000
 3694.00    0.66404   0.62361   -1.000
 3695.00    0.66697   0.61893   -1.000
 3696.00    0.65993   0.61427   -1.000
 3697.00    0.64224   0.62098   -1.000
 3698.00    0.64760   0.64063  243.427
 3699.00    0.68900   0.66518   -1.000
 3700.00    0.69928   0.67750   -1.000
 3701.00    0.67226   0.66580  229.170
 3702.00    0.66650   0.62560   -1.000
 3703.00    0.65265   0.57673   -1.000
 3704.00    0.60956   0.53798   -1.000
 3705.00    0.57545   0.52473   -1.000
 3706.00    0.57086   0.53732   -1.000
 3707.00    0.59125   0.55556   -1.000
 3708.00    0.60382   0.56937   -1.000
 3709.00    0.58683   0.57286   -1.000
 3710.00    0.59117   0.57267   -1.000
 3711.00    0.62028   0.57886   -1.000
 3712.00    0.64429   0.60204   -1.000
 3713.00    0.67016   0.63267   -1.000
 3714.00    0.69375   0.66084   -1.000
 3715.00    0.72299   0.67805   -1.000
 3716.00    0.71247   0.67612   -1.000
 3717.00    0.69052   0.65756   -1.000
 3718.00    0.64305   0.62094   -1.000
 3719.00    0.59324   0.55895   -1.000
 3720.00    0.56849   0.50373   -1.000
 3721.00    0.55992   0.48217   -1.000
 3722.00    0.54784   0.49586   44.351
 3723.00    0.57805   0.54063   -1.000
 3724.00    0.61733   0.59637   -1.000
 3725.00    0.64570   0.63078   -1.000
 3726.00    0.67339   0.63404   -1.000
 3727.00    0.67620   0.63600   -1.000
 3728.00    0.63876   0.64359  263.428
 3729.00    0.61860   0.64922   -1.000
 3730.00    0.63698   0.64008  261.109
 3731.00    0.64551   0.60192   -1.000
 3732.00    0.61664   0.54509   -1.000
 3733.00    0.57069   0.48806   -1.000
 3734.00    0.51756   0.44615   35.704
 3735.00    0.51472   0.43881   -1.000
 3736.00    0.52321   0.46736   40.049
 3737.00    0.53948   0.51784   37.593
 3738.00    0.58136   0.57871   43.267
 3739.00    0.64735   0.63433   -1.000
 3740.00    0.67400   0.66373   -1.000
 3741.00    0.65676   0.66761  260.547
 3742.00    0.65951   0.65258  261.818
 3743.00    0.67053   0.62521   -1.000
 3744.00    0.63296   0.59822   -1.000
 3745.00    0.57489   0.57548  308.286
 3746.00    0.55069   0.54957  325.540
 3747.00    0.54784   0.51645   -1.000
 3748.00    0.52560   0.47337   35.821
 3749.00    0.50372   0.44826   37.733
 3750.00    0.51496   0.46609   47.171
 3751.00    0.54912   0.51708   -1.000
 3752.00    0.60047   0.57855   -1.000
 3753.00    0.66621   0.63615   -1.000
 3754.00    0.71059   0.67718   -1.000
 3755.00    0.72770   0.69063   -1.000
 3756.00    0.71372   0.67304   -1.000
 3757.00    0.66626   0.63450   -1.000
 3758.00    0.62216   0.60127   -1.000
 3759.00    0.61394   0.59283   -1.000
 3760.00    0.61338   0.60599   -1.000
 3761.00    0.63663   0.62151   -1.000
 3762.00    0.65826   0.63420   -1.000
 3763.00    0.66014   0.64227   -1.000
 3764.00    0.66128   0.64320   -1.000
 3765.00    0.65026   0.63313   -1.000
 3766.00    0.64620   0.61565   -1.000
 3767.00    0.63332   0.59592   -1.000
 3768.00    0.63777   0.57205   -1.000
 3769.00    0.64413   0.54751   -1.000
 3770.00    0.64072   0.53247   -1.000
 3771.00    0.61925   0.54321   -1.000
 3772.00    0.65729   0.58379   -1.000
 3773.00    0.68022   0.62520   -1.000
 3774.00    0.69086   0.65036   -1.000
 3775.00    0.70250   0.66818   -1.000
 3776.00    0.70123   0.68253   -1.000
 3777.00    0.71528   0.69965   -1.000
 3778.00    0.73316   0.71912   -1.000
 3779.00    0.74885   0.73680   -1.000
 3780.00    0.75420   0.75134  227.431
 3781.00    0.76422   0.75898  222.989
 3782.00    0.77448   0.76333  221.583
 3783.00    0.75665   0.76221  220.556
 3784.00    0.76873   0.75012   -1.000
 3785.00    0.76367   0.72398   -1.000
 3786.00    0.73812   0.69438   -1.000
 3787.00    0.71163   0.67202   -1.000
 3788.00    0.66687   0.66222  270.003
 3789.00    0.63830   0.66123   -1.000
 3790.00    0.63321   0.66424   -1.000
 3791.00    0.67499   0.66416   -1.000
 3792.00    0.69774   0.65107   -1.000
 3793.00    0.69506   0.62815   -1.000
 3794.00    0.64558   0.59785   -1.000
 3795.00    0.63854   0.56289   -1.000
 3796.00    0.64314   0.52568   -1.000
 3797.00    0.60857   0.48561   -1.000
 3798.00    0.57759   0.47234   -1.000
 3799.00    0.57879   0.50798   -1.000
 3800.00    0.61126   0.56880   -1.000
 3801.00    0.66447   0.63177   -1.000
 3802.00    0.68759   0.68010  261.083
 3803.00    0.70307   0.70569  251.022
 3804.00    0.72498   0.71540  246.436
 3805.00    0.72402   0.70958   -1.000
 3806.00    0.68956   0.69585  251.253
 3807.00    0.67813   0.69775   -1.000
 3808.00    0.70603   0.71758  262.442
 3809.00    0.72229   0.74243   -1.000
 3810.00    0.71131   0.75489   -1.000
 3811.00    0.73566   0.74375  245.063
 3812.00    0.76299   0.71543   -1.000
 3813.00    0.71957   0.67925   -1.000
 3814.00    0.65229   0.65039  282.527
 3815.00    0.64095   0.64239  298.640
 3816.00    0.64161   0.65621   -1.000
 3817.00    0.65959   0.66741  301.064
 3818.00    0.66864   0.66004   -1.000
 3819.00    0.63024   0.63432  301.289
 3820.00    0.61763   0.61183  321.841
 3821.00    0.63860   0.61791   -1.000
 3822.00    0.64879   0.63458   -1.000
 3823.00    0.64672   0.63278   -1.000
 3824.00    0.62283   0.61186   -1.000
 3825.00    0.57567   0.58786  127.318
 3826.00    0.58185   0.57469   36.694
 3827.00    0.58647   0.57223   37.244
 3828.00    0.58994   0.57362   36.844
 3829.00    0.58748   0.57009   36.240
 3830.00    0.58311   0.55844   35.858
 3831.00    0.57192   0.53354   36.564
 3832.00    0.56097   0.49943   38.512
 3833.00    0.52010   0.45899   41.260
 3834.00    0.51086   0.42874   -1.000
 3835.00    0.48732   0.42393   40.994
 3836.00    0.48738   0.43782   39.472
 3837.00    0.51289   0.45942   38.967
 3838.00    0.49699   0.48170   39.859
 3839.00    0.51527   0.50753   40.482
 3840.00    0.55214   0.54550   39.384
 3841.00    0.59435   0.59152   45.611
 3842.00    0.64392   0.63561   -1.000
 3843.00    0.69784   0.67158   -1.000
 3844.00    0.71600   0.68917   -1.000
 3845.00    0.72098   0.69911   -1.000
 3846.00    0.73098   0.70874   -1.000
 3847.00    0.73952   0.71806   -1.000
 3848.00    0.71676   0.71587  285.079
 3849.00    0.68893   0.70882   -1.000
 3850.00    0.71736   0.70795   -1.000
 3851.00    0.71035   0.71655  305.473
 3852.00    0.69984   0.72942   -1.000
 3853.00    0.70237   0.73047   -1.000
 3854.00    0.68639   0.71577   -1.000
 3855.00    0.67412   0.69996   -1.000
 3856.00    0.67781   0.68593  311.324
 3857.00    0.68118   0.67082   -1.000
 3858.00    0.66436   0.65519  123.166
 3859.00    0.63821   0.64620   35.011
 3860.00    0.61474   0.65905   36.638
 3861.00    0.64150   0.68603   43.442
 3862.00    0.69988   0.71600   -1.000
 3863.00    0.75419   0.72673   -1.000
 3864.00    0.76701   0.72405   -1.000
 3865.00    0.74506   0.72116   -1.000
 3866.00    0.71951   0.71878  284.841
 3867.00    0.72093   0.72075  289.349
 3868.00    0.73023   0.72272  296.198
 3869.00    0.72214   0.71371   -1.000
 3870.00    0.67123   0.69378   -1.000
 3871.00    0.63914   0.66739   -1.000
 3872.00    0.64346   0.65396   42.354
 3873.00    0.64611   0.66239   -1.000
 3874.00    0.66906   0.69475   -1.000
 3875.00    0.70782   0.71730  277.571
 3876.00    0.71630   0.70886  271.063
 3877.00    0.69153   0.68308   -1.000
 3878.00    0.66528   0.66457  306.023
 3879.00    0.65881   0.66345  322.978
 3880.00    0.67297   0.66911  324.478
 3881.00    0.65531   0.66844   -1.000
 3882.00    0.63283   0.66177   -1.000
 3883.00    0.64849   0.65479  317.870
 3884.00    0.65871   0.64061   -1.000
 3885.00    0.64978   0.60832   -1.000
 3886.00    0.62886   0.55671   -1.000
 3887.00    0.60803   0.51173   -1.000
 3888.00    0.58177   0.48733   -1.000
 3889.00    0.55789   0.49891   -1.000
 3890.00    0.57674   0.54299   -1.000
 3891.00    0.64584   0.60522   -1.000
 3892.00    0.70904   0.65158   -1.000
 3893.00    0.73614   0.66950   -1.000
 3894.00    0.72874   0.67647   -1.000
 3895.00    0.71199   0.68693   -1.000
 3896.00    0.72023   0.70603   -1.000
 3897.00    0.75404   0.71963   -1.000
 3898.00    0.76711   0.72148   -1.000
 3899.00    0.76089   0.72141   -1.000
 3900.00    0.75922   0.72872   -1.000
 3901.00    0.77472   0.73917   -1.000
 3902.00    0.77048   0.74327   -1.000
 3903.00    0.75589   0.73393   -1.000
 3904.00    0.75428   0.71894   -1.000
 3905.00    0.73943   0.71176   -1.000
 3906.00    0.73758   0.71945   -1.000
 3907.00    0.75111   0.74434  249.428
 3908.00    0.78524   0.77873  234.055
 3909.00    0.83392   0.80058   -1.000
 3910.00    0.84971   0.81061   -1.000
 3911.00    0.83616   0.81636   -1.000
 3912.00    0.84519   0.81468   -1.000
 3913.00    0.83016   0.80587   -1.000
 3914.00    0.78709   0.79634  214.380
 3915.00    0.77165   0.78823   -1.000
 3916.00    0.78038   0.78350  223.741
 3917.00    0.77478   0.77670  226.551
 3918.00    0.77097   0.76243  230.250
 3919.00    0.76501   0.74477   -1.000
 3920.00    0.72874   0.72861  248.539
 3921.00    0.72171   0.72381  259.237
 3922.00    0.71650   0.72987  262.955
 3923.00    0.73861   0.73736  259.932
 3924.00    0.75736   0.73522   -1.000
 3925.00    0.74047   0.71833   -1.000
 3926.00    0.70686   0.68926   -1.000
 3927.00    0.66172   0.64798   -1.000
 3928.00    0.56909   0.60174   -1.000
 3929.00    0.49087   0.55629   39.741
 3930.00    0.44010   0.50279   46.584
 3931.00    0.40541   0.45041   54.597
 3932.00    0.34322   0.39650   64.509
 3933.00    0.30688   0.36380   -1.000
 3934.00    0.29422   0.37489   -1.000
 3935.00    0.32422   0.42320   -1.000
 3936.00    0.36086   0.48327   -1.000
 3937.00    0.43591   0.54788   -1.000
 3938.00    0.51765   0.60376   -1.000
 3939.00    0.58719   0.64916   45.004
 3940.00    0.65019   0.68469   -1.000
 3941.00    0.66220   0.70104   -1.000
 3942.00    0.65734   0.70528   -1.000
 3943.00    0.66089   0.70409   -1.000
 3944.00    0.66883   0.70904   -1.000
 3945.00    0.71781   0.72732  276.307
 3946.00    0.76697   0.74650   -1.000
 3947.00    0.77789   0.75531   -1.000
 3948.00    0.78060   0.76055   -1.000
 3949.00    0.78343   0.77120   -1.000
 3950.00    0.78324   0.77954  226.314
 3951.00    0.79473   0.77917   -1.000
 3952.00    0.79527   0.77921   -1.000
 3953.00    0.79231   0.78593  224.039
 3954.00    0.80380   0.79290  219.619
 3955.00    0.81865   0.78568   -1.000
 3956.00    0.80536   0.77081   -1.000
 3957.00    0.78616   0.76670   -1.000
 3958.00    0.80071   0.76940   -1.000
 3959.00    0.78773   0.75754   -1.000
 3960.00    0.75278   0.72296   -1.000
 3961.00    0.70634   0.67469   -1.000
 3962.00    0.65793   0.63711   -1.000
 3963.00    0.60955   0.61008  322.531
 3964.00    0.58715   0.57600  138.350
 3965.00    0.52917   0.52603   37.353
 3966.00    0.44764   0.44716   44.206
 3967.00    0.37854   0.37205   54.525
 3968.00    0.32784   0.32526   65.654
 3969.00    0.31685   0.31973   70.276
 3970.00    0.33913   0.35474   63.625
 3971.00    0.42566   0.42189   52.337
 3972.00    0.51524   0.49515   43.156
 3973.00    0.57614   0.56642   43.982
 3974.00    0.64640   0.63073   -1.000
 3975.00    0.70877   0.68221   -1.000
 3976.00    0.74434   0.72725   -1.000
 3977.00    0.77308   0.76179  233.870
 3978.00    0.80186   0.79681  220.449
 3979.00    0.83600   0.82412  208.854
 3980.00    0.86915   0.83522   -1.000
 3981.00    0.86394   0.83247   -1.000
 3982.00    0.84596   0.82638   -1.000
 3983.00    0.85071   0.83069   -1.000
 3984.00    0.87235   0.84385   -1.000
 3985.00    0.87921   0.85516   -1.000
 3986.00    0.88213   0.86536   -1.000
 3987.00    0.89824   0.87651   -1.000
 3988.00    0.91102   0.88828   -1.000
 3989.00    0.91318   0.89528   -1.000
 3990.00    0.93910   0.89984   -1.000
 3991.00    0.95580   0.90842   -1.000
 3992.00    0.95954   0.91944   -1.000
 3993.00    0.96849   0.92263   -1.000
 3994.00    0.95324   0.91401   -1.000
 3995.00    0.92770   0.89744   -1.000
 3996.00    0.90682   0.88119   -1.000
 3997.00    0.89699   0.87667   -1.000
 3998.00    0.91123   0.88776   -1.000
 3999.00    0.92604   0.90523   -1.000
 4000.00    0.94413   0.92621   -1.000
 4001.00    0.96914   0.94014   -1.000
 4002.00    0.99029   0.94056   -1.000
 4003.00    0.98991   0.92391   -1.000
 4004.00    0.94490   0.89422   -1.000
 4005.00    0.90331   0.86479   -1.000
 4006.00    0.90223   0.86805   -1.000
 4007.00    0.94510   0.89713   -1.000
 4008.00    0.97465   0.92761   -1.000
 4009.00    0.99323   0.94562   -1.000
 4010.00    0.99422   0.95208   -1.000
 4011.00    0.99417   0.95439   -1.000
 4012.00    0.98308   0.95570   -1.000
 4013.00    0.96792   0.95901  168.546
 4014.00    0.95139   0.96310  169.088
 4015.00    1.01350   0.96433   -1.000
 4016.00    1.00750   0.96423   -1.000
 4017.00    0.98883   0.96500   -1.000
 4018.00    1.00596   0.97219   -1.000
 4019.00    1.02579   0.97962   -1.000
 4020.00    1.01440   0.98369   -1.000
 4021.00    0.99821   0.98033  166.498
 4022.00    1.00318   0.97422   -1.000
 4023.00    0.99439   0.96452   -1.000
 4024.00    0.97525   0.95390   -1.000
 4025.00    0.98623   0.95504   -1.000
 4026.00    1.01157   0.97163   -1.000
 4027.00    1.02699   0.99266   -1.000
 4028.00    1.03112   0.99193   -1.000
 4029.00    1.01804   0.96533   -1.000
 4030.00    0.96159   0.93107   -1.000
 4031.00    0.91435   0.90223  179.513
 4032.00    0.91410   0.89239   -1.000
 4033.00    0.96798   0.89757   -1.000
 4034.00    0.97036   0.91810   -1.000
 4035.00    0.97639   0.94870   -1.000
 4036.00    1.00000   0.98857  168.717
 4037.00    1.06922   1.02403   -1.000
 4038.00    1.09534   1.03654   -1.000
 4039.00    1.06225   1.02341   -1.000
 4040.00    1.01433   1.00978  159.691
 4041.00    1.02031   1.00387  163.198
 4042.00    1.03157   0.99329   -1.000
 4043.00    1.02101   0.96186   -1.000
 4044.00    0.97188   0.90362   -1.000
 4045.00    0.91138   0.87007   -1.000
 4046.00    0.88369   0.88238  204.326
 4047.00    0.94039   0.92612  193.334
 4048.00    1.01616   0.97608   -1.000
 4049.00    1.04843   1.00854   -1.000
 4050.00    1.04283   1.02063   -1.000
 4051.00    1.04589   1.01757   -1.000
 4052.00    1.04505   1.00343   -1.000
 4053.00    1.01648   0.98354   -1.000
 4054.00    0.99451   0.97397   -1.000
 4055.00    0.99702   0.97096   -1.000
 4056.00    0.99579   0.96405   -1.000
 4057.00    0.99686   0.96096   -1.000
 4058.00    0.99692   0.96908   -1.000
 4059.00    1.00573   0.98941  173.958
 4060.00    1.03348   1.00159   -1.000
 4061.00    1.03021   0.98111   -1.000
 4062.00    1.00273   0.94340   -1.000
 4063.00    0.94057   0.90688   -1.000
 4064.00    0.93281   0.89522   -1.000
 4065.00    0.94209   0.90413   -1.000
 4066.00    0.96725   0.92352   -1.000
 4067.00    0.98852   0.94489   -1.000
 4068.00    1.02168   0.96656   -1.000
 4069.00    1.01862   0.97155   -1.000
 4070.00    1.01108   0.95096   -1.000
 4071.00    0.98648   0.92576   -1.000
 4072.00    0.97390   0.92153   -1.000
 4073.00    1.00470   0.94006   -1.000
 4074.00    1.00575   0.94924   -1.000
 4075.00    0.96546   0.92928   -1.000
 4076.00    0.92765   0.89748   -1.000
 4077.00    0.88254   0.87724  194.450
 4078.00    0.88354   0.88910  198.090
 4079.00    0.94925   0.92563   -1.000
 4080.00    0.99365   0.97143   -1.000
 4081.00    1.02392   0.99266   -1.000
 4082.00    1.03013   0.98604   -1.000
 4083.00    1.00252   0.96481   -1.000
 4084.00    1.00203   0.95134   -1.000
 4085.00    0.98590   0.95986   -1.000
 4086.00    1.02059   0.98310   -1.000
 4087.00    1.08147   1.01207   -1.000
 4088.00    1.10672   1.02798   -1.000
 4089.00    1.09575   1.02656   -1.000
 4090.00    1.08162   1.01202   -1.000
 4091.00    1.05932   0.99967   -1.000
 4092.00    1.04972   0.99346   -1.000
 4093.00    1.05021   0.98433   -1.000
 4094.00    1.03250   0.96729   -1.000
 4095.00    0.99741   0.93676   -1.000
 4096.00    0.99091   0.90554   -1.000
 4097.00    0.98270   0.87614   -1.000
 4098.00    0.93803   0.83987   -1.000
 4099.00    0.89811   0.78562   -1.000
 4100.00    0.85862   0.71438   -1.000
 4101.00    0.77179   0.66530   -1.000
 4102.00    0.75213   0.67158   -1.000
 4103.00    0.81573   0.72872   -1.000
 4104.00    0.89540   0.81227   -1.000
 4105.00    0.94692   0.87744   -1.000
 4106.00    0.98267   0.91330   -1.000
 4107.00    0.98092   0.93481   -1.000
 4108.00    0.98083   0.94253   -1.000
 4109.00    0.97746   0.94388   -1.000
 4110.00    0.98479   0.95001   -1.000
 4111.00    1.00863   0.96076   -1.000
 4112.00    1.01228   0.97528   -1.000
 4113.00    1.03345   0.99072   -1.000
 4114.00    1.03771   1.01062   -1.000
 4115.00    1.04707   1.02301   -1.000
 4116.00    1.04254   1.02322  164.200
 4117.00    1.04499   1.01166   -1.000
 4118.00    1.02275   0.99791   -1.000
 4119.00    0.98832   0.98896  174.698
 4120.00    0.99326   0.98971  176.000
 4121.00    1.00935   0.99561  173.717
 4122.00    1.01377   1.00068  172.216
 4123.00    1.00467   1.00810  172.160
 4124.00    1.06342   1.01936   -1.000
 4125.00    1.09390   1.02718   -1.000
 4126.00    1.05069   1.02037   -1.000
 4127.00    1.01293   1.00625  169.814
 4128.00    1.01592   0.99650   -1.000
 4129.00    1.01571   0.99469   -1.000
 4130.00    1.00354   0.98711  175.551
 4131.00    0.98704   0.96738   -1.000
 4132.00    1.00072   0.95013   -1.000
 4133.00    0.99183   0.95080   -1.000
 4134.00    0.98969   0.97540  188.465
 4135.00    0.99778   1.00862  181.544
 4136.00    1.03235   1.04141  172.717
 4137.00    1.06310   1.06094  167.595
 4138.00    1.09766   1.07531   -1.000
 4139.00    1.11793   1.08164   -1.000
 4140.00    1.10133   1.06828   -1.000
 4141.00    1.06823   1.03006   -1.000
 4142.00    1.01822   0.98712   -1.000
 4143.00    0.97357   0.95537   -1.000
 4144.00    0.95677   0.96219  198.472
 4145.00    0.99019   0.99887  189.978
 4146.00    1.02825   1.03078  179.000
 4147.00    1.05345   1.04262  173.124
 4148.00    1.06755   1.03684   -1.000
 4149.00    1.03345   1.03258  175.844
 4150.00    1.03351   1.03726  180.470
 4151.00    1.02880   1.04058  182.127
 4152.00    1.03622   1.03498  180.722
 4153.00    1.01542   1.02026  180.068
 4154.00    0.98343   1.00786   -1.000
 4155.00    0.99172   1.00857   -1.000
 4156.00    1.04075   1.02043   -1.000
 4157.00    1.04644   1.03589  178.683
 4158.00    1.13200   1.05393   -1.000
 4159.00    1.35787   1.06849   -1.000
 4160.00    1.29766   1.07659   -1.000
 4161.00    0.79795   1.08256   -1.000
 4162.00    0.90530   1.09022   -1.000
 4163.00    1.15032   1.09707   -1.000
 4164.00    1.11411   1.09812  167.628
 4165.00    1.08137   1.08784  170.435
 4166.00    1.06806   1.07144  173.142
 4167.00    1.04798   1.05847  176.945
 4168.00    1.03924   1.05744   -1.000
 4169.00    1.05745   1.05803  177.321
 4170.00    1.05135   1.03895  174.824
 4171.00    1.04111   1.00497   -1.000
 4172.00    1.01162   0.96938   -1.000
 4173.00    0.96289   0.96246  199.068
 4174.00    0.96829   0.98506   -1.000
 4175.00    0.99864   1.01311   -1.000
 4176.00    1.03331   1.02441  184.775
 4177.00    1.02588   1.02657  185.009
 4178.00    1.02093   1.03510  185.901
 4179.00    1.03467   1.05052   -1.000
 4180.00    1.05633   1.05579  181.906
 4181.00    1.05465   1.04823  180.446
 4182.00    1.06415   1.04133   -1.000
 4183.00    1.05521   1.04833  178.132
 4184.00    1.03767   1.06149   -1.000
 4185.00    1.03392   1.05986   -1.000
 4186.00    1.02465   1.04466   -1.000
 4187.00    1.02300   1.02992  178.981
 4188.00    1.01514   1.02910  183.191
 4189.00    1.03221   1.04027  180.986
 4190.00    1.05282   1.05086  177.167
 4191.00    1.06808   1.06239  176.033
 4192.00    1.07045   1.07788  173.435
 4193.00    1.08107   1.08623  169.800
 4194.00    1.07074   1.07731  168.520
 4195.00    1.02934   1.05288   -1.000
 4196.00    0.99716   1.02205   -1.000
 4197.00    0.98926   0.99855  188.764
 4198.00    0.97509   0.98317  191.606
 4199.00    0.98920   0.97574  191.582
 4200.00    1.01048   0.97885   -1.000
 4201.00    1.00224   0.98778  186.493
 4202.00    1.00881   0.99788  185.999
 4203.00    1.02523   1.01387  184.541
 4204.00    1.02772   1.03602  181.758
 4205.00    1.03139   1.05862   -1.000
 4206.00    1.06492   1.08078   -1.000
 4207.00    1.07110   1.09634   -1.000
 4208.00    1.08265   1.10078   -1.000
 4209.00    1.08734   1.09670  168.617
 4210.00    1.07069   1.09383   -1.000
 4211.00    1.09044   1.10097  168.736
 4212.00    1.09740   1.10764  167.782
 4213.00    1.08419   1.09601  169.414
 4214.00    1.04678   1.06714   -1.000
 4215.00    1.01907   1.04210   -1.000
 4216.00    0.99375   1.03648   -1.000
 4217.00    1.01647   1.05693   -1.000
 4218.00    1.06145   1.09257   -1.000
 4219.00    1.09730   1.11667   -1.000
 4220.00    1.10117   1.12493   -1.000
 4221.00    1.09564   1.11534   -1.000
 4222.00    1.07771   1.08477  157.941
 4223.00    1.04657   1.02905  165.243
 4224.00    0.99070   0.96296   -1.000
 4225.00    0.91417   0.90104  196.243
 4226.00    0.84701   0.87346   -1.000
 4227.00    0.85435   0.89892   -1.000
 4228.00    0.93969   0.97610   -1.000
 4229.00    1.02150   1.04279   -1.000
 4230.00    1.07918   1.07667  170.283
 4231.00    1.09692   1.07783  162.650
 4232.00    1.08283   1.06137   -1.000
 4233.00    1.04820   1.04559  166.215
 4234.00    1.06206   1.03670   -1.000
 4235.00    1.03822   1.03172  172.131
 4236.00    1.02811   1.02981  176.195
 4237.00    1.04723   1.03409  178.798
 4238.00    1.06132   1.05000  176.916
 4239.00    1.04593   1.06826   -1.000
 4240.00    1.04188   1.08458   -1.000
 4241.00    1.06322   1.09436   -1.000
 4242.00    1.08608   1.10264  165.119
 4243.00    1.09642   1.11391   -1.000
 4244.00    1.11442   1.12429  161.197
 4245.00    1.12668   1.12066  158.365
 4246.00    1.09596   1.09686  160.917
 4247.00    1.03617   1.06492   -1.000
 4248.00    1.02218   1.04389   -1.000
 4249.00    1.03497   1.03784  178.645
 4250.00    1.04223   1.04841  179.926
 4251.00    1.05919   1.06285  179.031
 4252.00    1.08380   1.07466  173.647
 4253.00    1.07124   1.06625  169.448
 4254.00    1.05955   1.04944  171.112
 4255.00    1.06662   1.05618  175.169
 4256.00    1.08064   1.07922  172.013
 4257.00    1.08671   1.08961  165.680
 4258.00    1.06404   1.07057  165.451
 4259.00    1.02728   1.03466  172.522
 4260.00    0.99432   1.02045   -1.000
 4261.00    1.00252   1.04109   -1.000
 4262.00    1.06883   1.08841   -1.000
 4263.00    1.11022   1.12775   -1.000
 4264.00    1.12807   1.14997   -1.000
 4265.00    1.14667   1.15142  155.432
 4266.00    1.15173   1.14189  155.534
 4267.00    1.12049   1.12531  158.522
 4268.00    1.07966   1.09994   -1.000
 4269.00    1.07267   1.06103  168.996
 4270.00    1.02793   1.01959  176.101
 4271.00    0.97519   0.98323  187.947
 4272.00    0.95291   0.96928   -1.000
 4273.00    0.96101   0.97866   -1.000
 4274.00    0.97417   0.99950   -1.000
 4275.00    0.99654   1.03081   -1.000
 4276.00    1.06330   1.07783  179.981
 4277.00    1.10374   1.11598  168.487
 4278.00    1.09849   1.12690   -1.000
 4279.00    1.07853   1.10987   -1.000
 4280.00    1.05456   1.09122   -1.000
 4281.00    1.05238   1.08404   -1.000
 4282.00    1.05668   1.09052   -1.000
 4283.00    1.06659   1.09112   -1.000
 4284.00    1.06911   1.08040  171.685
 4285.00    1.03807   1.06902   -1.000
 4286.00    1.01520   1.05352   -1.000
 4287.00    0.99451   1.03620   -1.000
 4288.00    0.96562   1.00900   -1.000
 4289.00    0.92982   0.97746   -1.000
 4290.00    0.92290   0.97002   -1.000
 4291.00    0.95681   0.99710   -1.000
 4292.00    1.00294   1.03161   -1.000
 4293.00    1.03829   1.05200  179.829
 4294.00    1.03751   1.04669  177.350
 4295.00    1.02123   1.03073  179.373
 4296.00    1.01048   1.00756  182.526
 4297.00    0.98093   0.97675  187.297
 4298.00    0.92624   0.92985  197.781
 4299.00    0.86922   0.89063   -1.000
 4300.00    0.81895   0.87174   -1.000
 4301.00    0.81686   0.87407   -1.000
 4302.00    0.84221   0.88481   -1.000
 4303.00    0.86454   0.90142   -1.000
 4304.00    0.89567   0.91982   -1.000
 4305.00    0.90679   0.92466   -1.000
 4306.00    0.88231   0.90583   -1.000
 4307.00    0.85958   0.87692   -1.000
 4308.00    0.82961   0.85830   -1.000
 4309.00    0.81476   0.86900   -1.000
 4310.00    0.86718   0.90411   -1.000
 4311.00    0.90501   0.94009   -1.000
 4312.00    0.92869   0.97143   -1.000
 4313.00    0.98221   1.01323   -1.000
 4314.00    1.02814   1.06514   -1.000
 4315.00    1.06477   1.13565   -1.000
 4316.00    1.15800   1.19543   -1.000
 4317.00    1.21347   1.23105   -1.000
 4318.00    1.21168   1.23477   -1.000
 4319.00    1.20924   1.22152  146.510
 4320.00    1.19466   1.20197  149.034
 4321.00    1.16324   1.17049  152.649
 4322.00    1.10963   1.11936  158.173
 4323.00    1.04998   1.05582  166.514
 4324.00    0.99944   1.00199  179.357
 4325.00    0.96227   0.98694   -1.000
 4326.00    0.98030   1.02006   -1.000
 4327.00    1.07001   1.09474   -1.000
 4328.00    1.15146   1.15279  165.801
 4329.00    1.17372   1.17874  155.094
 4330.00    1.15510   1.17903   -1.000
 4331.00    1.15271   1.17741   -1.000
 4332.00    1.16755   1.18541   -1.000
 4333.00    1.15845   1.18923   -1.000
 4334.00    1.15918   1.18116   -1.000
 4335.00    1.17103   1.14720   -1.000
 4336.00    1.12557   1.07999   -1.000
 4337.00    1.06199   0.97815   -1.000
 4338.00    0.99682   0.88209   -1.000
 4339.00    0.89780   0.81427   -1.000
 4340.00    0.84595   0.80264   -1.000
 4341.00    0.86638   0.85360  212.288
 4342.00    0.94976   0.94683  195.015
 4343.00    1.02260   1.02539  176.249
 4344.00    1.09218   1.07923  166.306
 4345.00    1.13486   1.11876  161.393
 4346.00    1.15982   1.15126  157.197
 4347.00    1.17186   1.18144  154.726
 4348.00    1.18491   1.20090  153.061
 4349.00    1.16278   1.19311   -1.000
 4350.00    1.12824   1.15256   -1.000
 4351.00    1.08540   1.10504   -1.000
 4352.00    1.03939   1.09095   -1.000
 4353.00    1.08453   1.11409   -1.000
 4354.00    1.14798   1.15938  165.918
 4355.00    1.16436   1.19271   -1.000
 4356.00    1.19392   1.20903  154.003
 4357.00    1.22233   1.21354  151.198
 4358.00    1.19238   1.21076   -1.000
 4359.00    1.16295   1.20932   -1.000
 4360.00    1.15286   1.22018   -1.000
 4361.00    1.18871   1.24179   -1.000
 4362.00    1.23910   1.25744   -1.000
 4363.00    1.24077   1.26797   -1.000
 4364.00    1.24709   1.27790   -1.000
 4365.00    1.24507   1.27596   -1.000
 4366.00    1.23378   1.25307   -1.000
 4367.00    1.17994   1.22776   -1.000
 4368.00    1.17279   1.21129   -1.000
 4369.00    1.17559   1.20289   -1.000
 4370.00    1.18726   1.19773  154.895
 4371.00    1.18702   1.18998  154.060
 4372.00    1.18303   1.17353  154.129
 4373.00    1.16179   1.14620  156.212
 4374.00    1.12429   1.12168  162.930
 4375.00    1.11584   1.12030  168.804
 4376.00    1.13665   1.15227  167.826
 4377.00    1.19792   1.18905  160.329
 4378.00    1.22529   1.21371  152.675
 4379.00    1.19129   1.21556   -1.000
 4380.00    1.19185   1.19314  151.886
 4381.00    1.18574   1.13731   -1.000
 4382.00    1.11210   1.06203   -1.000
 4383.00    1.00941   0.99137   -1.000
 4384.00    0.96525   0.98061   -1.000
 4385.00    1.04251   1.03422  200.463
 4386.00    1.11576   1.09865  180.835
 4387.00    1.16871   1.13696   -1.000
 4388.00    1.13840   1.14527  160.522
 4389.00    1.13920   1.14666  161.076
 4390.00    1.14650   1.15154  162.825
 4391.00    1.16411   1.16514  162.921
 4392.00    1.19838   1.18315  159.483
 4393.00    1.19931   1.18520  156.275
 4394.00    1.18075   1.17831  157.850
 4395.00    1.16846   1.18612   -1.000
 4396.00    1.18663   1.21294   -1.000
 4397.00    1.22364   1.23468  152.157
 4398.00    1.23472   1.22737  148.486
 4399.00    1.19302   1.20562  151.281
 4400.00    1.17157   1.19013   -1.000
 4401.00    1.17768   1.19031  161.042
 4402.00    1.20560   1.19080  158.642
 4403.00    1.18835   1.16748   -1.000
 4404.00    1.13297   1.13402  162.834
 4405.00    1.09501   1.12162   -1.000
 4406.00    1.12416   1.13439  172.148
 4407.00    1.16803   1.15741  166.208
 4408.00    1.17308   1.17734  164.099
 4409.00    1.19147   1.20974   -1.000
 4410.00    1.22407   1.25735   -1.000
 4411.00    1.24254   1.28973   -1.000
 4412.00    1.27195   1.28945  144.374
 4413.00    1.27537   1.26029  143.344
 4414.00    1.20447   1.21151  147.961
 4415.00    1.14884   1.17124   -1.000
 4416.00    1.15741   1.17007  161.449
 4417.00    1.17985   1.20945   -1.000
 4418.00    1.21109   1.25825   -1.000
 4419.00    1.25075   1.30184   -1.000
 4420.00    1.26930   1.31139   -1.000
 4421.00    1.25027   1.29328   -1.000
 4422.00    1.21299   1.27256   -1.000
 4423.00    1.21256   1.26393   -1.000
 4424.00    1.22750   1.26592   -1.000
 4425.00    1.21771   1.26447   -1.000
 4426.00    1.20677   1.25676   -1.000
 4427.00    1.18874   1.25946   -1.000
 4428.00    1.18942   1.26697   -1.000
 4429.00    1.20340   1.27409   -1.000
 4430.00    1.20369   1.27983   -1.000
 4431.00    1.21482   1.28174   -1.000
 4432.00    1.23198   1.27693   -1.000
 4433.00    1.20868   1.25557   -1.000
 4434.00    1.16259   1.22168   -1.000
 4435.00    1.13235   1.20866   -1.000
 4436.00    1.15391   1.23652   -1.000
 4437.00    1.22483   1.28890   -1.000
 4438.00    1.26548   1.33199   -1.000
 4439.00    1.29361   1.34373   -1.000
 4440.00    1.29011   1.32233   -1.000
 4441.00    1.24228   1.27595   -1.000
 4442.00    1.20700   1.24133   -1.000
 4443.00    1.18204   1.23941   -1.000
 4444.00    1.19938   1.27546   -1.000
 4445.00    1.25708   1.31975   -1.000
 4446.00    1.29431   1.34705   -1.000
 4447.00    1.28787   1.35253   -1.000
 4448.00    1.28921   1.34933   -1.000
 4449.00    1.29468   1.34646   -1.000
 4450.00    1.26448   1.34238   -1.000
 4451.00    1.24528   1.33503   -1.000
 4452.00    1.27125   1.31896   -1.000
 4453.00    1.25857   1.27974   -1.000
 4454.00    1.21403   1.23475   -1.000
 4455.00    1.18006   1.20876   -1.000
 4456.00    1.20063   1.21312  162.270
 4457.00    1.24254   1.23233  159.127
 4458.00    1.22401   1.24541   -1.000
 4459.00    1.22336   1.24904   -1.000
 4460.00    1.21748   1.25147   -1.000
 4461.00    1.21792   1.25774   -1.000
 4462.00    1.22734   1.27210   -1.000
 4463.00    1.26636   1.29755   -1.000
 4464.00    1.29573   1.31952   -1.000
 4465.00    1.29476   1.32959   -1.000
 4466.00    1.30085   1.32384   -1.000
 4467.00    1.26792   1.30931   -1.000
 4468.00    1.23927   1.29449   -1.000
 4469.00    1.23224   1.28998   -1.000
 4470.00    1.23732   1.30412   -1.000
 4471.00    1.26897   1.33323   -1.000
 4472.00    1.31176   1.36801   -1.000
 4473.00    1.34171   1.39756   -1.000
 4474.00    1.35182   1.41185   -1.000
 4475.00    1.37274   1.41465   -1.000
 4476.00    1.36832   1.41578   -1.000
 4477.00    1.38859   1.41776   -1.000
 4478.00    1.38982   1.40713  134.434
 4479.00    1.34789   1.37646   -1.000
 4480.00    1.30049   1.32888   -1.000
 4481.00    1.27762   1.29951   -1.000
 4482.00    1.29902   1.30748  151.396
 4483.00    1.31557   1.34152   -1.000
 4484.00    1.35070   1.38924   -1.000
 4485.00    1.39037   1.42510   -1.000
 4486.00    1.40701   1.43408   -1.000
 4487.00    1.38032   1.41417   -1.000
 4488.00    1.33614   1.38509   -1.000
 4489.00    1.29673   1.36092   -1.000
 4490.00    1.30060   1.35972   -1.000
 4491.00    1.33311   1.37728   -1.000
 4492.00    1.34701   1.39667   -1.000
 4493.00    1.35505   1.39928   -1.000
 4494.00    1.33538   1.38118   -1.000
 4495.00    1.30788   1.37176   -1.000
 4496.00    1.30619   1.37992   -1.000
 4497.00    1.32074   1.39735   -1.000
 4498.00    1.35884   1.41263   -1.000
 4499.00    1.38220   1.42021   -1.000
 4500.00    1.36320   1.41686   -1.000
 4501.00    1.35743   1.41754   -1.000
 4502.00    1.37614   1.43848   -1.000
 4503.00    1.40599   1.46822   -1.000
 4504.00    1.42692   1.49597   -1.000
 4505.00    1.41746   1.50606   -1.000
 4506.00    1.40871   1.49997   -1.000
 4507.00    1.40315   1.48524   -1.000
 4508.00    1.41021   1.47669   -1.000
 4509.00    1.43130   1.47949   -1.000
 4510.00    1.43195   1.48499   -1.000
 4511.00    1.42937   1.48297   -1.000
 4512.00    1.41078   1.46954   -1.000
 4513.00    1.39128   1.45376   -1.000
 4514.00    1.39322   1.44082   -1.000
 4515.00    1.39439   1.43338   -1.000
 4516.00    1.40781   1.43527   -1.000
 4517.00    1.39755   1.43548   -1.000
 4518.00    1.38338   1.42902   -1.000
 4519.00    1.37716   1.42943   -1.000
 4520.00    1.40049   1.43789   -1.000
 4521.00    1.40911   1.44492   -1.000
 4522.00    1.36996   1.43975   -1.000
 4523.00    1.34513   1.42352   -1.000
 4524.00    1.35166   1.40773   -1.000
 4525.00    1.35019   1.39180   -1.000
 4526.00    1.32032   1.36709   -1.000
 4527.00    1.28633   1.33506   -1.000
 4528.00    1.26415   1.30808   -1.000
 4529.00    1.27790   1.30430   -1.000
 4530.00    1.30390   1.31839  154.183
 4531.00    1.32929   1.33886  151.366
 4532.00    1.32604   1.34291  148.714
 4533.00    1.30371   1.32580   -1.000
 4534.00    1.26656   1.30761   -1.000
 4535.00    1.24999   1.31114   -1.000
 4536.00    1.32518   1.35025   -1.000
 4537.00    1.40574   1.40805  145.580
 4538.00    1.46315   1.45663  137.247
 4539.00    1.43941   1.47005   -1.000
 4540.00    1.41064   1.45767   -1.000
 4541.00    1.42215   1.44315   -1.000
 4542.00    1.41602   1.44232   -1.000
 4543.00    1.40571   1.44843   -1.000
 4544.00    1.38523   1.44503   -1.000
 4545.00    1.38682   1.43324   -1.000
 4546.00    1.38648   1.42445   64.017
 4547.00    1.21154   1.41471   -1.000
 4548.00    0.33356   1.39573   -1.000
 4549.00    0.04010   1.37622   -1.000
 4550.00    0.20055   1.37719   -1.000
 4551.00    0.97649   1.39987   -1.000
 4552.00    0.51907   1.41596   -1.000
 4553.00    0.96882   1.40919   -1.000
 4554.00    1.34643   1.39457   -1.000
 4555.00    1.33498   1.38980   -1.000
 4556.00    1.36493   1.41025   -1.000
 4557.00    1.41986   1.45090   -1.000
 4558.00    1.46255   1.48546   -1.000
 4559.00    1.47103   1.50665   -1.000
 4560.00    1.45651   1.51743   -1.000
 4561.00    1.45606   1.51908   -1.000
 4562.00    1.43391   1.50843   -1.000
 4563.00    1.41910   1.48519   -1.000
 4564.00    1.39262   1.46066   -1.000
 4565.00    1.38514   1.45202   -1.000
 4566.00    1.42455   1.46603   -1.000
 4567.00    1.47541   1.49599   -1.000
 4568.00    1.50485   1.51697  132.443
 4569.00    1.49643   1.51802   -1.000
 4570.00    1.46351   1.49719   -1.000
 4571.00    1.40300   1.46973   -1.000
 4572.00    1.38987   1.45828   -1.000
 4573.00    1.42748   1.47598   -1.000
 4574.00    1.46372   1.50440   -1.000
 4575.00    1.47138   1.51796   -1.000
 4576.00    1.45643   1.51847   -1.000
 4577.00    1.46086   1.51216   -1.000
 4578.00    1.46013   1.49730   -1.000
 4579.00    1.44106   1.46974   -1.000
 4580.00    1.41120   1.44168   -1.000
 4581.00    1.40128   1.42287   -1.000
 4582.00    1.41412   1.42023  142.932
 4583.00    1.42240   1.42728  140.865
 4584.00    1.42510   1.43665  139.952
 4585.00    1.42533   1.44067  140.475
 4586.00    1.43025   1.44889   -1.000
 4587.00    1.44891   1.46560  139.053
 4588.00    1.47507   1.48815  135.331
 4589.00    1.49685   1.50463  132.618
 4590.00    1.48320   1.50461   -1.000
 4591.00    1.44416   1.49000   -1.000
 4592.00    1.39819   1.47243   -1.000
 4593.00    1.40524   1.46626   -1.000
 4594.00    1.42552   1.47390   -1.000
 4595.00    1.42961   1.48443   -1.000
 4596.00    1.43636   1.49392   -1.000
 4597.00    1.46063   1.50191   -1.000
 4598.00    1.48569   1.50572   -1.000
 4599.00    1.48060   1.50007   -1.000
 4600.00    1.45355   1.48972   -1.000
 4601.00    1.42151   1.48023   -1.000
 4602.00    1.39926   1.47887   -1.000
 4603.00    1.42527   1.48360   -1.000
 4604.00    1.45377   1.49087   -1.000
 4605.00    1.47099   1.49896   -1.000
 4606.00    1.47624   1.50867   -1.000
 4607.00    1.49213   1.52354   -1.000
 4608.00    1.52734   1.54293  131.733
 4609.00    1.54130   1.56275   -1.000
 4610.00    1.54826   1.57008   -1.000
 4611.00    1.53304   1.55785   -1.000
 4612.00    1.51188   1.54625   -1.000
 4613.00    1.50374   1.53938   -1.000
 4614.00    1.48090   1.54014   -1.000
 4615.00    1.48256   1.54367   -1.000
 4616.00    1.52074   1.54294   -1.000
 4617.00    1.51703   1.53738  129.942
 4618.00    1.50594   1.53107   -1.000
 4619.00    1.51208   1.53023  131.835
 4620.00    1.53523   1.53936  131.600
 4621.00    1.52348   1.55782   -1.000
 4622.00    1.53405   1.57309   -1.000
 4623.00    1.55854   1.57443  128.293
 4624.00    1.55441   1.56917  128.632
 4625.00    1.53536   1.56506   -1.000
 4626.00    1.50859   1.55833   -1.000
 4627.00    1.51363   1.55495   -1.000
 4628.00    1.49450   1.55341   -1.000
 4629.00    1.47433   1.55266   -1.000
 4630.00    1.47394   1.55496   -1.000
 4631.00    1.52634   1.56480   -1.000
 4632.00    1.54726   1.57309   -1.000
 4633.00    1.53044   1.56586   -1.000
 4634.00    1.52280   1.55203   -1.000
 4635.00    1.51388   1.54321   -1.000
 4636.00    1.49483   1.53957   -1.000
 4637.00    1.49527   1.53412   -1.000
 4638.00    1.48991   1.53049   -1.000
 4639.00    1.46850   1.53193   -1.000
 4640.00    1.48131   1.54396   -1.000
 4641.00    1.52851   1.56328   -1.000
 4642.00    1.55546   1.58165   -1.000
 4643.00    1.55278   1.58422   -1.000
 4644.00    1.54125   1.56801   -1.000
 4645.00    1.49570   1.54340   -1.000
 4646.00    1.45972   1.51249   -1.000
 4647.00    1.45082   1.48922   -1.000
 4648.00    1.47455   1.49248  139.878
 4649.00    1.51271   1.51612  137.193
 4650.00    1.51542   1.54424   -1.000
 4651.00    1.51615   1.56008   -1.000
 4652.00    1.51582   1.56129   -1.000
 4653.00    1.50187   1.55614   -1.000
 4654.00    1.49689   1.54359   -1.000
 4655.00    1.48772   1.53127   -1.000
 4656.00    1.48273   1.53082   -1.000
 4657.00    1.49968   1.55203   -1.000
 4658.00    1.53967   1.59053   -1.000
 4659.00    1.59398   1.63035   -1.000
 4660.00    1.62883   1.64628  124.459
 4661.00    1.59303   1.63855   -1.000
 4662.00    1.55488   1.61675   -1.000
 4663.00    1.52522   1.59309   -1.000
 4664.00    1.51474   1.57038   -1.000
 4665.00    1.52833   1.54476  132.090
 4666.00    1.48366   1.50792   -1.000
 4667.00    1.43638   1.47083   -1.000
 4668.00    1.40905   1.45585   -1.000
 4669.00    1.42495   1.47541   -1.000
 4670.00    1.45199   1.51428   -1.000
 4671.00    1.51152   1.55286   -1.000
 4672.00    1.53316   1.57395   -1.000
 4673.00    1.53268   1.58131   -1.000
 4674.00    1.51977   1.58540   -1.000
 4675.00    1.54067   1.59721   -1.000
 4676.00    1.58037   1.61006   -1.000
 4677.00    1.58080   1.60430   -1.000
 4678.00    1.56925   1.58147  128.164
 4679.00    1.52790   1.55428   -1.000
 4680.00    1.51238   1.53688   -1.000
 4681.00    1.50219   1.53182   -1.000
 4682.00    1.50338   1.53453   -1.000
 4683.00    1.53606   1.54662  135.051
 4684.00    1.54545   1.56080  131.571
 4685.00    1.55122   1.56992  130.002
 4686.00    1.56513   1.57311  130.570
 4687.00    1.55471   1.57526   -1.000
 4688.00    1.54967   1.57766   -1.000
 4689.00    1.54690   1.57942   -1.000
 4690.00    1.55502   1.58072   -1.000
 4691.00    1.55082   1.57787   -1.000
 4692.00    1.54215   1.57878   -1.000
 4693.00    1.58291   1.58914  130.863
 4694.00    1.61271   1.60075  128.868
 4695.00    1.60981   1.60783  125.957
 4696.00    1.61201   1.61098  124.476
 4697.00    1.60585   1.60189  125.294
 4698.00    1.57028   1.57897  129.116
 4699.00    1.55404   1.55706  132.981
 4700.00    1.56411   1.54027  134.318
 4701.00    1.56375   1.52877   -1.000
 4702.00    1.54617   1.51485   -1.000
 4703.00    1.52618   1.50923  136.723
 4704.00    1.54759   1.52225   -1.000
 4705.00    1.57003   1.54363   -1.000
 4706.00    1.56399   1.54972  132.588
 4707.00    1.52988   1.53632  134.701
 4708.00    1.50746   1.52212  137.434
 4709.00    1.51856   1.52590  138.629
 4710.00    1.53397   1.54453  137.710
 4711.00    1.55628   1.56673  133.448
 4712.00    1.59413   1.58628  129.854
 4713.00    1.57788   1.58740  128.757
 4714.00    1.56919   1.57678  130.169
 4715.00    1.57133   1.57510  132.676
 4716.00    1.56077   1.59031   -1.000
 4717.00    1.59048   1.61652   -1.000
 4718.00    1.62391   1.63468  127.222
 4719.00    1.59517   1.64311   -1.000
 4720.00    1.61957   1.64361   -1.000
 4721.00    1.61753   1.64196   -1.000
 4722.00    1.59408   1.64067   -1.000
 4723.00    1.60341   1.64323   -1.000
 4724.00    1.61362   1.64815   -1.000
 4725.00    1.60826   1.64751   -1.000
 4726.00    1.57846   1.63374   -1.000
 4727.00    1.53331   1.60362   -1.000
 4728.00    1.51781   1.57264   -1.000
 4729.00    1.51277   1.55883   -1.000
 4730.00    1.52674   1.56034   -1.000
 4731.00    1.54987   1.56696  134.750
 4732.00    1.56542   1.58022  133.705
 4733.00    1.56436   1.59538   -1.000
 4734.00    1.56587   1.60284   -1.000
 4735.00    1.56007   1.60227   -1.000
 4736.00    1.57826   1.59979   -1.000
 4737.00    1.60249   1.59798  131.051
 4738.00    1.59908   1.60300  131.110
 4739.00    1.59544   1.61572   -1.000
 4740.00    1.59497   1.62420   -1.000
 4741.00    1.58171   1.62350   -1.000
 4742.00    1.57841   1.62647   -1.000
 4743.00    1.58835   1.63480   -1.000
 4744.00    1.60722   1.64233   -1.000
 4745.00    1.60118   1.64586   -1.000
 4746.00    1.60794   1.64734   -1.000
 4747.00    1.63703   1.65432  127.280
 4748.00    1.65233   1.66698  125.979
 4749.00    1.64507   1.67717   -1.000
 4750.00    1.63269   1.68569   -1.000
 4751.00    1.61136   1.68535   -1.000
 4752.00    1.60942   1.67393   -1.000
 4753.00    1.61943   1.65443   -1.000
 4754.00    1.60189   1.63552   -1.000
 4755.00    1.59101   1.62862   -1.000
 4756.00    1.61579   1.63209  130.164
 4757.00    1.61769   1.64182   -1.000
 4758.00    1.58753   1.65274   -1.000
 4759.00    1.58840   1.66397   -1.000
 4760.00    1.59701   1.66655   -1.000
 4761.00    1.57146   1.65340   -1.000
 4762.00    1.53453   1.62414   -1.000
 4763.00    1.51795   1.59071   -1.000
 4764.00    1.50143   1.57575   -1.000
 4765.00    1.52663   1.57296   -1.000
 4766.00    1.55083   1.57792   -1.000
 4767.00    1.57975   1.59247  136.476
 4768.00    1.58546   1.62152   -1.000
 4769.00    1.58371   1.65117   -1.000
 4770.00    1.60360   1.66497   -1.000
 4771.00    1.58114   1.66031   -1.000
 4772.00    1.58974   1.65372   -1.000
 4773.00    1.58433   1.65647   -1.000
 4774.00    1.60892   1.67507   -1.000
 4775.00    1.62323   1.69270   -1.000
 4776.00    1.60848   1.70023   -1.000
 4777.00    1.62887   1.69829   -1.000
 4778.00    1.62846   1.68980   -1.000
 4779.00    1.62169   1.67985   -1.000
 4780.00    1.58530   1.67094   -1.000
 4781.00    1.58672   1.66701   -1.000
 4782.00    1.60339   1.66014   -1.000
 4783.00    1.57783   1.65071   -1.000
 4784.00    1.57678   1.64420   -1.000
 4785.00    1.58222   1.63948   -1.000
 4786.00    1.58683   1.63600   -1.000
 4787.00    1.56735   1.63413   -1.000
 4788.00    1.58476   1.63728   -1.000
 4789.00    1.58309   1.64437   -1.000
 4790.00    1.59270   1.65604   -1.000
 4791.00    1.59673   1.67295   -1.000
 4792.00    1.63167   1.69377   -1.000
 4793.00    1.64510   1.71656   -1.000
 4794.00    1.66939   1.73711   -1.000
 4795.00    1.67502   1.75199   -1.000
 4796.00    1.68672   1.75140   -1.000
 4797.00    1.65081   1.73709   -1.000
 4798.00    1.60565   1.71708   -1.000
 4799.00    1.61378   1.69916   -1.000
 4800.00    1.63094   1.69546   -1.000
 4801.00    1.64146   1.71048   -1.000
 4802.00    1.65854   1.73188   -1.000
 4803.00    1.67937   1.74088   -1.000
 4804.00    1.65072   1.73543   -1.000
 4805.00    1.60406   1.72132   -1.000
 4806.00    1.60365   1.71175   -1.000
 4807.00    1.61526   1.70739   -1.000
 4808.00    1.61449   1.70668   -1.000
 4809.00    1.61127   1.71343   -1.000
 4810.00    1.62365   1.72397   -1.000
 4811.00    1.64595   1.73024   -1.000
 4812.00    1.65135   1.73363   -1.000
 4813.00    1.65744   1.73928   -1.000
 4814.00    1.67618   1.74626   -1.000
 4815.00    1.68419   1.75657   -1.000
 4816.00    1.68688   1.76903   -1.000
 4817.00    1.69111   1.77806   -1.000
 4818.00    1.69792   1.78021   -1.000
 4819.00    1.67761   1.77955   -1.000
 4820.00    1.65801   1.77952   -1.000
 4821.00    1.66891   1.77009   -1.000
 4822.00    1.64096   1.74391   -1.000
 4823.00    1.63537   1.70810   -1.000
 4824.00    1.62992   1.68347   -1.000
 4825.00    1.65234   1.69258   -1.000
 4826.00    1.67587   1.71942   -1.000
 4827.00    1.65892   1.73767   -1.000
 4828.00    1.65157   1.73911   -1.000
 4829.00    1.65652   1.73158   -1.000
 4830.00    1.65589   1.72787   -1.000
 4831.00    1.63288   1.71775   -1.000
 4832.00    1.63042   1.70426   -1.000
 4833.00    1.65638   1.70222   -1.000
 4834.00    1.66686   1.71180   -1.000
 4835.00    1.67720   1.72665   -1.000
 4836.00    1.67245   1.73628   -1.000
 4837.00    1.66171   1.73607   -1.000
 4838.00    1.65009   1.72816   -1.000
 4839.00    1.62909   1.71211   -1.000
 4840.00    1.64003   1.69589   -1.000
 4841.00    1.63890   1.68755   -1.000
 4842.00    1.64329   1.69102   -1.000
 4843.00    1.62983   1.69746   -1.000
 4844.00    1.64304   1.70344   -1.000
 4845.00    1.69447   1.71784   -1.000
 4846.00    1.70658   1.73326   -1.000
 4847.00    1.68445   1.72908   -1.000
 4848.00    1.63594   1.71257   -1.000
 4849.00    1.62637   1.70435   -1.000
 4850.00    1.63812   1.71011   -1.000
 4851.00    1.64947   1.71831   -1.000
 4852.00    1.65476   1.71386   -1.000
 4853.00    1.65258   1.69579   -1.000
 4854.00    1.62777   1.65793   -1.000
 4855.00    1.57802   1.61327   -1.000
 4856.00    1.56533   1.58117  137.826
 4857.00    1.58373   1.56413  137.351
 4858.00    1.54973   1.53499  135.910
 4859.00    1.44063   1.44522  139.847
 4860.00    1.29138   1.31721   -1.000
 4861.00    1.19720   1.21844   -1.000
 4862.00    1.23237   1.21200   -1.000
 4863.00    1.33773   1.30111   -1.000
 4864.00    1.45498   1.41306   -1.000
 4865.00    1.52082   1.50757  142.955
 4866.00    1.55554   1.57378   -1.000
 4867.00    1.59606   1.61820   -1.000
 4868.00    1.61477   1.64439   -1.000
 4869.00    1.61155   1.64866   -1.000
 4870.00    1.59118   1.62649   -1.000
 4871.00    1.56518   1.58576   -1.000
 4872.00    1.53372   1.56056   -1.000
 4873.00    1.57263   1.58526  140.570
 4874.00    1.61747   1.63514  136.460
 4875.00    1.62807   1.67454   -1.000
 4876.00    1.61868   1.68378   -1.000
 4877.00    1.61888   1.68364   -1.000
 4878.00    1.64420   1.69799   -1.000
 4879.00    1.65740   1.72535   -1.000
 4880.00    1.64977   1.74805   -1.000
 4881.00    1.63949   1.75071   -1.000
 4882.00    1.62309   1.73522   -1.000
 4883.00    1.61914   1.72556   -1.000
 4884.00    1.63748   1.71710   -1.000
 4885.00    1.63801   1.70281   -1.000
 4886.00    1.63195   1.68837   -1.000
 4887.00    1.63581   1.68226   -1.000
 4888.00    1.64077   1.68317   -1.000
 4889.00    1.63288   1.67224   -1.000
 4890.00    1.57775   1.64261   -1.000
 4891.00    1.55337   1.62161   -1.000
 4892.00    1.61059   1.63998   -1.000
 4893.00    1.65894   1.70836   -1.000
 4894.00    1.73766   1.79004   -1.000
 4895.00    1.78573   1.83850   -1.000
 4896.00    1.78413   1.85988   -1.000
 4897.00    1.79427   1.86166   -1.000
 4898.00    1.77839   1.85110   -1.000
 4899.00    1.75123   1.83036   -1.000
 4900.00    1.70524   1.81210   -1.000
 4901.00    1.70187   1.80167   -1.000
 4902.00    1.70483   1.79549   -1.000
 4903.00    1.68208   1.78244   -1.000
 4904.00    1.69429   1.77567   -1.000
 4905.00    1.73342   1.79639   -1.000
 4906.00    1.76316   1.82756   -1.000
 4907.00    1.76906   1.83836   -1.000
 4908.00    1.75195   1.82351   -1.000
 4909.00    1.71545   1.78609   -1.000
 4910.00    1.69538   1.75016   -1.000
 4911.00    1.70624   1.73356   -1.000
 4912.00    1.74333   1.75002  131.613
 4913.00    1.74941   1.78037   -1.000
 4914.00    1.74071   1.80810   -1.000
 4915.00    1.75762   1.82878   -1.000
 4916.00    1.76972   1.83189   -1.000
 4917.00    1.72549   1.79599   -1.000
 4918.00    1.65092   1.72586   -1.000
 4919.00    1.57519   1.64283   -1.000
 4920.00    1.54525   1.58795   -1.000
 4921.00    1.59760   1.58626  145.083
 4922.00    1.65910   1.62669   -1.000
 4923.00    1.69545   1.67266  135.170
 4924.00    1.69213   1.69880  133.194
 4925.00    1.69245   1.72320   -1.000
 4926.00    1.73521   1.75794   -1.000
 4927.00    1.78343   1.79883  127.907
 4928.00    1.80344   1.83591   -1.000
 4929.00    1.81542   1.85759   -1.000
 4930.00    1.82290   1.86735   -1.000
 4931.00    1.81750   1.86110   -1.000
 4932.00    1.78410   1.83001   -1.000
 4933.00    1.69879   1.78268   -1.000
 4934.00    1.66612   1.75160   -1.000
 4935.00    1.70255   1.75051   -1.000
 4936.00    1.73923   1.76746   -1.000
 4937.00    1.69619   1.75790   -1.000
 4938.00    1.65824   1.71982   -1.000
 4939.00    1.64983   1.70090   -1.000
 4940.00    1.69395   1.72122   -1.000
 4941.00    1.75791   1.77681  131.689
 4942.00    1.79476   1.83042   -1.000
 4943.00    1.82003   1.85735   -1.000
 4944.00    1.79319   1.86256   -1.000
 4945.00    1.78405   1.85360   -1.000
 4946.00    1.79923   1.84374   -1.000
 4947.00    1.80638   1.84543   -1.000
 4948.00    1.80914   1.86500   -1.000
 4949.00    1.83115   1.88672   -1.000
 4950.00    1.84258   1.89491   -1.000
 4951.00    1.82871   1.88917   -1.000
 4952.00    1.81394   1.87964   -1.000
 4953.00    1.79746   1.87034   -1.000
 4954.00    1.79011   1.85890   -1.000
 4955.00    1.75215   1.83112   -1.000
 4956.00    1.68043   1.76344   -1.000
 4957.00    1.61471   1.68304   -1.000
 4958.00    1.59549   1.65402   -1.000
 4959.00    1.67454   1.69694   -1.000
 4960.00    1.75995   1.78083   -1.000
 4961.00    1.78762   1.83910   -1.000
 4962.00    1.78242   1.86048   -1.000
 4963.00    1.76816   1.86013   -1.000
 4964.00    1.75441   1.84624   -1.000
 4965.00    1.72594   1.82232   -1.000
 4966.00    1.70657   1.79885   -1.000
 4967.00    1.72128   1.78482   -1.000
 4968.00    1.73167   1.78026   -1.000
 4969.00    1.72068   1.78396   -1.000
 4970.00    1.73344   1.79753   -1.000
 4971.00    1.75695   1.81617   -1.000
 4972.00    1.78634   1.83631   -1.000
 4973.00    1.79761   1.85447   -1.000
 4974.00    1.78941   1.86813   -1.000
 4975.00    1.79413   1.87038   -1.000
 4976.00    1.79003   1.86525   -1.000
 4977.00    1.77339   1.85130   -1.000
 4978.00    1.77363   1.83233   -1.000
 4979.00    1.77560   1.81194   -1.000
 4980.00    1.72246   1.78707   -1.000
 4981.00    1.67468   1.74494   -1.000
 4982.00    1.62242   1.68472   -1.000
 4983.00    1.61272   1.63696   -1.000
 4984.00    1.62699   1.63208  144.266
 4985.00    1.67382   1.67464  141.568
 4986.00    1.70458   1.73355   -1.000
 4987.00    1.74185   1.78414   -1.000
 4988.00    1.76288   1.81544   -1.000
 4989.00    1.75428   1.81554   -1.000
 4990.00    1.72778   1.79618   -1.000
 4991.00    1.72880   1.77949   -1.000
 4992.00    1.74780   1.77965   -1.000
 4993.00    1.76314   1.79043   -1.000
 4994.00    1.76125   1.80158   -1.000
 4995.00    1.76149   1.81128   -1.000
 4996.00    1.77782   1.82251   -1.000
 4997.00    1.77437   1.82855   -1.000
 4998.00    1.75384   1.81713   -1.000
 4999.00    1.72764   1.78361   -1.000
 5000.00    1.69621   1.74453   -1.000
 5001.00    1.68699   1.71982   -1.000
 5002.00    1.70489   1.72189  137.238
 5003.00    1.72179   1.73858  135.949
 5004.00    1.72589   1.74431  135.043
 5005.00    1.70672   1.72270  136.946
 5006.00    1.67712   1.68774  140.441
 5007.00    1.69700   1.68443  141.274
 5008.00    1.75207   1.72080   -1.000
 5009.00    1.76946   1.76761  133.656
 5010.00    1.75095   1.79125   -1.000
 5011.00    1.72599   1.77233   -1.000
 5012.00    1.67045   1.72591   -1.000
 5013.00    1.63231   1.67667   -1.000
 5014.00    1.63165   1.65505   -1.000
 5015.00    1.67485   1.65931  145.797
 5016.00    1.68552   1.67649  142.594
 5017.00    1.69602   1.68890  139.601
 5018.00    1.68779   1.69526  138.974
 5019.00    1.71711   1.71280  138.999
 5020.00    1.73534   1.73624  137.440
 5021.00    1.73032   1.74928  136.305
 5022.00    1.72149   1.74919   -1.000
 5023.00    1.73876   1.74794  137.195
 5024.00    1.75218   1.76847  136.427
 5025.00    1.77263   1.79667   -1.000
 5026.00    1.77433   1.79924   -1.000
 5027.00    1.76002   1.78633   -1.000
 5028.00    1.75881   1.78042   -1.000
 5029.00    1.77946   1.78841  134.132
 5030.00    1.80252   1.81034  131.617
 5031.00    1.82914   1.83871  129.728
 5032.00    1.84520   1.86484  127.622
 5033.00    1.83259   1.87941   -1.000
 5034.00    1.81617   1.86637   -1.000
 5035.00    1.78120   1.82319   -1.000
 5036.00    1.74574   1.78097   -1.000
 5037.00    1.75078   1.75882  137.810
 5038.00    1.73753   1.75339  138.325
 5039.00    1.67769   1.72290   -1.000
 5040.00    1.62615   1.66169   -1.000
 5041.00    1.61439   1.62372  151.414
 5042.00    1.66119   1.64324  151.605
 5043.00    1.75310   1.71832   -1.000
 5044.00    1.82318   1.80484  135.463
 5045.00    1.86915   1.86425  129.884
 5046.00    1.88146   1.89467  127.109
 5047.00    1.84284   1.89291   -1.000
 5048.00    1.84581   1.86066  125.889
 5049.00    1.26824   1.81070   -1.000
 5050.00    0.23977   1.76969   -1.000
 5051.00    0.01174   1.75326   -1.000
 5052.00    0.48886   1.76854   -1.000
 5053.00    1.61005   1.80980   -1.000
 5054.00    1.87138   1.85445  129.796
 5055.00    1.89475   1.87424  127.414
 5056.00    1.87267   1.88465  126.181
 5057.00    1.88138   1.89472  125.759
 5058.00    1.88179   1.90522   -1.000
 5059.00    1.89312   1.91406  126.215
 5060.00    1.87124   1.91845   -1.000
 5061.00    1.88893   1.92003   -1.000
 5062.00    1.88880   1.91803   -1.000
 5063.00    1.84828   1.89129   -1.000
 5064.00    1.78480   1.84237   -1.000
 5065.00    1.75256   1.80612   -1.000
 5066.00    1.77375   1.79506   -1.000
 5067.00    1.79603   1.80822  135.403
 5068.00    1.81598   1.81902  133.349
 5069.00    1.82901   1.82348  132.894
 5070.00    1.86311   1.83095   -1.000
 5071.00    1.85190   1.83423  131.398
 5072.00    1.83893   1.82305  132.426
 5073.00    1.83942   1.81260   -1.000
 5074.00    1.84835   1.81960   -1.000
 5075.00    1.84833   1.83585  130.838
 5076.00    1.84719   1.84526  130.648
 5077.00    1.84250   1.83787  130.544
 5078.00    1.80750   1.80903  131.789
 5079.00    1.74327   1.75903  136.335
 5080.00    1.69552   1.72353   -1.000
 5081.00    1.70752   1.72178  144.596
 5082.00    1.76353   1.74049  141.631
 5083.00    1.79264   1.76508   -1.000
 5084.00    1.79973   1.78788  136.714
 5085.00    1.83247   1.81978  134.143
 5086.00    1.87203   1.85249  131.836
 5087.00    1.88407   1.86974  130.868
 5088.00    1.87273   1.87584  130.675
 5089.00    1.86898   1.88035  130.026
 5090.00    1.87229   1.88650  129.089
 5091.00    1.87924   1.89529  128.372
 5092.00    1.90838   1.90900  127.707
 5093.00    1.93680   1.92516  126.246
 5094.00    1.92674   1.93165  125.103
 5095.00    1.89699   1.91361  126.200
 5096.00    1.89200   1.87055  128.817
 5097.00    1.86677   1.82426   -1.000
 5098.00    1.81474   1.78926   -1.000
 5099.00    1.80139   1.77717   -1.000
 5100.00    1.81965   1.79072   -1.000
 5101.00    1.86341   1.82885   -1.000
 5102.00    1.90031   1.86352   -1.000
 5103.00    1.89297   1.87406  129.688
 5104.00    1.85426   1.86841  130.414
 5105.00    1.84206   1.85229  132.122
 5106.00    1.82987   1.82928  133.798
 5107.00    1.79624   1.80452  135.437
 5108.00    1.78315   1.78908  137.138
 5109.00    1.80102   1.78890  136.973
 5110.00    1.82243   1.80235  136.104
 5111.00    1.85438   1.82796   -1.000
 5112.00    1.86841   1.85810  133.203
 5113.00    1.88115   1.88068  131.563
 5114.00    1.88513   1.89994  129.959
 5115.00    1.89803   1.91684  128.777
 5116.00    1.92178   1.93227  128.078
 5117.00    1.93183   1.94208  126.739
 5118.00    1.92958   1.94396  125.671
 5119.00    1.92937   1.93698  126.011
 5120.00    1.91307   1.91763  127.637
 5121.00    1.89532   1.89153  129.560
 5122.00    1.85766   1.86346  131.697
 5123.00    1.81326   1.83385  135.067
 5124.00    1.79489   1.80315  139.142
 5125.00    1.81253   1.78835   -1.000
 5126.00    1.83053   1.78950   -1.000
 5127.00    1.82190   1.79668   -1.000
 5128.00    1.80481   1.79851  137.467
 5129.00    1.81424   1.80015  137.642
 5130.00    1.84928   1.80897   -1.000
 5131.00    1.87986   1.82676   -1.000
 5132.00    1.89506   1.84807   -1.000
 5133.00    1.89733   1.86426   -1.000
 5134.00    1.90457   1.87640   -1.000
 5135.00    1.92493   1.88447   -1.000
 5136.00    1.91646   1.88216   -1.000
 5137.00    1.86739   1.86104  131.852
 5138.00    1.83158   1.83195  135.059
 5139.00    1.83046   1.80724   -1.000
 5140.00    1.83151   1.80198   -1.000
 5141.00    1.81609   1.80804  136.273
 5142.00    1.81366   1.81268  137.230
 5143.00    1.81085   1.81627  139.451
 5144.00    1.83606   1.82444  138.717
 5145.00    1.85145   1.83477  136.404
 5146.00    1.85080   1.83191  135.882
 5147.00    1.84802   1.81612   -1.000
 5148.00    1.85147   1.81636   -1.000
 5149.00    1.88653   1.83509   -1.000
 5150.00    1.85798   1.83813  135.050
 5151.00    1.81625   1.82357  136.666
 5152.00    1.81142   1.80667  139.157
 5153.00    1.80362   1.79523  140.118
 5154.00    1.82356   1.79836   -1.000
 5155.00    1.87878   1.82288   -1.000
 5156.00    1.93837   1.86670   -1.000
 5157.00    1.97570   1.90811   -1.000
 5158.00    1.98936   1.93830   -1.000
 5159.00    1.98739   1.95130   -1.000
 5160.00    1.97358   1.95256  126.491
 5161.00    1.97218   1.94439   -1.000
 5162.00    1.95437   1.92479   -1.000
 5163.00    1.93479   1.89671   -1.000
 5164.00    1.91064   1.85579   -1.000
 5165.00    1.80852   1.77306   -1.000
 5166.00    1.65093   1.64542  147.075
 5167.00    1.53032   1.52805  162.426
 5168.00    1.51144   1.47889   -1.000
 5169.00    1.60204   1.53372   -1.000
 5170.00    1.66445   1.59099   -1.000
 5171.00    1.61114   1.56982   -1.000
 5172.00    1.51796   1.50875  168.269
 5173.00    1.51422   1.48216   -1.000
 5174.00    1.65091   1.56857   -1.000
 5175.00    1.79322   1.70667   -1.000
 5176.00    1.85159   1.81095   -1.000
 5177.00    1.87562   1.86681  136.035
 5178.00    1.89786   1.88199  134.396
 5179.00    1.90154   1.87969  134.094
 5180.00    1.85621   1.84792  135.385
 5181.00    1.77163   1.76162  140.037
 5182.00    1.62333   1.63591  150.051
 5183.00    1.50960   1.51343  167.366
 5184.00    1.51731   1.48454   -1.000
 5185.00    1.65521   1.56376   -1.000
 5186.00    1.81161   1.70004   -1.000
 5187.00    1.89429   1.81053   -1.000
 5188.00    1.89544   1.85095   -1.000
 5189.00    1.89683   1.86679   -1.000
 5190.00    1.89663   1.87051   -1.000
 5191.00    1.85141   1.84652  135.312
 5192.00    1.78618   1.80837   -1.000
 5193.00    1.80118   1.78993  143.443
 5194.00    1.83658   1.79641   -1.000
 5195.00    1.85109   1.82047   -1.000
 5196.00    1.87521   1.84032   -1.000
 5197.00    1.92814   1.86489   -1.000
 5198.00    1.92706   1.90175   -1.000
 5199.00    1.93801   1.93559  130.964
 5200.00    1.95025   1.95441  129.861
 5201.00    1.94848   1.95523  129.710
 5202.00    1.92042   1.93139  130.728
 5203.00    1.87800   1.88454  133.071
 5204.00    1.83490   1.82322  136.109
 5205.00    1.79477   1.76334   -1.000
 5206.00    1.75988   1.72473   -1.000
 5207.00    1.77218   1.71337   -1.000
 5208.00    1.77596   1.71464   -1.000
 5209.00    1.78947   1.72772   -1.000
 5210.00    1.82965   1.76595   -1.000
 5211.00    1.90288   1.83151   -1.000
 5212.00    1.99794   1.91292   -1.000
 5213.00    2.04945   1.97063   -1.000
 5214.00    2.02245   1.98464   -1.000
 5215.00    1.97898   1.95273   -1.000
 5216.00    1.96451   1.91501   -1.000
 5217.00    1.95970   1.90904   -1.000
 5218.00    1.98991   1.94024   -1.000
 5219.00    2.02786   1.99062   -1.000
 5220.00    2.04935   2.02962  126.728
 5221.00    2.06598   2.05225  125.729
 5222.00    2.04066   2.04966  125.213
 5223.00    2.00997   2.02194  126.775
 5224.00    1.95576   1.96533  130.597
 5225.00    1.86677   1.87735  135.965
 5226.00    1.80767   1.79160  142.334
 5227.00    1.82045   1.76114   -1.000
 5228.00    1.90255   1.80051   -1.000
 5229.00    1.99678   1.89006   -1.000
 5230.00    2.04245   1.95653   -1.000
 5231.00    2.04344   1.97706   -1.000
 5232.00    2.01224   1.95621   -1.000
 5233.00    1.98299   1.91993   -1.000
 5234.00    1.96584   1.90428   -1.000
 5235.00    1.98832   1.93094   -1.000
 5236.00    2.04580   1.98411   -1.000
 5237.00    2.06003   2.03277   -1.000
 5238.00    2.06538   2.06206  124.430
 5239.00    2.07306   2.06853  124.284
 5240.00    2.06567   2.06623  124.669
 5241.00    2.07856   2.05989  124.467
 5242.00    2.07647   2.05316  123.743
 5243.00    2.07961   2.05511  123.904
 5244.00    2.06910   2.06889  123.665
 5245.00    2.06311   2.07090  123.465
 5246.00    2.03279   2.04413  125.867
 5247.00    1.97393   2.00360   -1.000
 5248.00    1.97977   1.97144  132.851
 5249.00    1.97419   1.96177  133.272
 5250.00    1.93376   1.96046   -1.000
 5251.00    1.93578   1.96233   -1.000
 5252.00    1.98066   1.97300  133.766
 5253.00    2.00518   1.98654  131.938
 5254.00    2.02326   1.98843   -1.000
 5255.00    2.03678   1.99104   -1.000
 5256.00    2.06487   2.01557   -1.000
 5257.00    2.10543   2.05467   -1.000
 5258.00    2.12611   2.09111   -1.000
 5259.00    2.11201   2.09882  122.131
 5260.00    2.06442   2.07053  123.212
 5261.00    2.00626   2.00964  126.534
 5262.00    1.93436   1.93067  131.856
 5263.00    1.87922   1.85167   -1.000
 5264.00    1.85357   1.78918   -1.000
 5265.00    1.84024   1.75893   -1.000
 5266.00    1.86597   1.77045   -1.000
 5267.00    1.91697   1.79486   -1.000
 5268.00    1.89168   1.79270   -1.000
 5269.00    1.80734   1.75409   -1.000
 5270.00    1.80141   1.71702   -1.000
 5271.00    1.89167   1.75520   -1.000
 5272.00    1.99661   1.84036   -1.000
 5273.00    2.02578   1.90583   -1.000
 5274.00    2.04011   1.93467   -1.000
 5275.00    2.02414   1.94261   -1.000
 5276.00    2.03897   1.96652   -1.000
 5277.00    2.10734   2.01609   -1.000
 5278.00    2.15387   2.07161   -1.000
 5279.00    2.15973   2.09765   -1.000
 5280.00    2.12160   2.07309   -1.000
 5281.00    2.06821   2.02656   -1.000
 5282.00    2.02345   1.98218   -1.000
 5283.00    2.00786   1.95541   -1.000
 5284.00    2.05716   1.96278   -1.000
 5285.00    2.12131   2.01511   -1.000
 5286.00    2.17067   2.08281   -1.000
 5287.00    2.16123   2.13407   -1.000
 5288.00    2.16072   2.15019  120.616
 5289.00    2.16684   2.15133  121.212
 5290.00    2.16613   2.15525  121.224
 5291.00    2.18136   2.15420   -1.000
 5292.00    2.19358   2.14884   -1.000
 5293.00    2.16678   2.14643  120.934
 5294.00    2.14828   2.13659  122.069
 5295.00    2.11811   2.10898  123.676
 5296.00    2.06284   2.05515  126.977
 5297.00    2.01071   1.98705   -1.000
 5298.00    1.99949   1.95187   -1.000
 5299.00    2.03977   1.96535   -1.000
 5300.00    2.07532   2.00215   -1.000
 5301.00    2.07692   2.03489   -1.000
 5302.00    2.09176   2.05167   -1.000
 5303.00    2.13549   2.07937   -1.000
 5304.00    2.18279   2.12093   -1.000
 5305.00    2.21546   2.14578   -1.000
 5306.00    2.20212   2.14710   -1.000
 5307.00    2.18056   2.13376   -1.000
 5308.00    2.17555   2.12804   -1.000
 5309.00    2.18195   2.14574   -1.000
 5310.00    2.20873   2.16936   -1.000
 5311.00    2.20369   2.18395  119.850
 5312.00    2.18708   2.18144  119.936
 5313.00    2.18839   2.16640  120.596
 5314.00    2.18808   2.14610   -1.000
 5315.00    2.17900   2.12060   -1.000
 5316.00    2.14099   2.09277   -1.000
 5317.00    2.13513   2.08360   -1.000
 5318.00    2.15514   2.10134   -1.000
 5319.00    2.18545   2.13318   -1.000
 5320.00    2.18057   2.14630   -1.000
 5321.00    2.17399   2.13437   -1.000
 5322.00    2.14538   2.10717   -1.000
 5323.00    2.11622   2.06737   -1.000
 5324.00    2.09260   2.03136   -1.000
 5325.00    2.08973   2.00639   -1.000
 5326.00    2.07711   1.97890   -1.000
 5327.00    1.98257   1.91605   -1.000
 5328.00    1.88339   1.84223   -1.000
 5329.00    1.92714   1.83361   -1.000
 5330.00    2.07254   1.89960   -1.000
 5331.00    2.12496   2.00269   -1.000
 5332.00    2.13700   2.06525   -1.000
 5333.00    2.16024   2.08524   -1.000
 5334.00    2.17498   2.10413   -1.000
 5335.00    2.18442   2.12369   -1.000
 5336.00    2.18082   2.12943   -1.000
 5337.00    2.16934   2.12153   -1.000
 5338.00    2.16425   2.10115   -1.000
 5339.00    2.14306   2.06414   -1.000
 5340.00    2.09704   2.02002   -1.000
 5341.00    2.07870   2.00192   -1.000
 5342.00    2.12551   2.02733   -1.000
 5343.00    2.17066   2.08039   -1.000
 5344.00    2.17657   2.10948   -1.000
 5345.00    2.16911   2.10528   -1.000
 5346.00    2.15578   2.08528   -1.000
 5347.00    2.13581   2.06687   -1.000
 5348.00    2.11297   2.05877   -1.000
 5349.00    2.12340   2.05946   -1.000
 5350.00    2.15609   2.07496   -1.000
 5351.00    2.18306   2.10748   -1.000
 5352.00    2.21027   2.14436   -1.000
 5353.00    2.20599   2.16383   -1.000
 5354.00    2.21640   2.17410   -1.000
 5355.00    2.24519   2.19310   -1.000
 5356.00    2.26199   2.21347   -1.000
 5357.00    2.27781   2.22705   -1.000
 5358.00    2.27426   2.22839   -1.000
 5359.00    2.26384   2.22435   -1.000
 5360.00    2.25708   2.21458   -1.000
 5361.00    2.22512   2.19147   -1.000
 5362.00    2.19615   2.16038   -1.000
 5363.00    2.18392   2.13128   -1.000
 5364.00    2.18097   2.10737   -1.000
 5365.00    2.16518   2.09464   -1.000
 5366.00    2.14793   2.09372   -1.000
 5367.00    2.17114   2.09855   -1.000
 5368.00    2.16644   2.09129   -1.000
 5369.00    2.11856   2.05912   -1.000
 5370.00    2.07388   2.00271   -1.000
 5371.00    2.07343   1.95695   -1.000
 5372.00    2.12222   1.95964   -1.000
 5373.00    2.19825   2.02012   -1.000
 5374.00    2.24188   2.10938   -1.000
 5375.00    2.25262   2.17121   -1.000
 5376.00    2.26624   2.19803   -1.000
 5377.00    2.26646   2.19917   -1.000
 5378.00    2.27428   2.19354   -1.000
 5379.00    2.26238   2.18608   -1.000
 5380.00    2.24510   2.17462   -1.000
 5381.00    2.21303   2.15922   -1.000
 5382.00    2.19464   2.14182   -1.000
 5383.00    2.18614   2.12934   -1.000
 5384.00    2.19048   2.13397   -1.000
 5385.00    2.23826   2.15895   -1.000
 5386.00    2.25594   2.18889   -1.000
 5387.00    2.23133   2.20124   -1.000
 5388.00    2.21833   2.19410  122.410
 5389.00    2.20297   2.17166   -1.000
 5390.00    2.19122   2.14530   -1.000
 5391.00    2.18483   2.12359   -1.000
 5392.00    2.16866   2.10632   -1.000
 5393.00    2.17194   2.09487   -1.000
 5394.00    2.16352   2.09190   -1.000
 5395.00    2.13104   2.07777   -1.000
 5396.00    2.09989   2.04656   -1.000
 5397.00    2.10345   2.01701   -1.000
 5398.00    2.16114   2.01422   -1.000
 5399.00    2.21292   2.05770   -1.000
 5400.00    2.22523   2.10729   -1.000
 5401.00    2.21556   2.13435   -1.000
 5402.00    2.20979   2.13568   -1.000
 5403.00    2.17067   2.10398   -1.000
 5404.00    2.12315   2.03949   -1.000
 5405.00    2.08665   1.98221   -1.000
 5406.00    2.08729   1.96615   -1.000
 5407.00    2.10909   1.99369   -1.000
 5408.00    2.13858   2.03509   -1.000
 5409.00    2.13296   2.04187   -1.000
 5410.00    2.13654   2.03260   -1.000
 5411.00    2.16056   2.04696   -1.000
 5412.00    2.21973   2.08641   -1.000
 5413.00    2.24313   2.12916   -1.000
 5414.00    2.23775   2.14404   -1.000
 5415.00    2.23366   2.14779   -1.000
 5416.00    2.25860   2.16814   -1.000
 5417.00    2.27006   2.19147   -1.000
 5418.00    2.27750   2.20621   -1.000
 5419.00    2.26059   2.20605   -1.000
 5420.00    2.23572   2.19677   -1.000
 5421.00    2.24440   2.19064   -1.000
 5422.00    2.25710   2.18222   -1.000
 5423.00    2.23535   2.16225   -1.000
 5424.00    2.21873   2.14316   -1.000
 5425.00    2.24366   2.14263   -1.000
 5426.00    2.26197   2.17732   -1.000
 5427.00    2.27720   2.20422   -1.000
 5428.00    2.24901   2.17603   -1.000
 5429.00    2.17635   2.11861   -1.000
 5430.00    2.17311   2.07339   -1.000
 5431.00    2.22486   2.07946   -1.000
 5432.00    2.21815   2.10506   -1.000
 5433.00    2.17066   2.10120   -1.000
 5434.00    2.17431   2.07946   -1.000
 5435.00    2.17729   2.06727   -1.000
 5436.00    2.18082   2.09126   -1.000
 5437.00    2.22686   2.14882   -1.000
 5438.00    2.26575   2.20748   -1.000
 5439.00    2.29870   2.24665   -1.000
 5440.00    2.33316   2.26087   -1.000
 5441.00    2.34402   2.27288   -1.000
 5442.00    2.31238   2.27899   -1.000
 5443.00    2.28828   2.26808  119.688
 5444.00    2.26174   2.22867   -1.000
 5445.00    2.19397   2.15797   -1.000
 5446.00    2.11091   2.08832   -1.000
 5447.00    2.07975   2.05204   -1.000
 5448.00    2.13571   2.07462   -1.000
 5449.00    2.21223   2.13750   -1.000
 5450.00    2.24928   2.19151   -1.000
 5451.00    2.25466   2.22183   -1.000
 5452.00    2.23825   2.22169  123.598
 5453.00    2.20171   2.19352  124.613
 5454.00    2.14944   2.14186  127.441
 5455.00    2.10046   2.08625  131.098
 5456.00    2.12853   2.06776   -1.000
 5457.00    2.22133   2.11495   -1.000
 5458.00    2.27533   2.18208   -1.000
 5459.00    2.26262   2.22890   -1.000
 5460.00    2.24515   2.23308  123.411
 5461.00    2.25268   2.20576   -1.000
 5462.00    2.24542   2.16649   -1.000
 5463.00    2.21203   2.14005   -1.000
 5464.00    2.22552   2.14252   -1.000
 5465.00    2.23827   2.16769   -1.000
 5466.00    2.24361   2.19747   -1.000
 5467.00    2.26218   2.21591   -1.000
 5468.00    2.27612   2.22919   -1.000
 5469.00    2.26939   2.23692   -1.000
 5470.00    2.26582   2.23151   -1.000
 5471.00    2.26633   2.21934   -1.000
 5472.00    2.24689   2.20736   -1.000
 5473.00    2.22269   2.19261   -1.000
 5474.00    2.20407   2.16995   -1.000
 5475.00    2.18346   2.13228   -1.000
 5476.00    2.15047   2.08940   -1.000
 5477.00    2.14379   2.07352   -1.000
 5478.00    2.19810   2.09753   -1.000
 5479.00    2.25138   2.14954   -1.000
 5480.00    2.24692   2.18158   -1.000
 5481.00    2.22027   2.17594   -1.000
 5482.00    2.20858   2.16935   -1.000
 5483.00    2.23674   2.18128   -1.000
 5484.00    2.28049   2.21455   -1.000
 5485.00    2.28991   2.24307   -1.000
 5486.00    2.28063   2.24419   -1.000
 5487.00    2.25266   2.22518   -1.000
 5488.00    2.23715   2.20433   -1.000
 5489.00    2.24387   2.20287   -1.000
 5490.00    2.24496   2.21684   -1.000
 5491.00    2.26898   2.23056   -1.000
 5492.00    2.27553   2.23854   -1.000
 5493.00    2.29749   2.23995   -1.000
 5494.00    2.30584   2.24135   -1.000
 5495.00    2.28987   2.23831   -1.000
 5496.00    2.27206   2.22456   -1.000
 5497.00    2.23369   2.20773   -1.000
 5498.00    2.24561   2.20024   -1.000
 5499.00    2.27927   2.20782   -1.000
 5500.00    2.27965   2.21314   -1.000
 5501.00    2.25218   2.19251   -1.000
 5502.00    2.22872   2.17106   -1.000
 5503.00    2.25875   2.17613   -1.000
 5504.00    2.27268   2.18612   -1.000
 5505.00    2.25869   2.18390   -1.000
 5506.00    2.23416   2.16224   -1.000
 5507.00    2.22573   2.14615   -1.000
 5508.00    2.25070   2.16471   -1.000
 5509.00    2.28427   2.19456   -1.000
 5510.00    2.27032   2.21214   -1.000
 5511.00    2.23839   2.20031   -1.000
 5512.00    2.22247   2.16779   -1.000
 5513.00    2.21023   2.13952   -1.000
 5514.00    2.20927   2.13584   -1.000
 5515.00    2.23837   2.15884   -1.000
 5516.00    2.28295   2.19094   -1.000
 5517.00    2.32244   2.22474   -1.000
 5518.00    2.35186   2.25460   -1.000
 5519.00    2.36411   2.27631   -1.000
 5520.00    2.36517   2.28387   -1.000
 5521.00    2.35911   2.28260   -1.000
 5522.00    2.35810   2.27987   -1.000
 5523.00    2.36566   2.28052   -1.000
 5524.00    2.35429   2.27435   -1.000
 5525.00    2.31147   2.25045   -1.000
 5526.00    2.26287   2.20894   -1.000
 5527.00    2.21493   2.15807   -1.000
 5528.00    2.19789   2.12712   -1.000
 5529.00    2.22247   2.13544   -1.000
 5530.00    2.28327   2.18821   -1.000
 5531.00    2.30904   2.24136   -1.000
 5532.00    2.31776   2.26188   -1.000
 5533.00    2.30533   2.25470   -1.000
 5534.00    2.28614   2.23590   -1.000
 5535.00    2.29310   2.22460   -1.000
 5536.00    2.30661   2.22952   -1.000
 5537.00    2.32464   2.24706   -1.000
 5538.00    2.33679   2.25879   -1.000
 5539.00    2.32928   2.26529   -1.000
 5540.00    2.35921   2.27946   -1.000
 5541.00    2.37603   2.29277   -1.000
 5542.00    2.35981   2.28731   -1.000
 5543.00    2.33694   2.27019   -1.000
 5544.00    2.32343   2.25631   -1.000
 5545.00    2.32982   2.25822   -1.000
 5546.00    2.32094   2.26898   -1.000
 5547.00    2.33317   2.27917   -1.000
 5548.00    2.35047   2.29603   -1.000
 5549.00    2.37667   2.31592   -1.000
 5550.00    2.39651   2.32446   -1.000
 5551.00    2.39180   2.32393   -1.000
 5552.00    2.37407   2.31558   -1.000
 5553.00    2.34790   2.30019   -1.000
 5554.00    2.34832   2.28681   -1.000
 5555.00    2.35460   2.28454   -1.000
 5556.00    2.35354   2.29149   -1.000
 5557.00    2.36329   2.29617   -1.000
 5558.00    2.37345   2.30002   -1.000
 5559.00    2.37888   2.30588   -1.000
 5560.00    2.36363   2.30735   -1.000
 5561.00    2.35084   2.29756   -1.000
 5562.00    2.35627   2.27880   -1.000
 5563.00    2.34331   2.26376   -1.000
 5564.00    2.31717   2.25655   -1.000
 5565.00    2.32337   2.25153   -1.000
 5566.00    2.32929   2.24671   -1.000
 5567.00    2.29952   2.24289   -1.000
 5568.00    2.30299   2.24010   -1.000
 5569.00    2.31088   2.23809   -1.000
 5570.00    2.31832   2.23669   -1.000
 5571.00    2.31634   2.23355   -1.000
 5572.00    2.31581   2.22665   -1.000
 5573.00    2.31047   2.21959   -1.000
 5574.00    2.35530   2.22872   -1.000
 5575.00    2.45920   2.24709   -1.000
 5576.00    2.56663   2.25674   -1.000
 5577.00    2.56939   2.26699   -1.000
 5578.00    2.30450   2.28381  121.648
 5579.00    1.93274   2.29847   -1.000
 5580.00    1.63121   2.30274   -1.000
 5581.00    1.79012   2.29941   -1.000
 5582.00    2.16871   2.29549   -1.000
 5583.00    2.34550   2.29267   -1.000
 5584.00    2.37733   2.28870   -1.000
 5585.00    2.34329   2.26982   -1.000
 5586.00    2.28132   2.21574   -1.000
 5587.00    2.23009   2.14864   -1.000
 5588.00    2.19714   2.10946   -1.000
 5589.00    2.22054   2.10541   -1.000
 5590.00    2.26925   2.13587   -1.000
 5591.00    2.29382   2.17903   -1.000
 5592.00    2.30858   2.21263   -1.000
 5593.00    2.29408   2.22075   -1.000
 5594.00    2.30589   2.22120   -1.000
 5595.00    2.32087   2.23209   -1.000
 5596.00    2.34307   2.25288   -1.000
 5597.00    2.33971   2.26171   -1.000
 5598.00    2.29702   2.23853   -1.000
 5599.00    2.26945   2.21276   -1.000
 5600.00    2.27069   2.20350   -1.000
 5601.00    2.27118   2.18899   -1.000
 5602.00    2.27284   2.17634   -1.000
 5603.00    2.28845   2.19273   -1.000
 5604.00    2.31976   2.23845   -1.000
 5605.00    2.37073   2.29818   -1.000
 5606.00    2.41071   2.34543   -1.000
 5607.00    2.41700   2.36840   -1.000
 5608.00    2.41046   2.37587   -1.000
 5609.00    2.40326   2.37498   -1.000
 5610.00    2.40672   2.37532   -1.000
 5611.00    2.42598   2.37964   -1.000
 5612.00    2.43478   2.37760   -1.000
 5613.00    2.40380   2.34719   -1.000
 5614.00    2.33054   2.28539   -1.000
 5615.00    2.26113   2.21472   -1.000
 5616.00    2.26691   2.17958   -1.000
 5617.00    2.32109   2.21143   -1.000
 5618.00    2.36195   2.25923   -1.000
 5619.00    2.36661   2.29282   -1.000
 5620.00    2.38042   2.31149   -1.000
 5621.00    2.40487   2.32319   -1.000
 5622.00    2.39699   2.32650   -1.000
 5623.00    2.37232   2.30938   -1.000
 5624.00    2.34288   2.27600   -1.000
 5625.00    2.34753   2.25846   -1.000
 5626.00    2.35119   2.26964   -1.000
 5627.00    2.37223   2.30073   -1.000
 5628.00    2.38817   2.33253   -1.000
 5629.00    2.41691   2.35299   -1.000
 5630.00    2.43118   2.36719   -1.000
 5631.00    2.42943   2.37288   -1.000
 5632.00    2.41770   2.36545   -1.000
 5633.00    2.41833   2.35221   -1.000
 5634.00    2.41755   2.34145   -1.000
 5635.00    2.40898   2.32979   -1.000
 5636.00    2.38986   2.31840   -1.000
 5637.00    2.37923   2.30881   -1.000
 5638.00    2.37649   2.30493   -1.000
 5639.00    2.36266   2.30979   -1.000
 5640.00    2.36899   2.31193   -1.000
 5641.00    2.37428   2.30569   -1.000
 5642.00    2.38023   2.30625   -1.000
 5643.00    2.38199   2.31421   -1.000
 5644.00    2.37908   2.32106   -1.000
 5645.00    2.38472   2.32870   -1.000
 5646.00    2.40112   2.33731   -1.000
 5647.00    2.40676   2.34222   -1.000
 5648.00    2.41068   2.34188   -1.000
 5649.00    2.42929   2.33739   -1.000
 5650.00    2.42449   2.33577   -1.000
 5651.00    2.43195   2.34357   -1.000
 5652.00    2.46094   2.35077   -1.000
 5653.00    2.44808   2.34994   -1.000
 5654.00    2.41428   2.33931   -1.000
 5655.00    2.39973   2.32268   -1.000
 5656.00    2.38687   2.30023   -1.000
 5657.00    2.33281   2.26275   -1.000
 5658.00    2.27886   2.22333   -1.000
 5659.00    2.29958   2.21606   -1.000
 5660.00    2.35067   2.23918   -1.000
 5661.00    2.36418   2.26403   -1.000
 5662.00    2.37050   2.27765   -1.000
 5663.00    2.35804   2.28328   -1.000
 5664.00    2.36816   2.30239   -1.000
 5665.00    2.39277   2.33149   -1.000
 5666.00    2.38604   2.34203   -1.000
 5667.00    2.39299   2.33445   -1.000
 5668.00    2.37311   2.32567   -1.000
 5669.00    2.38420   2.32471   -1.000
 5670.00    2.40548   2.33360   -1.000
 5671.00    2.41142   2.34694   -1.000
 5672.00    2.41544   2.36116   -1.000
 5673.00    2.45032   2.37286   -1.000
 5674.00    2.46029   2.38067   -1.000
 5675.00    2.44157   2.38020   -1.000
 5676.00    2.44685   2.37999   -1.000
 5677.00    2.46056   2.38370   -1.000
 5678.00    2.45843   2.38631   -1.000
 5679.00    2.45232   2.38115   -1.000
 5680.00    2.45876   2.36737   -1.000
 5681.00    2.43601   2.34409   -1.000
 5682.00    2.39966   2.31566   -1.000
 5683.00    2.38886   2.29547   -1.000
 5684.00    2.40321   2.29451   -1.000
 5685.00    2.44277   2.31236   -1.000
 5686.00    2.41784   2.32334   -1.000
 5687.00    2.37955   2.31405   -1.000
 5688.00    2.39814   2.30062   -1.000
 5689.00    2.41628   2.29954   -1.000
 5690.00    2.44090   2.32024   -1.000
 5691.00    2.44857   2.35110   -1.000
 5692.00    2.46957   2.37469   -1.000
 5693.00    2.49901   2.38702   -1.000
 5694.00    2.49853   2.39168   -1.000
 5695.00    2.49510   2.39379   -1.000
 5696.00    2.49464   2.39139   -1.000
 5697.00    2.48540   2.38609   -1.000
 5698.00    2.46079   2.37276   -1.000
 5699.00    2.42421   2.35337   -1.000
 5700.00    2.38940   2.33550   -1.000
 5701.00    2.36195   2.32220   -1.000
 5702.00    2.36907   2.32034   -1.000
 5703.00    2.39378   2.32778   -1.000
 5704.00    2.40316   2.33991   -1.000
 5705.00    2.40746   2.34069   -1.000
 5706.00    2.38001   2.32628   -1.000
 5707.00    2.34679   2.30296   -1.000
 5708.00    2.32477   2.27234   -1.000
 5709.00    2.30393   2.24251   -1.000
 5710.00    2.32239   2.23158   -1.000
 5711.00    2.33782   2.24186   -1.000
 5712.00    2.37224   2.26991   -1.000
 5713.00    2.42697   2.31400   -1.000
 5714.00    2.45612   2.35612   -1.000
 5715.00    2.46401   2.38169   -1.000
 5716.00    2.46781   2.38970   -1.000
 5717.00    2.46837   2.39608   -1.000
 5718.00    2.47389   2.40328   -1.000
 5719.00    2.49256   2.41275   -1.000
 5720.00    2.49763   2.42541   -1.000
 5721.00    2.51215   2.43893   -1.000
 5722.00    2.51520   2.44793   -1.000
 5723.00    2.51588   2.45228   -1.000
 5724.00    2.50018   2.45338   -1.000
 5725.00    2.50816   2.44665   -1.000
 5726.00    2.48993   2.42769   -1.000
 5727.00    2.46267   2.41050   -1.000
 5728.00    2.48542   2.40668   -1.000
 5729.00    2.50154   2.41453   -1.000
 5730.00    2.47923   2.42299   -1.000
 5731.00    2.47786   2.41900   -1.000
 5732.00    2.47991   2.41473   -1.000
 5733.00    2.51063   2.42248   -1.000
 5734.00    2.51592   2.44007   -1.000
 5735.00    2.51050   2.45419   -1.000
 5736.00    2.51255   2.45495   -1.000
 5737.00    2.51153   2.44942   -1.000
 5738.00    2.51041   2.44499   -1.000
 5739.00    2.50572   2.44590   -1.000
 5740.00    2.50624   2.44870   -1.000
 5741.00    2.49897   2.44688   -1.000
 5742.00    2.48329   2.44134   -1.000
 5743.00    2.49475   2.44101   -1.000
 5744.00    2.52400   2.44765   -1.000
 5745.00    2.53928   2.45744   -1.000
 5746.00    2.53431   2.45644   -1.000
 5747.00    2.51819   2.44568   -1.000
 5748.00    2.50702   2.43857   -1.000
 5749.00    2.51498   2.44488   -1.000
 5750.00    2.52074   2.45410   -1.000
 5751.00    2.49999   2.44550   -1.000
 5752.00    2.48212   2.41972   -1.000
 5753.00    2.47918   2.39237   -1.000
 5754.00    2.47878   2.38203   -1.000
 5755.00    2.49642   2.40200   -1.000
 5756.00    2.52818   2.43641   -1.000
 5757.00    2.54756   2.46814   -1.000
 5758.00    2.54187   2.48115   -1.000
 5759.00    2.53050   2.47612   -1.000
 5760.00    2.50472   2.45781   -1.000
 5761.00    2.48536   2.43098   -1.000
 5762.00    2.47481   2.40398   -1.000
 5763.00    2.48204   2.39939   -1.000
 5764.00    2.50974   2.42073   -1.000
 5765.00    2.52583   2.45684   -1.000
 5766.00    2.53092   2.48395   -1.000
 5767.00    2.53797   2.49230   -1.000
 5768.00    2.55897   2.49128   -1.000
 5769.00    2.53955   2.48816   -1.000
 5770.00    2.53280   2.48520   -1.000
 5771.00    2.50690   2.47938   -1.000
 5772.00    2.50130   2.46806   -1.000
 5773.00    2.48487   2.45546   -1.000
 5774.00    2.46894   2.44900  124.270
 5775.00    2.48099   2.44829   -1.000
 5776.00    2.49501   2.45537   -1.000
 5777.00    2.50589   2.46412   -1.000
 5778.00    2.47501   2.45785  123.438
 5779.00    2.42441   2.43287  123.790
 5780.00    2.35290   2.39940   -1.000
 5781.00    2.28906   2.36977   -1.000
 5782.00    2.30322   2.35856   -1.000
 5783.00    2.37530   2.36403  129.977
 5784.00    2.42468   2.37459   -1.000
 5785.00    2.44287   2.37978   -1.000
 5786.00    2.45868   2.38837   -1.000
 5787.00    2.49227   2.41341   -1.000
 5788.00    2.51183   2.43844   -1.000
 5789.00    2.51741   2.44677   -1.000
 5790.00    2.50829   2.44034   -1.000
 5791.00    2.50569   2.43157   -1.000
 5792.00    2.51673   2.43897   -1.000
 5793.00    2.54222   2.45905   -1.000
 5794.00    2.54673   2.48001   -1.000
 5795.00    2.53703   2.49483   -1.000
 5796.00    2.51026   2.49712  122.206
 5797.00    2.47027   2.48463  122.869
 5798.00    2.47691   2.47345  123.663
 5799.00    2.51927   2.48074   -1.000
 5800.00    2.55256   2.49826   -1.000
 5801.00    2.58227   2.51386   -1.000
 5802.00    2.59999   2.51962   -1.000
 5803.00    2.58703   2.51250   -1.000
 5804.00    2.57107   2.49628   -1.000
 5805.00    2.56775   2.48260   -1.000
 5806.00    2.56186   2.48067   -1.000
 5807.00    2.56121   2.48711   -1.000
 5808.00    2.56713   2.49408   -1.000
 5809.00    2.55886   2.49821   -1.000
 5810.00    2.56141   2.50389   -1.000
 5811.00    2.58285   2.50912   -1.000
 5812.00    2.58517   2.50934   -1.000
 5813.00    2.58334   2.50472   -1.000
 5814.00    2.56543   2.49605   -1.000
 5815.00    2.56365   2.48120   -1.000
 5816.00    2.56690   2.47016   -1.000
 5817.00    2.57475   2.47786   -1.000
 5818.00    2.58073   2.50060   -1.000
 5819.00    2.57693   2.51773   -1.000
 5820.00    2.57734   2.52301   -1.000
 5821.00    2.58288   2.52193   -1.000
 5822.00    2.58211   2.52100   -1.000
 5823.00    2.58043   2.52157   -1.000
 5824.00    2.59345   2.52120   -1.000
 5825.00    2.61030   2.52033   -1.000
 5826.00    2.62342   2.52300   -1.000
 5827.00    2.60622   2.52818   -1.000
 5828.00    2.61644   2.53254   -1.000
 5829.00    2.62268   2.53266   -1.000
 5830.00    2.62495   2.53219   -1.000
 5831.00    2.62880   2.53230   -1.000
 5832.00    2.61103   2.53167   -1.000
 5833.00    2.61761   2.52742   -1.000
 5834.00    2.61569   2.51995   -1.000
 5835.00    2.59664   2.51683   -1.000
 5836.00    2.57540   2.52207   -1.000
 5837.00    2.60134   2.53059   -1.000
 5838.00    2.61219   2.53283   -1.000
 5839.00    2.60754   2.53223   -1.000
 5840.00    2.61172   2.53513   -1.000
 5841.00    2.63029   2.54133   -1.000
 5842.00    2.61795   2.54449   -1.000
 5843.00    2.61036   2.54242   -1.000
 5844.00    2.62595   2.53789   -1.000
 5845.00    2.61175   2.52963   -1.000
 5846.00    2.57158   2.51724   -1.000
 5847.00    2.57035   2.50717   -1.000
 5848.00    2.57895   2.50613   -1.000
 5849.00    2.56731   2.50974   -1.000
 5850.00    2.56043   2.50703   -1.000
 5851.00    2.56214   2.49458   -1.000
 5852.00    2.52431   2.47373   -1.000
 5853.00    2.49594   2.45703   -1.000
 5854.00    2.51049   2.44761   -1.000
 5855.00    2.51240   2.44198   -1.000
 5856.00    2.50231   2.42305   -1.000
 5857.00    2.48028   2.38497   -1.000
 5858.00    2.48178   2.36841   -1.000
 5859.00    2.51736   2.39063   -1.000
 5860.00    2.55954   2.42630   -1.000
 5861.00    2.56570   2.45492   -1.000
 5862.00    2.55504   2.46734   -1.000
 5863.00    2.56747   2.47579   -1.000
 5864.00    2.56990   2.48670   -1.000
 5865.00    2.55894   2.48429   -1.000
 5866.00    2.54492   2.47042   -1.000
 5867.00    2.53010   2.46051   -1.000
 5868.00    2.55172   2.46586   -1.000
 5869.00    2.58567   2.48899   -1.000
 5870.00    2.59374   2.51252   -1.000
 5871.00    2.59018   2.52311   -1.000
 5872.00    2.61360   2.51837   -1.000
 5873.00    2.62295   2.50743   -1.000
 5874.00    2.59328   2.49823   -1.000
 5875.00    2.57731   2.49283   -1.000
 5876.00    2.58287   2.48913   -1.000
 5877.00    2.58077   2.48607   -1.000
 5878.00    2.57253   2.48121   -1.000
 5879.00    2.56521   2.47310   -1.000
 5880.00    2.55128   2.46442   -1.000
 5881.00    2.55845   2.45753   -1.000
 5882.00    2.55478   2.44823   -1.000
 5883.00    2.53580   2.43435   -1.000
 5884.00    2.54231   2.41948   -1.000
 5885.00    2.53464   2.40892   -1.000
 5886.00    2.49402   2.39183   -1.000
 5887.00    2.37054   2.32529   -1.000
 5888.00    2.20320   2.18831  131.136
 5889.00    1.92228   2.02090   -1.000
 5890.00    1.50693   1.92171   -1.000
 5891.00    1.29884   1.96665   -1.000
 5892.00    1.43210   2.06164   -1.000
 5893.00    1.81609   2.12071   -1.000
 5894.00    2.06111   2.10391   -1.000
 5895.00    2.00786   2.04063   -1.000
 5896.00    1.82250   2.00284   -1.000
 5897.00    1.71656   2.04311   -1.000
 5898.00    1.85223   2.15171   -1.000
 5899.00    2.11945   2.24497   -1.000
 5900.00    2.36564   2.31090   -1.000
 5901.00    2.50199   2.36867   -1.000
 5902.00    2.53409   2.41260   -1.000
 5903.00    2.54753   2.43753   -1.000
 5904.00    2.55027   2.44794   -1.000
 5905.00    2.55561   2.45156   -1.000
 5906.00    2.57006   2.45761   -1.000
 5907.00    2.56462   2.46500   -1.000
 5908.00    2.55542   2.47257   -1.000
 5909.00    2.55829   2.47949   -1.000
 5910.00    2.56496   2.48483   -1.000
 5911.00    2.56014   2.48627   -1.000
 5912.00    2.53874   2.47942   -1.000
 5913.00    2.52196   2.45855   -1.000
 5914.00    2.51907   2.43685   -1.000
 5915.00    2.51261   2.42779   -1.000
 5916.00    2.50019   2.43169   -1.000
 5917.00    2.51246   2.44643   -1.000
 5918.00    2.54616   2.46716   -1.000
 5919.00    2.56285   2.48492   -1.000
 5920.00    2.55037   2.49087   -1.000
 5921.00    2.54065   2.49061   -1.000
 5922.00    2.54549   2.48679   -1.000
 5923.00    2.55482   2.48570   -1.000
 5924.00    2.57202   2.48982   -1.000
 5925.00    2.58385   2.49967   -1.000
 5926.00    2.57664   2.50976   -1.000
 5927.00    2.57316   2.50978   -1.000
 5928.00    2.55556   2.49466   -1.000
 5929.00    2.53275   2.47466   -1.000
 5930.00    2.53709   2.46537   -1.000
 5931.00    2.55726   2.47365   -1.000
 5932.00    2.56932   2.49216   -1.000
 5933.00    2.57543   2.49668   -1.000
 5934.00    2.56878   2.49018   -1.000
 5935.00    2.55869   2.49213   -1.000
 5936.00    2.56099   2.50352   -1.000
 5937.00    2.57645   2.51701   -1.000
 5938.00    2.57859   2.52351   -1.000
 5939.00    2.58569   2.51803   -1.000
 5940.00    2.57535   2.50496   -1.000
 5941.00    2.56175   2.49191   -1.000
 5942.00    2.55386   2.48965   -1.000
 5943.00    2.57090   2.49648   -1.000
 5944.00    2.60173   2.50784   -1.000
 5945.00    2.61460   2.51605   -1.000
 5946.00    2.60587   2.51652   -1.000
 5947.00    2.57633   2.50598   -1.000
 5948.00    2.54498   2.49165   -1.000
 5949.00    2.54261   2.48648   -1.000
 5950.00    2.55795   2.49209   -1.000
 5951.00    2.56428   2.49927   -1.000
 5952.00    2.56520   2.49271   -1.000
 5953.00    2.55998   2.48510   -1.000
 5954.00    2.57126   2.49145   -1.000
 5955.00    2.54855   2.49494   -1.000
 5956.00    2.52225   2.48689   -1.000
 5957.00    2.53869   2.48206   -1.000
 5958.00    2.56350   2.48724   -1.000
 5959.00    2.59226   2.50502   -1.000
 5960.00    2.60538   2.52611   -1.000
 5961.00    2.59945   2.53885   -1.000
 5962.00    2.60322   2.54387   -1.000
 5963.00    2.59601   2.54336   -1.000
 5964.00    2.59312   2.53753   -1.000
 5965.00    2.59632   2.52900   -1.000
 5966.00    2.60537   2.52320   -1.000
 5967.00    2.62182   2.52457   -1.000
 5968.00    2.61743   2.53118   -1.000
 5969.00    2.62540   2.53868   -1.000
 5970.00    2.64028   2.54910   -1.000
 5971.00    2.63044   2.55709   -1.000
 5972.00    2.61650   2.55868   -1.000
 5973.00    2.59349   2.55482   -1.000
 5974.00    2.58082   2.54334   -1.000
 5975.00    2.58341   2.52387   -1.000
 5976.00    2.57795   2.50291   -1.000
 5977.00    2.55314   2.49165   -1.000
 5978.00    2.53501   2.49783   -1.000
 5979.00    2.56131   2.51568   -1.000
 5980.00    2.58330   2.53540   -1.000
 5981.00    2.60137   2.54297   -1.000
 5982.00    2.59721   2.53230   -1.000
 5983.00    2.55612   2.50735   -1.000
 5984.00    2.53325   2.48630   -1.000
 5985.00    2.54714   2.48481   -1.000
 5986.00    2.56146   2.49959   -1.000
 5987.00    2.57257   2.51772   -1.000
 5988.00    2.59202   2.53074   -1.000
 5989.00    2.60645   2.53911   -1.000
 5990.00    2.61041   2.54099   -1.000
 5991.00    2.61095   2.54011   -1.000
 5992.00    2.62444   2.54539   -1.000
 5993.00    2.63926   2.56440   -1.000
 5994.00    2.62849   2.57894   -1.000
 5995.00    2.61650   2.57511   -1.000
 5996.00    2.62380   2.56185   -1.000
 5997.00    2.61632   2.54777   -1.000
 5998.00    2.61530   2.54338   -1.000
 5999.00    2.61419   2.54649   -1.000
 6000.00    2.60055   2.55066   -1.000
 6001.00    2.60696   2.54813   -1.000
 6002.00    2.61764   2.53742   -1.000
 6003.00    2.61156   2.52800   -1.000
 6004.00    2.58440   2.52982   -1.000
 6005.00    2.58694   2.53541   -1.000
 6006.00    2.57674   2.52497   -1.000
 6007.00    2.54542   2.50048   -1.000
 6008.00    2.54990   2.48712   -1.000
 6009.00    2.58242   2.49848   -1.000
 6010.00    2.59678   2.52787   -1.000
 6011.00    2.60897   2.54716   -1.000
 6012.00    2.58903   2.54372   -1.000
 6013.00    2.57342   2.53522   -1.000
 6014.00    2.59528   2.52835   -1.000
 6015.00    2.58747   2.52748   -1.000
 6016.00    2.58858   2.52719   -1.000
 6017.00    2.60416   2.52542   -1.000
 6018.00    2.61441   2.52325   -1.000
 6019.00    2.59838   2.51592   -1.000
 6020.00    2.58358   2.50316   -1.000
 6021.00    2.58533   2.49674   -1.000
 6022.00    2.60079   2.50433   -1.000
 6023.00    2.60637   2.51173   -1.000
 6024.00    2.61989   2.51768   -1.000
 6025.00    2.64064   2.53608   -1.000
 6026.00    2.64227   2.55887   -1.000
 6027.00    2.61884   2.57069   -1.000
 6028.00    2.62576   2.58071   -1.000
 6029.00    2.65151   2.59363   -1.000
 6030.00    2.65606   2.60117   -1.000
 6031.00    2.65870   2.60247   -1.000
 6032.00    2.66624   2.60469   -1.000
 6033.00    2.67665   2.61061   -1.000
 6034.00    2.67167   2.61760   -1.000
 6035.00    2.66595   2.62008   -1.000
 6036.00    2.67725   2.61730   -1.000
 6037.00    2.68016   2.61387   -1.000
 6038.00    2.65794   2.60917   -1.000
 6039.00    2.63971   2.60176   -1.000
 6040.00    2.64464   2.59396   -1.000
 6041.00    2.66578   2.58993   -1.000
 6042.00    2.68106   2.59184   -1.000
 6043.00    2.66591   2.59905   -1.000
 6044.00    2.65968   2.60985   -1.000
 6045.00    2.67075   2.61897   -1.000
 6046.00    2.67045   2.62331   -1.000
 6047.00    2.67497   2.62943   -1.000
 6048.00    2.68160   2.63610   -1.000
 6049.00    2.67216   2.63869   -1.000
 6050.00    2.68434   2.63799   -1.000
 6051.00    2.68935   2.63673   -1.000
 6052.00    2.67421   2.63333   -1.000
 6053.00    2.66130   2.62315   -1.000
 6054.00    2.66178   2.60893   -1.000
 6055.00    2.67397   2.59459   -1.000
 6056.00    2.65942   2.58866   -1.000
 6057.00    2.65891   2.59391   -1.000
 6058.00    2.65900   2.60657   -1.000
 6059.00    2.64813   2.61795   -1.000
 6060.00    2.64341   2.62557  124.929
 6061.00    2.65171   2.62689   -1.000
 6062.00    2.65544   2.61686   -1.000
 6063.00    2.61728   2.59375   -1.000
 6064.00    2.59882   2.56083   -1.000
 6065.00    2.59200   2.53712   -1.000
 6066.00    2.60360   2.54798   -1.000
 6067.00    2.25618   2.58133   -1.000
 6068.00    1.41728   2.61184   -1.000
 6069.00    2.21246   2.63412   -1.000
 6070.00    2.70613   2.64528   -1.000
 6071.00    2.69182   2.64941   -1.000
 6072.00    2.68458   2.65138   -1.000
 6073.00    2.35625   2.65430   -1.000
 6074.00    1.20877   2.65686   -1.000
 6075.00    1.90563   2.65456   -1.000
 6076.00    2.60869   2.64614   -1.000
 6077.00    2.67528   2.63074   -1.000
 6078.00    2.64660   2.61096   -1.000
 6079.00    2.63708   2.59998   -1.000
 6080.00    2.63202   2.59866   -1.000
 6081.00    2.63791   2.59397   -1.000
 6082.00    2.63547   2.58733   -1.000
 6083.00    2.65287   2.58472   -1.000
 6084.00    2.63951   2.58372   -1.000
 6085.00    2.63270   2.58716   -1.000
 6086.00    2.65075   2.59844   -1.000
 6087.00    2.65612   2.61181   -1.000
 6088.00    2.65117   2.61574   -1.000
 6089.00    2.64154   2.60947   -1.000
 6090.00    2.61136   2.59987  127.791
 6091.00    2.62474   2.59379   -1.000
 6092.00    2.65184   2.59695   -1.000
 6093.00    2.67544   2.60682   -1.000
 6094.00    2.70284   2.61952   -1.000
 6095.00    2.70143   2.62975   -1.000
 6096.00    2.68171   2.63774   -1.000
 6097.00    2.67413   2.64312   -1.000
 6098.00    2.66751   2.64604   -1.000
 6099.00    2.65603   2.64136  126.088
 6100.00    2.64328   2.61468   -1.000
 6101.00    2.60260   2.56221   -1.000
 6102.00    2.54361   2.50344   -1.000
 6103.00    2.54803   2.48232   -1.000
 6104.00    2.61189   2.51695   -1.000
 6105.00    2.65230   2.56509   -1.000
 6106.00    2.63793   2.59971   -1.000
 6107.00    2.63624   2.61928  127.022
 6108.00    2.64515   2.63136  127.391
 6109.00    2.64837   2.64266  127.752
 6110.00    2.65541   2.64638  127.752
 6111.00    2.66988   2.64359   -1.000
 6112.00    2.68182   2.64430   -1.000
 6113.00    2.69134   2.65038   -1.000
 6114.00    2.69856   2.65826   -1.000
 6115.00    2.68927   2.66033   -1.000
 6116.00    2.67055   2.65555  126.293
 6117.00    2.66051   2.65268  127.093
 6118.00    2.65857   2.64650  127.387
 6119.00    2.63051   2.62519  127.914
 6120.00    2.59453   2.58281  129.580
 6121.00    2.57602   2.52628   -1.000
 6122.00    2.56205   2.49096   -1.000
 6123.00    2.58144   2.49620   -1.000
 6124.00    2.62578   2.52877   -1.000
 6125.00    2.63522   2.56931   -1.000
 6126.00    2.62062   2.59599   -1.000
 6127.00    2.63036   2.60768   -1.000
 6128.00    2.64755   2.61138   -1.000
 6129.00    2.66612   2.62370   -1.000
 6130.00    2.68436   2.64444   -1.000
 6131.00    2.68622   2.66304   -1.000
 6132.00    2.68477   2.67480  126.835
 6133.00    2.64897   2.67194  127.017
 6134.00    2.58534   2.63881   -1.000
 6135.00    2.54447   2.57211   -1.000
 6136.00    2.50491   2.49544  134.472
 6137.00    2.50577   2.45594   -1.000
 6138.00    2.54554   2.47746   -1.000
 6139.00    2.58346   2.50867   -1.000
 6140.00    2.60852   2.52350   -1.000
 6141.00    2.59859   2.54646   -1.000
 6142.00    2.60012   2.58023  130.277
 6143.00    2.64439   2.61909   -1.000
 6144.00    2.70229   2.64697   -1.000
 6145.00    2.70207   2.65447   -1.000
 6146.00    2.68107   2.64997   -1.000
 6147.00    2.66133   2.63800   -1.000
 6148.00    2.63786   2.62317  128.770
 6149.00    2.62225   2.60826  129.688
 6150.00    2.60782   2.59527  130.479
 6151.00    2.60758   2.59857  130.615
 6152.00    2.62731   2.61865  130.200
 6153.00    2.63359   2.62784  129.352
 6154.00    2.60960   2.61743  129.054
 6155.00    2.60337   2.60397  129.955
 6156.00    2.60781   2.59855  130.731
 6157.00    2.58071   2.59868  130.909
 6158.00    2.54567   2.59218   -1.000
 6159.00    2.51608   2.56160   -1.000
 6160.00    2.46428   2.49381   -1.000
 6161.00    2.41545   2.40806  138.848
 6162.00    2.39532   2.34564   -1.000
 6163.00    2.41798   2.34178   -1.000
 6164.00    2.44787   2.38345   -1.000
 6165.00    2.47952   2.43516   -1.000
 6166.00    2.48107   2.47792  137.011
 6167.00    2.47025   2.49168  136.208
 6168.00    2.45887   2.46978  136.432
 6169.00    2.43899   2.43904  137.987
 6170.00    2.44969   2.44697  139.492
 6171.00    2.46762   2.48320  138.876
 6172.00    2.49525   2.52052   -1.000
 6173.00    2.52869   2.54962  134.332
 6174.00    2.54680   2.56820  134.135
 6175.00    2.52916   2.57635   -1.000
 6176.00    2.53917   2.57946   -1.000
 6177.00    2.53884   2.58743   -1.000
 6178.00    2.55285   2.59639   -1.000
 6179.00    2.56478   2.60128   -1.000
 6180.00    2.58186   2.60673  132.281
 6181.00    2.58360   2.61832   -1.000
 6182.00    2.57620   2.63087   -1.000
 6183.00    2.58541   2.63506   -1.000
 6184.00    2.59539   2.62901   -1.000
 6185.00    2.59031   2.61683   -1.000
 6186.00    2.55434   2.59968   -1.000
 6187.00    2.51368   2.58327   -1.000
 6188.00    2.50293   2.57071   -1.000
 6189.00    2.50179   2.55096   -1.000
 6190.00    2.47133   2.51446   -1.000
 6191.00    2.43809   2.48495   -1.000
 6192.00    2.45964   2.49828   -1.000
 6193.00    2.50209   2.53723   -1.000
 6194.00    2.52283   2.57065   -1.000
 6195.00    2.54390   2.59672   -1.000
 6196.00    2.56436   2.61345   -1.000
 6197.00    2.56519   2.61783   -1.000
 6198.00    2.53799   2.60789   -1.000
 6199.00    2.51260   2.59009   -1.000
 6200.00    2.51025   2.58114   -1.000
 6201.00    2.53404   2.59021   -1.000
 6202.00    2.55719   2.60719   -1.000
 6203.00    2.55119   2.62591   -1.000
 6204.00    2.52598   2.64084   -1.000
 6205.00    2.54423   2.64964   -1.000
 6206.00    2.58135   2.65386   -1.000
 6207.00    2.59417   2.65748   -1.000
 6208.00    2.59538   2.65891   -1.000
 6209.00    2.58910   2.65421   -1.000
 6210.00    2.57319   2.64055   -1.000
 6211.00    2.54999   2.61592   -1.000
 6212.00    2.51487   2.58190   -1.000
 6213.00    2.47939   2.54998   -1.000
 6214.00    2.46925   2.53283   -1.000
 6215.00    2.48142   2.53121   -1.000
 6216.00    2.50070   2.53683   -1.000
 6217.00    2.51176   2.53921   -1.000
 6218.00    2.50903   2.53150  138.030
 6219.00    2.49734   2.52455   -1.000
 6220.00    2.48393   2.52947   -1.000
 6221.00    2.49736   2.54777   -1.000
 6222.00    2.53638   2.56341   -1.000
 6223.00    2.55349   2.56936  146.765
 6224.00    2.53551   2.57403   -1.000
 6225.00    2.53354   2.57649   -1.000
 6226.00    2.55187   2.57780   -1.000
 6227.00    2.52486   2.57117   -1.000
 6228.00    2.50043   2.54665   -1.000
 6229.00    2.48391   2.50615  139.185
 6230.00    2.46324   2.46873  141.457
 6231.00    2.46446   2.45793  143.371
 6232.00    2.47686   2.47818  143.191
 6233.00    2.51130   2.51645  141.323
 6234.00    2.54365   2.55396  138.728
 6235.00    2.54576   2.57495   -1.000
 6236.00    2.52433   2.57728   -1.000
 6237.00    2.51518   2.56458   -1.000
 6238.00    2.48976   2.55013   -1.000
 6239.00    2.46364   2.53939   -1.000
 6240.00    2.47181   2.53364   -1.000
 6241.00    2.48715   2.52953   -1.000
 6242.00    2.48648   2.52017   -1.000
 6243.00    2.46622   2.50351   -1.000
 6244.00    2.47415   2.48588  142.963
 6245.00    2.49242   2.47383  143.058
 6246.00    2.49990   2.47839   -1.000
 6247.00    2.52440   2.50701  140.934
 6248.00    2.54912   2.54647  139.199
 6249.00    2.53699   2.57610   -1.000
 6250.00    2.52748   2.57637   -1.000
 6251.00    2.50165   2.55018   -1.000
 6252.00    2.47532   2.51243   -1.000
 6253.00    2.46148   2.48628   -1.000
 6254.00    2.46097   2.47921  143.730
 6255.00    2.45851   2.48200   -1.000
 6256.00    2.44901   2.48364   -1.000
 6257.00    2.43879   2.47924   -1.000
 6258.00    2.41566   2.48024   -1.000
 6259.00    2.41349   2.49249   -1.000
 6260.00    2.45014   2.51672   -1.000
 6261.00    2.49068   2.54761   -1.000
 6262.00    2.53316   2.57763   -1.000
 6263.00    2.56139   2.59363   -1.000
 6264.00    2.55746   2.59412   -1.000
 6265.00    2.55480   2.59386   -1.000
 6266.00    2.55326   2.60152   -1.000
 6267.00    2.54185   2.61242   -1.000
 6268.00    2.54459   2.61367   -1.000
 6269.00    2.53505   2.60437   -1.000
 6270.00    2.54563   2.59849   -1.000
 6271.00    2.54569   2.60343   -1.000
 6272.00    2.55461   2.61388   -1.000
 6273.00    2.56416   2.61561   -1.000
 6274.00    2.55134   2.59764   -1.000
 6275.00    2.54672   2.56765  138.809
 6276.00    2.53837   2.53435  139.925
 6277.00    2.51493   2.51070  141.940
 6278.00    2.45114   2.49675   -1.000
 6279.00    2.39256   2.48792   -1.000
 6280.00    2.37179   2.49227   -1.000
 6281.00    2.37689   2.51273   -1.000
 6282.00    2.39732   2.54214   -1.000
 6283.00    2.40967   2.57497   -1.000
 6284.00    2.39660   2.60073   -1.000
 6285.00    2.40874   2.61793   -1.000
 6286.00    2.46544   2.62819   -1.000
 6287.00    2.51569   2.63574   -1.000
 6288.00    2.52804   2.63781   -1.000
 6289.00    2.54776   2.62900   -1.000
 6290.00    2.54638   2.61715   -1.000
 6291.00    2.52754   2.60972   -1.000
 6292.00    2.53421   2.60623   -1.000
 6293.00    2.54137   2.60650   -1.000
 6294.00    2.55335   2.60762   -1.000
 6295.00    2.53675   2.60086   -1.000
 6296.00    2.51772   2.58167   -1.000
 6297.00    2.49486   2.56353   -1.000
 6298.00    2.49470   2.55867   -1.000
 6299.00    2.50845   2.55934   -1.000
 6300.00    2.48392   2.55228   -1.000
 6301.00    2.43810   2.53969   -1.000
 6302.00    2.44326   2.54319   -1.000
 6303.00    2.47880   2.57172   -1.000
 6304.00    2.51665   2.60580   -1.000
 6305.00    2.55897   2.63012   -1.000
 6306.00    2.58823   2.64623   -1.000
 6307.00    2.58770   2.65515   -1.000
 6308.00    2.59159   2.65677   -1.000
 6309.00    2.59208   2.65602   -1.000
 6310.00    2.58490   2.65456   -1.000
 6311.00    2.58191   2.65085   -1.000
 6312.00    2.58089   2.64533   -1.000
 6313.00    2.57922   2.63241   -1.000
 6314.00    2.56938   2.61542   -1.000
 6315.00    2.57697   2.60219   -1.000
 6316.00    2.57157   2.59139  140.395
 6317.00    2.56446   2.58248  140.405
 6318.00    2.56681   2.58250  140.264
 6319.00    2.57567   2.60096   -1.000
 6320.00    2.58056   2.62853   -1.000
 6321.00    2.59209   2.64559   -1.000
 6322.00    2.60001   2.65473   -1.000
 6323.00    2.59833   2.67100   -1.000
 6324.00    2.60832   2.68866   -1.000
 6325.00    2.63118   2.69743   -1.000
 6326.00    2.65498   2.69890   -1.000
 6327.00    2.66394   2.69646   -1.000
 6328.00    2.66778   2.69608   -1.000
 6329.00    2.67085   2.69704   -1.000
 6330.00    2.66532   2.69930   -1.000
 6331.00    2.67153   2.70585   -1.000
 6332.00    2.67233   2.70929   -1.000
 6333.00    2.64301   2.69611   -1.000
 6334.00    2.61297   2.66562   -1.000
 6335.00    2.59716   2.63253   -1.000
 6336.00    2.61453   2.61702  136.689
 6337.00    2.67355   2.62628   -1.000
 6338.00    2.70144   2.64630   -1.000
 6339.00    2.68162   2.67013  135.488
 6340.00    2.68028   2.69546  134.016
 6341.00    2.70138   2.70978  133.166
 6342.00    2.70583   2.70685  132.539
 6343.00    2.69626   2.69397  132.459
 6344.00    2.68721   2.68239  133.425
 6345.00    2.67494   2.67940  133.891
 6346.00    2.68660   2.68599  133.619
 6347.00    2.70373   2.70425  132.966
 6348.00    2.72309   2.72884  132.072
 6349.00    2.72735   2.74667  131.463
 6350.00    2.71445   2.75339   -1.000
 6351.00    2.70711   2.75218   -1.000
 6352.00    2.69585   2.74324   -1.000
 6353.00    2.68497   2.72671   -1.000
 6354.00    2.67774   2.70814   -1.000
 6355.00    2.67111   2.69763   -1.000
 6356.00    2.65898   2.69376   -1.000
 6357.00    2.64131   2.68315   -1.000
 6358.00    2.62391   2.66928   -1.000
 6359.00    2.62489   2.66220   -1.000
 6360.00    2.64309   2.65673  137.595
 6361.00    2.65466   2.64742  137.286
 6362.00    2.65358   2.64155  136.788
 6363.00    2.64292   2.64498  136.590
 6364.00    2.66390   2.65641  136.210
 6365.00    2.69081   2.67158   -1.000
 6366.00    2.69031   2.68851  134.520
 6367.00    2.69181   2.70466  133.767
 6368.00    2.71233   2.71246  132.952
 6369.00    2.74358   2.71035   -1.000
 6370.00    2.74238   2.70784   -1.000
 6371.00    2.73389   2.71428   -1.000
 6372.00    2.75769   2.72867   -1.000
 6373.00    2.77150   2.74144   -1.000
 6374.00    2.75967   2.74619  130.907
 6375.00    2.74471   2.74375  131.097
 6376.00    2.73221   2.73599  131.325
 6377.00    2.71727   2.72509  131.768
 6378.00    2.69269   2.71581  132.400
 6379.00    2.66714   2.70769   -1.000
 6380.00    2.67927   2.70003  133.869
 6381.00    2.69930   2.69426  134.052
 6382.00    2.71656   2.69194   -1.000
 6383.00    2.74000   2.69324   -1.000
 6384.00    2.72499   2.70005   -1.000
 6385.00    2.69573   2.71226  134.381
 6386.00    2.69244   2.72283   -1.000
 6387.00    2.69635   2.72505   -1.000
 6388.00    2.69466   2.72350   -1.000
 6389.00    2.67832   2.72268   -1.000
 6390.00    2.66024   2.71793   -1.000
 6391.00    2.64526   2.69852   -1.000
 6392.00    2.62003   2.67041   -1.000
 6393.00    2.59317   2.65441   -1.000
 6394.00    2.58796   2.66352   -1.000
 6395.00    2.61361   2.69247   -1.000
 6396.00    2.64645   2.71788   -1.000
 6397.00    2.64307   2.72058   -1.000
 6398.00    2.59196   2.69438   -1.000
 6399.00    2.54200   2.65992   -1.000
 6400.00    2.52466   2.64898   -1.000
 6401.00    2.54769   2.66824   -1.000
 6402.00    2.58272   2.70474   -1.000
 6403.00    2.59741   2.73832   -1.000
 6404.00    2.58863   2.75686   -1.000
 6405.00    2.56327   2.75282   -1.000
 6406.00    2.53367   2.73156   -1.000
 6407.00    2.51422   2.71292   -1.000
 6408.00    2.50675   2.71169   -1.000
 6409.00    2.50086   2.71873   -1.000
 6410.00    2.47626   2.71454   -1.000
 6411.00    2.44042   2.70674   -1.000
 6412.00    2.42867   2.71057   -1.000
 6413.00    2.43062   2.72265   -1.000
 6414.00    2.42384   2.73177   -1.000
 6415.00    2.42124   2.73697   -1.000
 6416.00    2.42183   2.74176   -1.000
 6417.00    2.39839   2.74187   -1.000
 6418.00    2.35486   2.72856   -1.000
 6419.00    2.30769   2.70455   -1.000
 6420.00    2.26653   2.68359   -1.000
 6421.00    2.26555   2.68332   -1.000
 6422.00    2.28518   2.71276   -1.000
 6423.00    2.29083   2.74818   -1.000
 6424.00    2.27863   2.77160   -1.000
 6425.00    2.25137   2.78923   -1.000
 6426.00    2.24071   2.80058   -1.000
 6427.00    2.23841   2.80116   -1.000
 6428.00    2.21698   2.78224   -1.000
