###################################################################
## OUTPUT of StarlightChains_v04.for    [Cid@UFSC - 01/Apr/2007] ##
###################################################################

## Some input info
NGC6441_a_2.cxt                          [arq_obs]
Base.BC03.N                              [arq_base]
NGC6441_a_2.msk                          [arq_masks]
StCv04.C11.config                        [arq_config]
   45                                    [N_base]
    0                                    [N_YAV_components = # of components with extra extinction!]
    0                                    [i_FitPowerLaw (1/0 = Yes/No)]
-9.99                                    [alpha_PowerLaw]
CCM                                      [red_law_option]
 1.458241                                [q_norm = A(l_norm)/A(V)]

## (Re)Sampling Parameters
 3359.00                                 [l_ini (A)]
 6428.00                                 [l_fin (A)]
    1.00                                 [dl    (A)]     (OBS: dl_cushion =    50.00 A)

## Normalization info
 4020.00                                 [l_norm (A) - for base]
 4010.00                                 [llow_norm (A) - window for f_obs]
 4060.00                                 [lupp_norm (A) - window for f_obs]
3.752896E-14                             [fobs_norm (in input units)]

## S/N
 4730.00                                 [llow_SN (A) - window for S/N]
 4780.00                                 [lupp_SN (A) - window for S/N]
  36.122                                 [S/N in S/N window]
  21.548                                 [S/N in norm. window]
 237.783                                 [S/N_err in S/N window]
 141.847                                 [S/N_err in norm. window]
  1.0000                                 [fscale_chi2]

## etc...
  2147483608                             [idum_orig]
  3067                                   [NOl_eff]
   689                                   [Nl_eff]
  2378    NSIGMA                         [Ntot_cliped & clip_method]
  1180480                                [Nglobal_steps]
   7                                     [N_chains]
  13                                     [NEX0s_base = N_base in EX0s-fits]
 0   0   1      159   2.0   3.244E+02    [Clip-Bug, RC-Crash & Burn-In warning-flags, n_censored_weights, wei_nsig_threshold & wei_limit]
    11     11.321     11.321      0.000  [idt_all, wdt_TotTime, wdt_UsrTime & wdt_SysTime (sec)]

## Synthesis Results - Best model ##

 2.44247E+00                             [chi2/Nl_eff]
     1.70305                             [adev (%)]

   100.22361                             [sum-of-x (%)]
 2.32578E-13                             [Flux_tot (units of input spectrum!)]
 1.03541E-08                             [Mini_tot (???)]
 5.29219E-09                             [Mcor_tot (???)]

 -12.14                                  [v0_min  (km/s)]
  35.99                                  [vd_min  (km/s)]
 1.3565                                  [AV_min  (mag)]
 0.0000                                  [YAV_min (mag)]

# j     x_j(%)      Mini_j(%)     Mcor_j(%)     age_j(yr)     Z_j      (L/M)_j    YAV?  Mstars   component_j        a/Fe...       SSP_chi2r SSP_adev(%)   SSP_AV   SSP_x(%)
  1      0.0000     0.0000E+00    0.0000E+00    1.000000E+06  0.00400  1.114E-02    0   1.0000   age020_m42            0.0000     4.3054E+03    43.6638   4.0000   101.4918
  2      2.3648     1.3012E-03    2.5456E-03    3.160000E+06  0.00400  4.073E-02    0   0.9999   age045_m42            0.0000     5.7212E+02    16.9447   4.0000   101.0553
  3      0.0000     0.0000E+00    0.0000E+00    5.010000E+06  0.00400  2.534E-02    0   0.9488   age055_m42            0.0000     1.6054E+03    28.8109   4.0000   102.9026
  4      7.0019     1.2347E-02    2.1407E-02    1.000000E+07  0.00400  1.271E-02    0   0.8862   age070_m42            0.0000     4.6901E+02    15.6061   3.9461    91.2631
  5      0.5389     2.3822E-03    3.8097E-03    2.512000E+07  0.00400  5.070E-03    0   0.8174   age090_m42            0.0000     4.2675E+02    14.9760   3.8182    92.9143
  6      0.0000     0.0000E+00    0.0000E+00    4.000000E+07  0.00400  3.505E-03    0   0.7851   age104_m42            0.0000     3.2354E+02    13.0572   3.5085    95.7890
  7      0.0000     0.0000E+00    0.0000E+00    1.015200E+08  0.00400  2.268E-03    0   0.7207   age116_m42            0.0000     5.9429E+02    13.1860   3.5373   103.6464
  8      0.0000     0.0000E+00    0.0000E+00    2.861200E+08  0.00400  1.079E-03    0   0.6613   age125_m42            0.0000     6.0343E+02    13.2637   3.0462   105.6161
  9      0.0000     0.0000E+00    0.0000E+00    6.405400E+08  0.00400  5.077E-04    0   0.6197   age132_m42            0.0000     6.0890E+02    13.5950   2.6771   110.0861
 10      0.0000     0.0000E+00    0.0000E+00    9.047900E+08  0.00400  3.535E-04    0   0.6024   age135_m42            0.0000     4.2795E+02    11.1382   2.4428   109.1484
 11      0.7999     9.3864E-02    1.0497E-01    1.434000E+09  0.00400  1.910E-04    0   0.5716   age139_m42            0.0000     2.0260E+02     7.4203   1.9431   107.1038
 12     17.3931     3.9705E+00    4.2437E+00    2.500000E+09  0.00400  9.818E-05    0   0.5463   age150_m42            0.0000     6.0775E+01     3.7866   1.6777   102.0339
 13     29.6480     1.4084E+01    1.4406E+01    5.000000E+09  0.00400  4.718E-05    0   0.5228   age161_m42            0.0000     2.0341E+01     2.5978   1.5160    98.7040
 14      2.4535     2.4938E+00    2.4298E+00    1.100000E+10  0.00400  2.205E-05    0   0.4980   age185_m42            0.0000     2.3876E+01     3.2828   1.2698    96.2717
 15      0.0000     0.0000E+00    0.0000E+00    1.300000E+10  0.00400  1.883E-05    0   0.4927   age193_m42            0.0000     2.7464E+01     3.5582   1.2534    96.1282
 16      0.0000     0.0000E+00    0.0000E+00    1.000000E+06  0.02000  1.989E-02    0   1.0000   age020_m62            0.0000     4.1143E+03    42.5698   4.0000   102.0249
 17      0.0000     0.0000E+00    0.0000E+00    3.160000E+06  0.02000  3.772E-02    0   0.9858   age045_m62            0.0000     3.3754E+03    39.6923   4.0000   103.3245
 18      2.9196     2.0278E-03    3.7062E-03    5.010000E+06  0.02000  3.227E-02    0   0.9342   age055_m62            0.0000     1.1582E+03    24.6258   4.0000   103.6012
 19      0.0000     0.0000E+00    0.0000E+00    1.000000E+07  0.02000  1.011E-02    0   0.8751   age070_m62            0.0000     7.4994E+02    19.9574   3.9918    88.1526
 20      0.0000     0.0000E+00    0.0000E+00    2.512000E+07  0.02000  4.206E-03    0   0.8099   age090_m62            0.0000     5.7866E+02    18.0133   3.9173    88.9627
 21      0.0000     0.0000E+00    0.0000E+00    4.000000E+07  0.02000  3.373E-03    0   0.7799   age104_m62            0.0000     3.5794E+02    12.9373   3.7383    97.0832
 22      0.0000     0.0000E+00    0.0000E+00    1.015200E+08  0.02000  1.878E-03    0   0.7221   age116_m62            0.0000     5.4904E+02    12.4520   3.5587   104.6250
 23      0.0000     0.0000E+00    0.0000E+00    2.861200E+08  0.02000  8.869E-04    0   0.6700   age125_m62            0.0000     8.5897E+02    16.3101   3.0587   110.9841
 24      0.2045     1.2532E-02    1.5501E-02    6.405400E+08  0.02000  3.657E-04    0   0.6322   age132_m62            0.0000     5.7481E+02    12.7074   2.3990   113.3623
 25      0.0000     0.0000E+00    0.0000E+00    9.047900E+08  0.02000  2.312E-04    0   0.6152   age135_m62            0.0000     3.3764E+02     9.3095   2.0399   111.8629
 26      0.0000     0.0000E+00    0.0000E+00    1.434000E+09  0.02000  1.168E-04    0   0.5865   age139_m62            0.0000     9.5501E+01     4.8864   1.6385   105.7732
 27      0.0000     0.0000E+00    0.0000E+00    2.500000E+09  0.02000  5.505E-05    0   0.5610   age150_m62            0.0000     4.1017E+01     3.9506   1.2839   102.5092
 28      0.0000     0.0000E+00    0.0000E+00    5.000000E+09  0.02000  2.596E-05    0   0.5353   age161_m62            0.0000     8.0495E+01     5.7497   0.9765   101.7249
 29     20.9674     4.0199E+01    4.0135E+01    1.100000E+10  0.02000  1.169E-05    0   0.5103   age185_m62            0.0000     1.8162E+02     8.2460   0.6337   102.6054
 30     14.3664     3.3225E+01    3.2808E+01    1.300000E+10  0.02000  9.691E-06    0   0.5047   age193_m62            0.0000     2.0456E+02     8.6921   0.5909   102.7672
 31      0.0000     0.0000E+00    0.0000E+00    1.000000E+06  0.05000  2.651E-02    0   0.9998   age020_m72            0.0000     4.0463E+03    42.1272   4.0000   103.2512
 32      0.0000     0.0000E+00    0.0000E+00    3.160000E+06  0.05000  4.817E-02    0   0.9577   age045_m72            0.0000     2.5246E+03    34.8719   4.0000   105.3056
 33      0.0000     0.0000E+00    0.0000E+00    5.010000E+06  0.05000  3.101E-02    0   0.9147   age055_m72            0.0000     1.3241E+03    26.9665   4.0000   102.3410
 34      0.0000     0.0000E+00    0.0000E+00    1.000000E+07  0.05000  8.954E-03    0   0.8524   age070_m72            0.0000     2.0678E+03    31.8920   4.0000   105.1211
 35      0.0000     0.0000E+00    0.0000E+00    2.512000E+07  0.05000  4.207E-03    0   0.7902   age090_m72            0.0000     7.5323E+02    20.2009   4.0000   102.9383
 36      0.0000     0.0000E+00    0.0000E+00    4.000000E+07  0.05000  3.198E-03    0   0.7618   age104_m72            0.0000     4.3521E+02    11.2975   3.9521    99.9374
 37      0.0000     0.0000E+00    0.0000E+00    1.015200E+08  0.05000  1.716E-03    0   0.7092   age116_m72            0.0000     6.1791E+02    13.2532   3.6784   104.1747
 38      0.0000     0.0000E+00    0.0000E+00    2.861200E+08  0.05000  7.047E-04    0   0.6618   age125_m72            0.0000     8.0977E+02    15.6692   2.8818   110.7620
 39      0.0000     0.0000E+00    0.0000E+00    6.405400E+08  0.05000  2.633E-04    0   0.6253   age132_m72            0.0000     4.1869E+02    10.6843   2.0554   111.9185
 40      0.0000     0.0000E+00    0.0000E+00    9.047900E+08  0.05000  1.484E-04    0   0.6088   age135_m72            0.0000     1.5670E+02     6.5877   1.5868   106.2680
 41      0.0000     0.0000E+00    0.0000E+00    1.434000E+09  0.05000  7.827E-05    0   0.5847   age139_m72            0.0000     8.6184E+01     5.4942   1.2195   102.2238
 42      0.0000     0.0000E+00    0.0000E+00    2.500000E+09  0.05000  3.759E-05    0   0.5583   age150_m72            0.0000     1.0715E+02     6.4828   0.9140   101.1288
 43      0.0000     0.0000E+00    0.0000E+00    5.000000E+09  0.05000  1.548E-05    0   0.5320   age161_m72            0.0000     2.1780E+02     8.6171   0.5465   100.0902
 44      0.8889     3.0499E+00    3.0253E+00    1.100000E+10  0.05000  6.532E-06    0   0.5070   age185_m72            0.0000     4.0825E+02    11.3855   0.1929    99.4126
 45      0.6767     2.8529E+00    2.8009E+00    1.300000E+10  0.05000  5.316E-06    0   0.5018   age193_m72            0.0000     4.9887E+02    12.5681   0.0838    99.2951


## Synthesis Results - Average & Chains ##

# j      x_j: min, <> & last-chain-values for 1 ...  7 chains
  1      0.0000      0.0463      0.0455      0.0000      0.0208      0.2664      0.0000      0.0000      0.0000
  2      2.3648      2.1426      2.1729      2.1962      2.3508      2.2570      2.0843      2.2025      2.0786
  3      0.0000      0.0250      0.1499      0.0000      0.0000      0.0000      0.0302      0.0000      0.0000
  4      7.0019      6.4865      6.6459      6.7847      6.4834      6.4677      6.5400      6.6018      6.6003
  5      0.5389      0.3803      0.3653      0.3254      0.3509      0.3469      0.4186      0.4100      0.2969
  6      0.0000      0.0649      0.0145      0.1737      0.0000      0.0000      0.1825      0.0000      0.0000
  7      0.0000      0.0445      0.0000      0.0000      0.0000      0.0875      0.0000      0.1350      0.0000
  8      0.0000      0.0410      0.1605      0.0000      0.0000      0.0000      0.0000      0.0000      0.0000
  9      0.0000      0.0616      0.0000      0.1542      0.0965      0.0000      0.3557      0.0016      0.0000
 10      0.0000      0.3389      0.3012      0.2750      0.4159      0.5253      0.2879      0.3918      0.6480
 11      0.7999      0.4245      0.8748      0.2301      0.0000      0.4605      0.6624      0.6086      0.4924
 12     17.3931     17.0686     17.4871     17.2161     17.6438     17.9587     17.1107     16.8511     16.9695
 13     29.6480     27.4989     27.3453     28.2549     28.8953     27.5869     27.6484     27.4244     27.8146
 14      2.4535      3.8450      3.4360      3.8155      2.5594      3.3884      3.8590      4.0676      3.8548
 15      0.0000      0.3308      0.2840      0.0000      0.3361      0.2723      0.1994      0.2791      0.2996
 16      0.0000      0.0101      0.0000      0.0000      0.0000      0.0000      0.0410      0.0488      0.0000
 17      0.0000      0.0176      0.0000      0.0000      0.0000      0.0000      0.0000      0.0353      0.1920
 18      2.9196      3.0018      2.9186      2.9813      3.1707      2.8555      2.9117      2.9877      2.9717
 19      0.0000      0.1928      0.2300      0.0000      0.2233      0.3468      0.2752      0.2482      0.2838
 20      0.0000      0.0152      0.1761      0.0000      0.0000      0.0000      0.0051      0.0000      0.0753
 21      0.0000      0.0383      0.0000      0.0000      0.0444      0.0114      0.0770      0.0000      0.0000
 22      0.0000      0.0621      0.0000      0.1385      0.0000      0.0000      0.0141      0.0409      0.0000
 23      0.0000      0.0692      0.0000      0.0540      0.0000      0.0000      0.0000      0.0000      0.2557
 24      0.2045      0.0540      0.0588      0.0000      0.0350      0.0000      0.0000      0.4233      0.0221
 25      0.0000      0.0556      0.0000      0.1842      0.0350      0.0000      0.0000      0.2573      0.1128
 26      0.0000      0.1178      0.1951      0.0000      0.0000      0.1507      0.0000      0.0000      0.2369
 27      0.0000      0.1103      0.0000      0.0000      0.0000      0.0000      0.0328      0.0070      0.0000
 28      0.0000      0.1003      0.0000      0.0000      0.0000      0.2058      0.0000      0.0000      0.0161
 29     20.9674     21.5364     21.4686     21.6358     21.2235     21.0719     21.7197     21.0364     21.2012
 30     14.3664     14.6389     14.7007     14.5821     14.9740     14.6479     14.7297     14.7873     14.7564
 31      0.0000      0.0191      0.0082      0.0000      0.0000      0.0000      0.0000      0.0000      0.0000
 32      0.0000      0.0517      0.0000      0.1655      0.0000      0.0000      0.0000      0.0000      0.0415
 33      0.0000      0.0449      0.0000      0.0000      0.0396      0.0000      0.0649      0.0000      0.0000
 34      0.0000      0.0225      0.0000      0.0818      0.0000      0.0000      0.0526      0.1405      0.0000
 35      0.0000      0.0299      0.0000      0.0000      0.0000      0.0000      0.0000      0.0000      0.0000
 36      0.0000      0.0139      0.0000      0.0000      0.0000      0.0000      0.0000      0.0000      0.0000
 37      0.0000      0.0392      0.0000      0.0000      0.1000      0.0000      0.0000      0.0000      0.0000
 38      0.0000      0.0474      0.0597      0.0294      0.0777      0.0229      0.0000      0.0000      0.0000
 39      0.0000      0.0450      0.0201      0.0953      0.0000      0.0742      0.1316      0.0000      0.0000
 40      0.0000      0.0928      0.0000      0.0000      0.1004      0.0000      0.0000      0.0497      0.0000
 41      0.0000      0.0791      0.0000      0.0000      0.0000      0.0000      0.0000      0.0000      0.0000
 42      0.0000      0.0556      0.1672      0.0000      0.0000      0.0919      0.0000      0.0000      0.0000
 43      0.0000      0.0796      0.0000      0.0000      0.0000      0.0809      0.0516      0.0389      0.0000
 44      0.8889      0.4968      0.5919      0.5065      0.7458      0.5309      0.4900      0.6631      0.6093
 45      0.6767      0.3268      0.3755      0.3682      0.3573      0.5340      0.3067      0.5366      0.4289

# j      m_j: min, <> & last-chain-values for 1 ...  7 chains
  1  0.0000E+00  1.8242E-04  1.7924E-04  0.0000E+00  8.1546E-05  1.0507E-03  0.0000E+00  0.0000E+00  0.0000E+00
  2  2.5456E-03  2.3084E-03  2.3425E-03  2.3689E-03  2.5255E-03  2.4346E-03  2.2420E-03  2.3574E-03  2.2336E-03
  3  0.0000E+00  4.1006E-05  2.4645E-04  0.0000E+00  0.0000E+00  0.0000E+00  4.9520E-05  0.0000E+00  0.0000E+00
  4  2.1407E-02  1.9849E-02  2.0350E-02  2.0785E-02  1.9783E-02  1.9814E-02  1.9980E-02  2.0069E-02  2.0143E-02
  5  3.8097E-03  2.6905E-03  2.5863E-03  2.3051E-03  2.4760E-03  2.4574E-03  2.9571E-03  2.8817E-03  2.0950E-03
  6  0.0000E+00  6.3840E-04  1.4231E-04  1.7098E-03  0.0000E+00  0.0000E+00  1.7916E-03  0.0000E+00  0.0000E+00
  7  0.0000E+00  6.2119E-04  0.0000E+00  0.0000E+00  0.0000E+00  1.2222E-03  0.0000E+00  1.8700E-03  0.0000E+00
  8  0.0000E+00  1.1029E-03  4.3195E-03  0.0000E+00  0.0000E+00  0.0000E+00  0.0000E+00  0.0000E+00  0.0000E+00
  9  0.0000E+00  3.2979E-03  0.0000E+00  8.2704E-03  5.1535E-03  0.0000E+00  1.9024E-02  8.4085E-05  0.0000E+00
 10  0.0000E+00  2.5342E-02  2.2544E-02  2.0589E-02  3.1019E-02  3.9333E-02  2.1500E-02  2.9111E-02  4.8337E-02
 11  1.0497E-01  5.5751E-02  1.1497E-01  3.0254E-02  0.0000E+00  6.0552E-02  8.6855E-02  7.9406E-02  6.4495E-02
 12  4.2437E+00  4.1681E+00  4.2731E+00  4.2091E+00  4.2964E+00  4.3906E+00  4.1717E+00  4.0880E+00  4.1330E+00
 13  1.4406E+01  1.3373E+01  1.3307E+01  1.3757E+01  1.4012E+01  1.3431E+01  1.3424E+01  1.3249E+01  1.3491E+01
 14  2.4298E+00  3.8111E+00  3.4079E+00  3.7863E+00  2.5296E+00  3.3625E+00  3.8188E+00  4.0053E+00  3.8107E+00
 15  0.0000E+00  3.7986E-01  3.2630E-01  0.0000E+00  3.8491E-01  3.1301E-01  2.2860E-01  3.1839E-01  3.4309E-01
 16  0.0000E+00  2.2358E-05  0.0000E+00  0.0000E+00  0.0000E+00  0.0000E+00  9.0303E-05  1.0706E-04  0.0000E+00
 17  0.0000E+00  2.0185E-05  0.0000E+00  0.0000E+00  0.0000E+00  0.0000E+00  0.0000E+00  4.0168E-05  2.1964E-04
 18  3.7062E-03  3.8138E-03  3.7105E-03  3.7922E-03  4.0169E-03  3.6321E-03  3.6933E-03  3.7710E-03  3.7655E-03
 19  0.0000E+00  7.3244E-04  8.7430E-04  0.0000E+00  8.4592E-04  1.3188E-03  1.0436E-03  9.3661E-04  1.0752E-03
 20  0.0000E+00  1.2853E-04  1.4889E-03  0.0000E+00  0.0000E+00  0.0000E+00  4.2730E-05  0.0000E+00  6.3438E-04
 21  0.0000E+00  3.8831E-04  0.0000E+00  0.0000E+00  4.4915E-04  1.1588E-04  7.7982E-04  0.0000E+00  0.0000E+00
 22  0.0000E+00  1.0475E-03  0.0000E+00  2.3407E-03  0.0000E+00  0.0000E+00  2.3727E-04  6.8568E-04  0.0000E+00
 23  0.0000E+00  2.2928E-03  0.0000E+00  1.7923E-03  0.0000E+00  0.0000E+00  0.0000E+00  0.0000E+00  8.4548E-03
 24  1.5501E-02  4.0993E-03  4.4641E-03  0.0000E+00  2.6505E-03  0.0000E+00  0.0000E+00  3.1903E-02  1.6752E-03
 25  0.0000E+00  6.4888E-03  0.0000E+00  2.1535E-02  4.0701E-03  0.0000E+00  0.0000E+00  2.9853E-02  1.3137E-02
 26  0.0000E+00  2.5957E-02  4.3033E-02  0.0000E+00  0.0000E+00  3.3240E-02  0.0000E+00  0.0000E+00  5.2076E-02
 27  0.0000E+00  4.9314E-02  0.0000E+00  0.0000E+00  0.0000E+00  0.0000E+00  1.4668E-02  3.0882E-03  0.0000E+00
 28  0.0000E+00  9.0808E-02  0.0000E+00  0.0000E+00  0.0000E+00  1.8642E-01  0.0000E+00  0.0000E+00  1.4570E-02
 29  4.0135E+01  4.1259E+01  4.1156E+01  4.1498E+01  4.0544E+01  4.0416E+01  4.1543E+01  4.0037E+01  4.0509E+01
 30  3.2808E+01  3.3459E+01  3.3621E+01  3.3368E+01  3.4127E+01  3.3518E+01  3.3612E+01  3.3576E+01  3.3638E+01
 31  0.0000E+00  3.1566E-05  1.3561E-05  0.0000E+00  0.0000E+00  0.0000E+00  0.0000E+00  0.0000E+00  0.0000E+00
 32  0.0000E+00  4.5124E-05  0.0000E+00  1.4462E-04  0.0000E+00  0.0000E+00  0.0000E+00  0.0000E+00  3.6095E-05
 33  0.0000E+00  5.8099E-05  0.0000E+00  0.0000E+00  5.1075E-05  0.0000E+00  8.3861E-05  0.0000E+00  0.0000E+00
 34  0.0000E+00  9.4132E-05  0.0000E+00  3.4202E-04  0.0000E+00  0.0000E+00  2.1930E-04  5.8333E-04  0.0000E+00
 35  0.0000E+00  2.4676E-04  0.0000E+00  0.0000E+00  0.0000E+00  0.0000E+00  0.0000E+00  0.0000E+00  0.0000E+00
 36  0.0000E+00  1.4553E-04  0.0000E+00  0.0000E+00  0.0000E+00  0.0000E+00  0.0000E+00  0.0000E+00  0.0000E+00
 37  0.0000E+00  7.1115E-04  0.0000E+00  0.0000E+00  1.8084E-03  0.0000E+00  0.0000E+00  0.0000E+00  0.0000E+00
 38  0.0000E+00  1.9542E-03  2.4632E-03  1.2120E-03  3.1944E-03  9.4383E-04  0.0000E+00  0.0000E+00  0.0000E+00
 39  0.0000E+00  4.6866E-03  2.0919E-03  9.9452E-03  0.0000E+00  7.7432E-03  1.3698E-02  0.0000E+00  0.0000E+00
 40  0.0000E+00  1.6703E-02  0.0000E+00  0.0000E+00  1.8023E-02  0.0000E+00  0.0000E+00  8.8962E-03  0.0000E+00
 41  0.0000E+00  2.5930E-02  0.0000E+00  0.0000E+00  0.0000E+00  0.0000E+00  0.0000E+00  0.0000E+00  0.0000E+00
 42  0.0000E+00  3.6231E-02  1.0905E-01  0.0000E+00  0.0000E+00  5.9982E-02  0.0000E+00  0.0000E+00  0.0000E+00
 43  0.0000E+00  1.2005E-01  0.0000E+00  0.0000E+00  0.0000E+00  1.2216E-01  7.7639E-02  5.8219E-02  0.0000E+00
 44  3.0253E+00  1.6922E+00  2.0176E+00  1.7273E+00  2.5333E+00  1.8107E+00  1.6663E+00  2.2438E+00  2.0702E+00
 45  2.8009E+00  1.3539E+00  1.5565E+00  1.5272E+00  1.4761E+00  2.2147E+00  1.2684E+00  2.2085E+00  1.7722E+00

# AV, chi2 & Mass for <> & i_chain = 1 ...  7 solutions
AV       1.3565      1.3551      1.3576      1.3580      1.3550      1.3561      1.3544      1.3563      1.3559
chi2 2.4425E+00  2.4619E+00  2.4557E+00  2.4535E+00  2.4540E+00  2.4548E+00  2.4574E+00  2.4508E+00  2.4545E+00
Mass 5.2922E-09  5.2780E-09  5.2925E-09  5.2921E-09  5.2921E-09  5.2791E-09  5.2814E-09  5.3210E-09  5.2976E-09
 -12.14                                  [v0_min (km/s) before EX0s...]
  35.99                                  [vd_min (km/s) before EX0s...]


## Synthetic spectrum (Best Model) ##l_obs f_obs f_syn wei
 3070    [Nl_obs]
 3359.00    0.00000   0.37125   -2.000
 3360.00    0.19023   0.34783   -1.000
 3361.00    0.20453   0.35150   -1.000
 3362.00    0.21619   0.38287   -1.000
 3363.00    0.22771   0.42194   -1.000
 3364.00    0.25331   0.44692   -1.000
 3365.00    0.26184   0.44636   -1.000
 3366.00    0.26611   0.42465   -1.000
 3367.00    0.25714   0.39813   -1.000
 3368.00    0.24168   0.37764   -1.000
 3369.00    0.23462   0.36879   -1.000
 3370.00    0.23348   0.36601   -1.000
 3371.00    0.22748   0.36383   -1.000
 3372.00    0.23427   0.36705   -1.000
 3373.00    0.24551   0.38467   -1.000
 3374.00    0.25848   0.41385   -1.000
 3375.00    0.26935   0.44731   -1.000
 3376.00    0.28654   0.46648   -1.000
 3377.00    0.29387   0.45799   -1.000
 3378.00    0.29980   0.43098   -1.000
 3379.00    0.29338   0.40393   -1.000
 3380.00    0.29067   0.39310   -1.000
 3381.00    0.28423   0.40359   -1.000
 3382.00    0.28022   0.42355   -1.000
 3383.00    0.28628   0.44100   -1.000
 3384.00    0.29860   0.45237   -1.000
 3385.00    0.30796   0.46295   -1.000
 3386.00    0.30897   0.46721   -1.000
 3387.00    0.31161   0.46456   -1.000
 3388.00    0.32360   0.46067   -1.000
 3389.00    0.32938   0.45869   -1.000
 3390.00    0.33320   0.45293   -1.000
 3391.00    0.32952   0.43866   -1.000
 3392.00    0.32617   0.42324   -1.000
 3393.00    0.32455   0.41990   -1.000
 3394.00    0.33309   0.43342   -1.000
 3395.00    0.35257   0.45796   -1.000
 3396.00    0.35609   0.48003   -1.000
 3397.00    0.37407   0.49869   -1.000
 3398.00    0.38895   0.51079   -1.000
 3399.00    0.39858   0.51253   -1.000
 3400.00    0.41256   0.50537   -1.000
 3401.00    0.40251   0.49218   -1.000
 3402.00    0.40069   0.47462   41.312
 3403.00    0.40249   0.46112   41.759
 3404.00    0.39087   0.45429   42.489
 3405.00    0.39190   0.44940   43.266
 3406.00    0.38476   0.44196   43.971
 3407.00    0.37706   0.43412   44.178
 3408.00    0.37489   0.43298   44.884
 3409.00    0.37260   0.44099   45.134
 3410.00    0.37338   0.45243   -1.000
 3411.00    0.38189   0.45264   43.506
 3412.00    0.38615   0.43939   43.155
 3413.00    0.38866   0.42268   45.009
 3414.00    0.37021   0.41501   45.850
 3415.00    0.35646   0.42353   45.757
 3416.00    0.37240   0.44201   44.628
 3417.00    0.39334   0.46473   42.716
 3418.00    0.41232   0.48544   40.695
 3419.00    0.42392   0.50219   38.639
 3420.00    0.41696   0.50680   -1.000
 3421.00    0.42229   0.49708   38.193
 3422.00    0.41973   0.47987   38.421
 3423.00    0.41791   0.46940   39.541
 3424.00    0.41710   0.46729   40.440
 3425.00    0.42224   0.47015   39.308
 3426.00    0.42210   0.47607   38.270
 3427.00    0.42900   0.48712   38.053
 3428.00    0.44541   0.50760   -1.000
 3429.00    0.45499   0.52571   -1.000
 3430.00    0.46051   0.52337   -1.000
 3431.00    0.45130   0.50433   -1.000
 3432.00    0.44542   0.48165   -1.000
 3433.00    0.43895   0.47266   39.353
 3434.00    0.43840   0.47887   37.947
 3435.00    0.44024   0.48710   -1.000
 3436.00    0.44011   0.48634   -1.000
 3437.00    0.43469   0.47358   39.068
 3438.00    0.41781   0.44929   39.668
 3439.00    0.40039   0.41675   42.049
 3440.00    0.38251   0.38546   45.389
 3441.00    0.36483   0.36477   47.257
 3442.00    0.35797   0.36468   47.373
 3443.00    0.36042   0.37769   47.176
 3444.00    0.38010   0.39467   45.333
 3445.00    0.39017   0.41178   42.862
 3446.00    0.40086   0.43271   40.489
 3447.00    0.42282   0.45657   39.065
 3448.00    0.44039   0.48137   -1.000
 3449.00    0.45606   0.49820   -1.000
 3450.00    0.46833   0.49675   -1.000
 3451.00    0.47683   0.47998  324.424
 3452.00    0.46811   0.46251  324.424
 3453.00    0.45887   0.45745  324.424
 3454.00    0.46040   0.46649  324.424
 3455.00    0.46968   0.47605  324.424
 3456.00    0.47640   0.47435  324.424
 3457.00    0.47261   0.45911   -1.000
 3458.00    0.45658   0.43841   -1.000
 3459.00    0.44182   0.42349   39.191
 3460.00    0.43722   0.41403   38.546
 3461.00    0.43212   0.41793   38.306
 3462.00    0.43439   0.43754  288.077
 3463.00    0.44711   0.45944   -1.000
 3464.00    0.47834   0.46502   -1.000
 3465.00    0.49261   0.46190   -1.000
 3466.00    0.47597   0.46054   -1.000
 3467.00    0.46856   0.46946  324.424
 3468.00    0.48724   0.48467  324.424
 3469.00    0.49720   0.49552  323.942
 3470.00    0.51275   0.49852   -1.000
 3471.00    0.50671   0.48942   -1.000
 3472.00    0.49359   0.46991   -1.000
 3473.00    0.47408   0.44368   -1.000
 3474.00    0.45577   0.41768   -1.000
 3475.00    0.44192   0.40093   39.525
 3476.00    0.43481   0.40621   39.768
 3477.00    0.44352   0.42769   38.946
 3478.00    0.46333   0.45327   -1.000
 3479.00    0.48601   0.47159   -1.000
 3480.00    0.49751   0.47871   -1.000
 3481.00    0.49223   0.47518   -1.000
 3482.00    0.49979   0.46461   -1.000
 3483.00    0.49629   0.45465   -1.000
 3484.00    0.48149   0.45552   -1.000
 3485.00    0.49863   0.47177   -1.000
 3486.00    0.52082   0.49214   -1.000
 3487.00    0.52117   0.49732   -1.000
 3488.00    0.52158   0.47927   -1.000
 3489.00    0.49637   0.45070   -1.000
 3490.00    0.46455   0.43059   -1.000
 3491.00    0.45781   0.42991   -1.000
 3492.00    0.45743   0.44115   -1.000
 3493.00    0.47284   0.45145   -1.000
 3494.00    0.47507   0.45196   -1.000
 3495.00    0.47486   0.44179   -1.000
 3496.00    0.46738   0.43468   -1.000
 3497.00    0.45967   0.44431   -1.000
 3498.00    0.47399   0.47219  324.424
 3499.00    0.50555   0.49666   -1.000
 3500.00    0.53034   0.50428   -1.000
 3501.00    0.53842   0.50870   -1.000
 3502.00    0.54331   0.51600   -1.000
 3503.00    0.55362   0.52132   -1.000
 3504.00    0.54595   0.51570   -1.000
 3505.00    0.54397   0.50301   -1.000
 3506.00    0.53731   0.49521   -1.000
 3507.00    0.52721   0.49479   -1.000
 3508.00    0.52954   0.49340   -1.000
 3509.00    0.53217   0.48404   -1.000
 3510.00    0.51997   0.47194   -1.000
 3511.00    0.50321   0.46023   -1.000
 3512.00    0.49411   0.44946   -1.000
 3513.00    0.48598   0.43853   -1.000
 3514.00    0.46828   0.43913   -1.000
 3515.00    0.48093   0.46046   -1.000
 3516.00    0.51699   0.49420   -1.000
 3517.00    0.53872   0.52087   -1.000
 3518.00    0.53924   0.52682   -1.000
 3519.00    0.54024   0.51100   -1.000
 3520.00    0.51294   0.48485   -1.000
 3521.00    0.49398   0.45896   -1.000
 3522.00    0.48390   0.44043   -1.000
 3523.00    0.47404   0.42090   -1.000
 3524.00    0.44490   0.40449   39.202
 3525.00    0.43175   0.40119   39.361
 3526.00    0.43909   0.41761   39.141
 3527.00    0.45828   0.44952  286.388
 3528.00    0.48852   0.48372  324.424
 3529.00    0.50379   0.50368  321.258
 3530.00    0.51616   0.50624   -1.000
 3531.00    0.51931   0.49879   -1.000
 3532.00    0.50709   0.49763   -1.000
 3533.00    0.50785   0.50604  321.113
 3534.00    0.51762   0.51833  315.764
 3535.00    0.53421   0.52559  309.064
 3536.00    0.53803   0.52663   -1.000
 3537.00    0.53610   0.53110  305.889
 3538.00    0.53205   0.54060  302.644
 3539.00    0.53389   0.54508   -1.000
 3540.00    0.54848   0.53903  301.237
 3541.00    0.52855   0.52946  306.937
 3542.00    0.52807   0.53080  309.639
 3543.00    0.52729   0.54103   -1.000
 3544.00    0.53393   0.54979   -1.000
 3545.00    0.53589   0.55006   -1.000
 3546.00    0.53159   0.54269   -1.000
 3547.00    0.52508   0.53741   -1.000
 3548.00    0.52817   0.53785   -1.000
 3549.00    0.52540   0.54136   -1.000
 3550.00    0.52763   0.54160   -1.000
 3551.00    0.52126   0.53446   -1.000
 3552.00    0.50225   0.52045   -1.000
 3553.00    0.49102   0.50777   -1.000
 3554.00    0.48069   0.50518   -1.000
 3555.00    0.47695   0.51079   -1.000
 3556.00    0.49246   0.51557   -1.000
 3557.00    0.49417   0.51387   -1.000
 3558.00    0.49132   0.50699   -1.000
 3559.00    0.48625   0.50529   -1.000
 3560.00    0.48741   0.51446   -1.000
 3561.00    0.48930   0.52941   -1.000
 3562.00    0.49525   0.53677   -1.000
 3563.00    0.50239   0.51908   -1.000
 3564.00    0.48212   0.47682  324.424
 3565.00    0.44700   0.43800   39.604
 3566.00    0.42071   0.42717   39.942
 3567.00    0.42054   0.43050   39.528
 3568.00    0.43579   0.42752   39.303
 3569.00    0.43121   0.41329   40.614
 3570.00    0.41462   0.40298   41.377
 3571.00    0.41726   0.41133   40.123
 3572.00    0.43192   0.43083   38.336
 3573.00    0.44780   0.44600  285.167
 3574.00    0.45738   0.45482  324.424
 3575.00    0.46038   0.45857  324.424
 3576.00    0.46450   0.45921  324.424
 3577.00    0.46725   0.45242   -1.000
 3578.00    0.45269   0.43480   -1.000
 3579.00    0.42577   0.40570   40.946
 3580.00    0.40724   0.38042   42.774
 3581.00    0.37982   0.36915   45.147
 3582.00    0.37515   0.37334   45.489
 3583.00    0.37776   0.37961   45.679
 3584.00    0.38059   0.37544   46.815
 3585.00    0.36933   0.36445   48.356
 3586.00    0.36780   0.36116   49.059
 3587.00    0.37219   0.37119   46.642
 3588.00    0.38804   0.39317   44.155
 3589.00    0.40421   0.42469   42.017
 3590.00    0.42339   0.45688   38.285
 3591.00    0.45766   0.48126   -1.000
 3592.00    0.47982   0.48927  324.424
 3593.00    0.48336   0.49009  324.424
 3594.00    0.48779   0.49607  324.424
 3595.00    0.50123   0.51345   -1.000
 3596.00    0.52153   0.53387   -1.000
 3597.00    0.53995   0.54783  298.003
 3598.00    0.55599   0.55976  290.172
 3599.00    0.56850   0.56712  285.357
 3600.00    0.56621   0.56078  288.639
 3601.00    0.55107   0.53749   -1.000
 3602.00    0.53105   0.50685   -1.000
 3603.00    0.50679   0.48008   -1.000
 3604.00    0.49559   0.46784   -1.000
 3605.00    0.49059   0.46813   -1.000
 3606.00    0.47939   0.46795   -1.000
 3607.00    0.48613   0.45783   -1.000
 3608.00    0.46893   0.44130   -1.000
 3609.00    0.44564   0.43540   -1.000
 3610.00    0.44747   0.44981  324.424
 3611.00    0.47939   0.47237  324.424
 3612.00    0.49293   0.48628  324.424
 3613.00    0.49750   0.49833  324.424
 3614.00    0.51209   0.51272  321.814
 3615.00    0.52189   0.52314  310.147
 3616.00    0.52711   0.51107   -1.000
 3617.00    0.50261   0.47122   -1.000
 3618.00    0.46201   0.43329   -1.000
 3619.00    0.44279   0.43222   39.034
 3620.00    0.44723   0.45978   -1.000
 3621.00    0.49513   0.49746  324.424
 3622.00    0.52962   0.52452  306.142
 3623.00    0.54491   0.54072  298.617
 3624.00    0.55366   0.55805  294.875
 3625.00    0.57174   0.58625   -1.000
 3626.00    0.59223   0.61415   -1.000
 3627.00    0.60959   0.62799   -1.000
 3628.00    0.60744   0.61284  272.756
 3629.00    0.57395   0.56463   -1.000
 3630.00    0.52697   0.50361   -1.000
 3631.00    0.48273   0.46640   -1.000
 3632.00    0.46422   0.46152  324.424
 3633.00    0.47917   0.48128  324.424
 3634.00    0.49807   0.50342  324.424
 3635.00    0.50877   0.51916   -1.000
 3636.00    0.52278   0.52951  312.931
 3637.00    0.54772   0.54795  298.194
 3638.00    0.56880   0.57276  284.742
 3639.00    0.58727   0.59435  275.132
 3640.00    0.60009   0.60089  274.649
 3641.00    0.58917   0.58752  281.467
 3642.00    0.57427   0.56246   -1.000
 3643.00    0.54503   0.53788  306.733
 3644.00    0.53317   0.51988   -1.000
 3645.00    0.52626   0.50705   -1.000
 3646.00    0.50948   0.49340   -1.000
 3647.00    0.49630   0.48164   -1.000
 3648.00    0.48750   0.48206  324.424
 3649.00    0.49754   0.49587  323.696
 3650.00    0.52294   0.52288  310.656
 3651.00    0.54077   0.55461   -1.000
 3652.00    0.56870   0.58364   -1.000
 3653.00    0.59273   0.59967  276.113
 3654.00    0.60339   0.60813  272.224
 3655.00    0.60811   0.61510  271.264
 3656.00    0.61269   0.62795   -1.000
 3657.00    0.63101   0.64247   -1.000
 3658.00    0.63267   0.65011   -1.000
 3659.00    0.63827   0.65181   -1.000
 3660.00    0.63281   0.64691   -1.000
 3661.00    0.63177   0.63557  263.908
 3662.00    0.62607   0.62018  266.741
 3663.00    0.60285   0.60871  271.311
 3664.00    0.60342   0.60458  273.422
 3665.00    0.61158   0.60700  270.160
 3666.00    0.61225   0.60716  270.283
 3667.00    0.61012   0.59827   -1.000
 3668.00    0.59759   0.58216   -1.000
 3669.00    0.57654   0.57462  285.908
 3670.00    0.57507   0.58676   -1.000
 3671.00    0.60552   0.60892  273.596
 3672.00    0.62275   0.62504  268.024
 3673.00    0.62054   0.62875  267.017
 3674.00    0.62654   0.62324  266.943
 3675.00    0.62438   0.60931   -1.000
 3676.00    0.61532   0.58801   -1.000
 3677.00    0.59565   0.56411   -1.000
 3678.00    0.56955   0.54204   -1.000
 3679.00    0.55350   0.53051   -1.000
 3680.00    0.55111   0.53375   -1.000
 3681.00    0.56305   0.54896   -1.000
 3682.00    0.57555   0.56540  283.563
 3683.00    0.58020   0.57350  280.850
 3684.00    0.58202   0.56416   -1.000
 3685.00    0.56703   0.53780   -1.000
 3686.00    0.54560   0.51026   -1.000
 3687.00    0.53210   0.50404   -1.000
 3688.00    0.53760   0.52356   -1.000
 3689.00    0.56330   0.56226  288.348
 3690.00    0.59945   0.60160  269.217
 3691.00    0.62971   0.62308  260.926
 3692.00    0.64071   0.61864   -1.000
 3693.00    0.62722   0.60515   -1.000
 3694.00    0.61666   0.59596   -1.000
 3695.00    0.61238   0.59157   -1.000
 3696.00    0.60410   0.59514  270.241
 3697.00    0.61791   0.61066  266.942
 3698.00    0.63878   0.63689  258.222
 3699.00    0.65658   0.65908  251.640
 3700.00    0.66999   0.66571  248.236
 3701.00    0.66859   0.64793   -1.000
 3702.00    0.64316   0.60341   -1.000
 3703.00    0.59430   0.54527   -1.000
 3704.00    0.55170   0.49698   -1.000
 3705.00    0.52265   0.47114   -1.000
 3706.00    0.51061   0.47352   -1.000
 3707.00    0.52045   0.48534   -1.000
 3708.00    0.52620   0.49872   -1.000
 3709.00    0.53276   0.51416   -1.000
 3710.00    0.55850   0.53661   -1.000
 3711.00    0.58893   0.56532   -1.000
 3712.00    0.62281   0.60356   -1.000
 3713.00    0.65861   0.63759   -1.000
 3714.00    0.68216   0.65609   -1.000
 3715.00    0.68631   0.65592   -1.000
 3716.00    0.66694   0.63748   -1.000
 3717.00    0.64428   0.59904   -1.000
 3718.00    0.59755   0.54303   -1.000
 3719.00    0.53231   0.47513   -1.000
 3720.00    0.47483   0.42141   -1.000
 3721.00    0.44590   0.40901   39.861
 3722.00    0.45723   0.43675   -1.000
 3723.00    0.51355   0.49162   -1.000
 3724.00    0.57082   0.54924   -1.000
 3725.00    0.60648   0.57995   -1.000
 3726.00    0.61516   0.57763   -1.000
 3727.00    0.59889   0.57035   -1.000
 3728.00    0.58389   0.57485   -1.000
 3729.00    0.59579   0.57980   -1.000
 3730.00    0.60008   0.56860   -1.000
 3731.00    0.57080   0.52824   -1.000
 3732.00    0.53108   0.46635   -1.000
 3733.00    0.47629   0.40800   39.125
 3734.00    0.42758   0.36641   42.328
 3735.00    0.39954   0.35807   44.014
 3736.00    0.40377   0.38377   41.903
 3737.00    0.43445   0.43451   37.993
 3738.00    0.49227   0.49670  261.879
 3739.00    0.54109   0.55633   -1.000
 3740.00    0.58863   0.58903  284.231
 3741.00    0.60161   0.59088   -1.000
 3742.00    0.58410   0.56663   -1.000
 3743.00    0.55568   0.53093   -1.000
 3744.00    0.52744   0.49501   -1.000
 3745.00    0.49715   0.47062   -1.000
 3746.00    0.47194   0.44737   -1.000
 3747.00    0.45495   0.41844   39.694
 3748.00    0.42707   0.38835   40.851
 3749.00    0.41610   0.38080   41.350
 3750.00    0.43835   0.41221   -1.000
 3751.00    0.48883   0.47233   -1.000
 3752.00    0.55286   0.53599   -1.000
 3753.00    0.59949   0.59327  272.016
 3754.00    0.63693   0.63402  257.579
 3755.00    0.66502   0.63913   -1.000
 3756.00    0.64819   0.60547   -1.000
 3757.00    0.59447   0.55369   -1.000
 3758.00    0.53610   0.51623   -1.000
 3759.00    0.52053   0.51361   -1.000
 3760.00    0.54026   0.53194   -1.000
 3761.00    0.56557   0.54953   -1.000
 3762.00    0.57878   0.55589   -1.000
 3763.00    0.57750   0.55766   -1.000
 3764.00    0.57854   0.55685   -1.000
 3765.00    0.57697   0.54847   -1.000
 3766.00    0.57123   0.53545   -1.000
 3767.00    0.56274   0.52561   -1.000
 3768.00    0.56026   0.51906   -1.000
 3769.00    0.56772   0.51433   -1.000
 3770.00    0.57105   0.51745   -1.000
 3771.00    0.57830   0.53721   -1.000
 3772.00    0.60851   0.57076   -1.000
 3773.00    0.63455   0.60095   -1.000
 3774.00    0.64400   0.61627   -1.000
 3775.00    0.64653   0.62522   -1.000
 3776.00    0.64664   0.63451   -1.000
 3777.00    0.65545   0.64797  261.126
 3778.00    0.66853   0.66642  257.509
 3779.00    0.67905   0.68534  248.882
 3780.00    0.69776   0.70098  243.041
 3781.00    0.70840   0.71005  241.348
 3782.00    0.70874   0.71500  239.879
 3783.00    0.71717   0.71313  239.996
 3784.00    0.71464   0.69461   -1.000
 3785.00    0.68728   0.65743   -1.000
 3786.00    0.64683   0.61696   -1.000
 3787.00    0.60377   0.58587   -1.000
 3788.00    0.58839   0.57077   -1.000
 3789.00    0.58072   0.57189   -1.000
 3790.00    0.58032   0.58133  292.185
 3791.00    0.59024   0.58643  289.158
 3792.00    0.59293   0.57665   -1.000
 3793.00    0.57411   0.55218   -1.000
 3794.00    0.54531   0.52429   -1.000
 3795.00    0.52942   0.49647   -1.000
 3796.00    0.51154   0.46743   -1.000
 3797.00    0.48425   0.43775   -1.000
 3798.00    0.47061   0.42920   -1.000
 3799.00    0.49313   0.46005   -1.000
 3800.00    0.52941   0.51660   -1.000
 3801.00    0.57170   0.57486  287.415
 3802.00    0.60078   0.62199   -1.000
 3803.00    0.62626   0.64730   -1.000
 3804.00    0.64551   0.65285  266.931
 3805.00    0.62966   0.63967  270.983
 3806.00    0.60540   0.62242   -1.000
 3807.00    0.59760   0.62154   -1.000
 3808.00    0.60895   0.64226   -1.000
 3809.00    0.63243   0.66848   -1.000
 3810.00    0.64557   0.67988   -1.000
 3811.00    0.64413   0.66487   -1.000
 3812.00    0.62491   0.62843  285.253
 3813.00    0.59686   0.58619   -1.000
 3814.00    0.55613   0.55152  321.220
 3815.00    0.52950   0.54060  324.424
 3816.00    0.52973   0.55119   -1.000
 3817.00    0.54775   0.56113   -1.000
 3818.00    0.55306   0.55050  322.952
 3819.00    0.52255   0.52248  324.424
 3820.00    0.49361   0.50305  324.424
 3821.00    0.49327   0.50884   -1.000
 3822.00    0.51133   0.52312  324.424
 3823.00    0.51936   0.51697  324.424
 3824.00    0.49196   0.49052  324.424
 3825.00    0.45786   0.46544   41.065
 3826.00    0.44963   0.45331   40.550
 3827.00    0.44520   0.45428   40.218
 3828.00    0.44995   0.46089   39.569
 3829.00    0.45271   0.46398   38.918
 3830.00    0.45602   0.45566   39.390
 3831.00    0.44601   0.43409   41.180
 3832.00    0.42048   0.40494   44.483
 3833.00    0.39764   0.37739   45.878
 3834.00    0.39404   0.36436   44.999
 3835.00    0.40741   0.36787   43.180
 3836.00    0.41766   0.37977   42.225
 3837.00    0.41402   0.38948   43.108
 3838.00    0.40745   0.39763   44.155
 3839.00    0.40799   0.41334   43.390
 3840.00    0.43318   0.44613   40.920
 3841.00    0.46817   0.49341   -1.000
 3842.00    0.51902   0.54036   -1.000
 3843.00    0.55114   0.57812   -1.000
 3844.00    0.56708   0.59682   -1.000
 3845.00    0.57034   0.60623   -1.000
 3846.00    0.56894   0.61493   -1.000
 3847.00    0.57406   0.62016   -1.000
 3848.00    0.57294   0.61375   -1.000
 3849.00    0.54911   0.60367   -1.000
 3850.00    0.54012   0.60266   -1.000
 3851.00    0.54858   0.61367   -1.000
 3852.00    0.56529   0.62500   -1.000
 3853.00    0.56593   0.62360   -1.000
 3854.00    0.55985   0.60790   -1.000
 3855.00    0.54138   0.59062   -1.000
 3856.00    0.53358   0.57434   -1.000
 3857.00    0.52519   0.55452   -1.000
 3858.00    0.50181   0.53301   38.901
 3859.00    0.47059   0.52487   39.944
 3860.00    0.47335   0.54206   39.103
 3861.00    0.50802   0.57953   -1.000
 3862.00    0.55313   0.61631   -1.000
 3863.00    0.59280   0.63198   -1.000
 3864.00    0.59772   0.62800   -1.000
 3865.00    0.58916   0.62065   -1.000
 3866.00    0.57801   0.61685   -1.000
 3867.00    0.57048   0.61579   -1.000
 3868.00    0.55457   0.61140   -1.000
 3869.00    0.53116   0.59623   -1.000
 3870.00    0.51391   0.57078   -1.000
 3871.00    0.49650   0.54904   39.411
 3872.00    0.50249   0.54659   -1.000
 3873.00    0.53847   0.56877   -1.000
 3874.00    0.58634   0.60410   -1.000
 3875.00    0.61014   0.62481   -1.000
 3876.00    0.60383   0.61105  302.363
 3877.00    0.57101   0.58082  324.424
 3878.00    0.52940   0.56163   -1.000
 3879.00    0.51920   0.55917   -1.000
 3880.00    0.52009   0.56365   -1.000
 3881.00    0.50569   0.56495   -1.000
 3882.00    0.50253   0.56574   -1.000
 3883.00    0.53612   0.56860   -1.000
 3884.00    0.57902   0.55991   -1.000
 3885.00    0.57706   0.52866   -1.000
 3886.00    0.54711   0.48595   -1.000
 3887.00    0.52867   0.45468   -1.000
 3888.00    0.52940   0.44961   -1.000
 3889.00    0.54656   0.47681   -1.000
 3890.00    0.58704   0.52693   -1.000
 3891.00    0.64167   0.58261   -1.000
 3892.00    0.68218   0.62070   -1.000
 3893.00    0.69366   0.63050   -1.000
 3894.00    0.68209   0.62895   -1.000
 3895.00    0.67973   0.63393   -1.000
 3896.00    0.69358   0.64736   -1.000
 3897.00    0.70845   0.65747   -1.000
 3898.00    0.71089   0.65757   -1.000
 3899.00    0.70387   0.65694   -1.000
 3900.00    0.70523   0.66461   -1.000
 3901.00    0.71161   0.67237   -1.000
 3902.00    0.71145   0.67047   -1.000
 3903.00    0.70298   0.65629   -1.000
 3904.00    0.68465   0.63794   -1.000
 3905.00    0.65540   0.63265   -1.000
 3906.00    0.65555   0.64665   -1.000
 3907.00    0.68851   0.67924  258.550
 3908.00    0.73422   0.71696   -1.000
 3909.00    0.76982   0.74356   -1.000
 3910.00    0.78390   0.75676   -1.000
 3911.00    0.79272   0.76413   -1.000
 3912.00    0.80048   0.76511   -1.000
 3913.00    0.78510   0.75942   -1.000
 3914.00    0.76271   0.74902   -1.000
 3915.00    0.75708   0.73683   -1.000
 3916.00    0.75511   0.72512   -1.000
 3917.00    0.74179   0.71150   -1.000
 3918.00    0.72846   0.69026   -1.000
 3919.00    0.69902   0.66436   -1.000
 3920.00    0.65988   0.64309   -1.000
 3921.00    0.64763   0.63482   -1.000
 3922.00    0.65096   0.64239   -1.000
 3923.00    0.66270   0.65298   -1.000
 3924.00    0.67140   0.65103   -1.000
 3925.00    0.65691   0.63006   -1.000
 3926.00    0.61517   0.59160   -1.000
 3927.00    0.55431   0.54322   -1.000
 3928.00    0.50012   0.49083   43.498
 3929.00    0.44453   0.44079   49.021
 3930.00    0.39192   0.38832   57.351
 3931.00    0.33403   0.33719   67.863
 3932.00    0.27827   0.29273   79.408
 3933.00    0.24619   0.26931   86.901
 3934.00    0.24319   0.27981   83.517
 3935.00    0.27684   0.32139   72.609
 3936.00    0.33001   0.37943   60.084
 3937.00    0.39582   0.44369   49.339
 3938.00    0.45649   0.50518   41.454
 3939.00    0.51888   0.55386   -1.000
 3940.00    0.56319   0.58864   -1.000
 3941.00    0.58567   0.60349   -1.000
 3942.00    0.58888   0.60534   -1.000
 3943.00    0.57449   0.60595   -1.000
 3944.00    0.57771   0.61992   -1.000
 3945.00    0.62808   0.64770   -1.000
 3946.00    0.68069   0.67282  262.245
 3947.00    0.70907   0.68668   -1.000
 3948.00    0.71127   0.69720   -1.000
 3949.00    0.72335   0.71354  247.939
 3950.00    0.75344   0.72773   -1.000
 3951.00    0.76412   0.72888   -1.000
 3952.00    0.75151   0.72927   -1.000
 3953.00    0.75583   0.73633   -1.000
 3954.00    0.77314   0.74157   -1.000
 3955.00    0.77412   0.73409   -1.000
 3956.00    0.74825   0.71953   -1.000
 3957.00    0.73303   0.71382   -1.000
 3958.00    0.73553   0.71328   -1.000
 3959.00    0.72891   0.69264   -1.000
 3960.00    0.67198   0.64333   -1.000
 3961.00    0.60048   0.58663   -1.000
 3962.00    0.54576   0.54113   -1.000
 3963.00    0.51444   0.51217  324.424
 3964.00    0.49003   0.47973   40.951
 3965.00    0.43949   0.42851   46.190
 3966.00    0.36623   0.35919   56.929
 3967.00    0.30364   0.29613   69.669
 3968.00    0.26262   0.26367   77.181
 3969.00    0.26177   0.26966   71.955
 3970.00    0.29937   0.30983   59.441
 3971.00    0.36230   0.37166   48.831
 3972.00    0.43569   0.43995   40.835
 3973.00    0.50360   0.50617  272.187
 3974.00    0.56599   0.56953  310.733
 3975.00    0.63058   0.62412  279.842
 3976.00    0.67799   0.67301  257.793
 3977.00    0.71924   0.71726  242.537
 3978.00    0.77041   0.75929  229.793
 3979.00    0.81229   0.79344   -1.000
 3980.00    0.83977   0.80686   -1.000
 3981.00    0.83498   0.80365   -1.000
 3982.00    0.82165   0.79555   -1.000
 3983.00    0.82899   0.79760   -1.000
 3984.00    0.84427   0.81027   -1.000
 3985.00    0.85865   0.82584   -1.000
 3986.00    0.88019   0.84404   -1.000
 3987.00    0.88686   0.86228   -1.000
 3988.00    0.90549   0.87353   -1.000
 3989.00    0.91252   0.87788   -1.000
 3990.00    0.89876   0.88218   -1.000
 3991.00    0.91282   0.89288   -1.000
 3992.00    0.94426   0.90603   -1.000
 3993.00    0.94525   0.90932   -1.000
 3994.00    0.92552   0.89825   -1.000
 3995.00    0.90570   0.87857   -1.000
 3996.00    0.88419   0.86045   -1.000
 3997.00    0.87124   0.85918  207.868
 3998.00    0.88001   0.87749  203.229
 3999.00    0.92218   0.90595  193.873
 4000.00    0.95942   0.93318   -1.000
 4001.00    0.97891   0.95106   -1.000
 4002.00    0.98543   0.95033   -1.000
 4003.00    0.97958   0.92440   -1.000
 4004.00    0.93631   0.87906   -1.000
 4005.00    0.87360   0.84389   -1.000
 4006.00    0.86940   0.84819   -1.000
 4007.00    0.91461   0.88519   -1.000
 4008.00    0.95531   0.92661   -1.000
 4009.00    0.97985   0.95036   -1.000
 4010.00    0.98965   0.95979   -1.000
 4011.00    0.98493   0.96359   -1.000
 4012.00    0.98243   0.96662  183.088
 4013.00    0.98810   0.97220  184.090
 4014.00    0.99851   0.97816   -1.000
 4015.00    1.00571   0.97915   -1.000
 4016.00    1.00734   0.97580   -1.000
 4017.00    0.99573   0.97616   -1.000
 4018.00    1.00000   0.98521  183.054
 4019.00    1.01922   0.99517   -1.000
 4020.00    1.02228   0.99955   -1.000
 4021.00    1.01780   0.99446   -1.000
 4022.00    1.01364   0.98568   -1.000
 4023.00    1.00402   0.97592   -1.000
 4024.00    0.99275   0.96989   -1.000
 4025.00    1.00275   0.97678   -1.000
 4026.00    1.03434   0.99867   -1.000
 4027.00    1.06032   1.01956   -1.000
 4028.00    1.06185   1.01173   -1.000
 4029.00    1.02202   0.96849   -1.000
 4030.00    0.96293   0.91015   -1.000
 4031.00    0.91438   0.86671   -1.000
 4032.00    0.89750   0.84852   -1.000
 4033.00    0.89721   0.85538   -1.000
 4034.00    0.91398   0.88625   -1.000
 4035.00    0.95892   0.93678   -1.000
 4036.00    1.02027   0.99348   -1.000
 4037.00    1.06195   1.03984   -1.000
 4038.00    1.08045   1.05264   -1.000
 4039.00    1.07037   1.03715   -1.000
 4040.00    1.03773   1.01904   -1.000
 4041.00    1.02102   1.00932  178.980
 4042.00    1.03184   0.98802   -1.000
 4043.00    0.99583   0.93397   -1.000
 4044.00    0.90597   0.85564   -1.000
 4045.00    0.82560   0.80836   -1.000
 4046.00    0.83018   0.82960  214.235
 4047.00    0.91195   0.89863  193.369
 4048.00    0.99710   0.96857   -1.000
 4049.00    1.04178   1.01619   -1.000
 4050.00    1.06393   1.03300   -1.000
 4051.00    1.05646   1.02821   -1.000
 4052.00    1.02640   1.00827   -1.000
 4053.00    1.00028   0.98375  184.969
 4054.00    0.98492   0.96588   -1.000
 4055.00    0.97409   0.95312   -1.000
 4056.00    0.95832   0.93892   -1.000
 4057.00    0.94856   0.93143   -1.000
 4058.00    0.95236   0.94335  190.403
 4059.00    0.97387   0.97049  183.480
 4060.00    1.01417   0.98320   -1.000
 4061.00    1.01037   0.95467   -1.000
 4062.00    0.94889   0.89849   -1.000
 4063.00    0.87619   0.85692   -1.000
 4064.00    0.86796   0.85159   -1.000
 4065.00    0.91813   0.87309   -1.000
 4066.00    0.95792   0.90387   -1.000
 4067.00    0.97427   0.93440   -1.000
 4068.00    1.00228   0.95912   -1.000
 4069.00    1.02437   0.96049   -1.000
 4070.00    0.99557   0.93093   -1.000
 4071.00    0.95036   0.89900   -1.000
 4072.00    0.94402   0.89956   -1.000
 4073.00    0.97527   0.92474   -1.000
 4074.00    0.98950   0.93603   -1.000
 4075.00    0.95999   0.90803   -1.000
 4076.00    0.90405   0.86469   -1.000
 4077.00    0.86090   0.84566   -1.000
 4078.00    0.87303   0.86865  209.290
 4079.00    0.92819   0.92426  194.884
 4080.00    0.99322   0.98092  181.420
 4081.00    1.03468   1.00879   -1.000
 4082.00    1.02407   0.99891   -1.000
 4083.00    0.99569   0.97215   -1.000
 4084.00    0.97675   0.95701   -1.000
 4085.00    0.98091   0.96986  185.059
 4086.00    1.01237   1.00483  178.790
 4087.00    1.05603   1.04226  171.897
 4088.00    1.09349   1.06482   -1.000
 4089.00    1.09308   1.06201   -1.000
 4090.00    1.07558   1.04190   -1.000
 4091.00    1.05148   1.02169   -1.000
 4092.00    1.04005   1.01108   -1.000
 4093.00    1.04261   0.99891   -1.000
 4094.00    1.03037   0.97580   -1.000
 4095.00    0.99734   0.94003   -1.000
 4096.00    0.94764   0.90571   -1.000
 4097.00    0.92782   0.87968   -1.000
 4098.00    0.92119   0.84934   -1.000
 4099.00    0.89005   0.80013   -1.000
 4100.00    0.82791   0.73830   -1.000
 4101.00    0.75739   0.70063   -1.000
 4102.00    0.75517   0.71406   -1.000
 4103.00    0.80892   0.77328   -1.000
 4104.00    0.87721   0.84795   -1.000
 4105.00    0.93850   0.90853   -1.000
 4106.00    0.97499   0.94280   -1.000
 4107.00    0.99350   0.95889   -1.000
 4108.00    0.98568   0.95989   -1.000
 4109.00    0.97464   0.95376   -1.000
 4110.00    0.96373   0.95169  193.004
 4111.00    0.96032   0.95967  190.623
 4112.00    0.97651   0.97636  186.295
 4113.00    1.00008   0.99864  183.087
 4114.00    1.02433   1.02207  180.269
 4115.00    1.04017   1.03556  178.503
 4116.00    1.04062   1.03113  179.378
 4117.00    1.02340   1.01202  183.213
 4118.00    0.99738   0.99154  189.447
 4119.00    0.98198   0.98128  191.692
 4120.00    0.99070   0.98470  189.300
 4121.00    1.00187   0.99282  187.329
 4122.00    0.99607   0.99986  187.518
 4123.00    0.99313   1.00904   -1.000
 4124.00    1.02075   1.02119  182.200
 4125.00    1.02924   1.02709  181.573
 4126.00    1.02268   1.01855  184.024
 4127.00    1.01088   1.00310  188.022
 4128.00    0.99294   0.99236  189.592
 4129.00    0.98470   0.98405  190.545
 4130.00    0.97343   0.96558  192.949
 4131.00    0.95536   0.93687   -1.000
 4132.00    0.92675   0.91385  205.377
 4133.00    0.91694   0.91899  205.951
 4134.00    0.94243   0.95383  199.176
 4135.00    0.98951   0.99884  189.067
 4136.00    1.02968   1.03864  182.890
 4137.00    1.04826   1.06348   -1.000
 4138.00    1.06415   1.07778  177.117
 4139.00    1.06892   1.08167  176.409
 4140.00    1.05794   1.06002  180.028
 4141.00    1.02532   1.00667   -1.000
 4142.00    0.95257   0.94481  205.672
 4143.00    0.89472   0.90974   -1.000
 4144.00    0.89717   0.92269   -1.000
 4145.00    0.95004   0.96866   -1.000
 4146.00    1.00734   1.01028  188.792
 4147.00    1.02272   1.02398  186.812
 4148.00    1.01197   1.01640  190.371
 4149.00    0.99359   1.00675  195.739
 4150.00    0.97040   1.00552   -1.000
 4151.00    0.96466   1.00541   -1.000
 4152.00    0.96248   0.99875   -1.000
 4153.00    0.96302   0.98524   -1.000
 4154.00    0.96221   0.97327  200.722
 4155.00    0.95108   0.97352   -1.000
 4156.00    0.95461   0.98837   -1.000
 4157.00    1.13574   1.01090   -1.000
 4158.00    1.09213   1.03772   -1.000
 4159.00    0.96318   1.06065   -1.000
 4160.00    0.95190   1.07495   -1.000
 4161.00    1.02319   1.08712   -1.000
 4162.00    1.05524   1.09739   -1.000
 4163.00    1.06044   1.10192   -1.000
 4164.00    1.05463   1.09438   -1.000
 4165.00    1.03275   1.07355   -1.000
 4166.00    1.01010   1.04983   -1.000
 4167.00    0.98314   1.03911   -1.000
 4168.00    0.98291   1.04175   -1.000
 4169.00    1.01214   1.04320   -1.000
 4170.00    1.01309   1.02135  191.958
 4171.00    0.97058   0.97870  203.477
 4172.00    0.90828   0.94061   -1.000
 4173.00    0.88151   0.93222   -1.000
 4174.00    0.90646   0.95408   -1.000
 4175.00    0.94240   0.98149   -1.000
 4176.00    0.95410   0.99472   -1.000
 4177.00    0.94671   1.00179   -1.000
 4178.00    0.94418   1.01488   -1.000
 4179.00    0.96021   1.02818   -1.000
 4180.00    0.96694   1.02995   -1.000
 4181.00    0.97808   1.02059   -1.000
 4182.00    0.98076   1.01928   -1.000
 4183.00    0.99890   1.03723   -1.000
 4184.00    1.03359   1.05459   -1.000
 4185.00    1.03978   1.05096  187.305
 4186.00    1.01873   1.02828  193.693
 4187.00    0.98160   1.00996   -1.000
 4188.00    0.97329   1.01337   -1.000
 4189.00    1.00160   1.03056   -1.000
 4190.00    1.00790   1.04729   -1.000
 4191.00    1.01047   1.06193   -1.000
 4192.00    1.03694   1.07789   -1.000
 4193.00    1.05957   1.08342   -1.000
 4194.00    1.05204   1.06507  188.046
 4195.00    1.00813   1.02556   -1.000
 4196.00    0.95885   0.98570   -1.000
 4197.00    0.93839   0.95827   -1.000
 4198.00    0.93296   0.94679   -1.000
 4199.00    0.94865   0.94566  206.341
 4200.00    0.97130   0.95259   -1.000
 4201.00    0.97111   0.96178  202.466
 4202.00    0.96849   0.97484  201.158
 4203.00    0.98443   0.99795   -1.000
 4204.00    1.00405   1.03023   -1.000
 4205.00    1.02253   1.06254   -1.000
 4206.00    1.03675   1.08927   -1.000
 4207.00    1.06015   1.10657   -1.000
 4208.00    1.08062   1.10941   -1.000
 4209.00    1.07197   1.10345   -1.000
 4210.00    1.07409   1.10090   -1.000
 4211.00    1.08433   1.10748   -1.000
 4212.00    1.08244   1.10891   -1.000
 4213.00    1.06850   1.08482   -1.000
 4214.00    1.01944   1.04409   -1.000
 4215.00    0.98045   1.01996   -1.000
 4216.00    0.99606   1.03311   -1.000
 4217.00    1.06166   1.07917   -1.000
 4218.00    1.12377   1.12687  176.023
 4219.00    1.15894   1.15775  171.136
 4220.00    1.17411   1.16185  169.304
 4221.00    1.17171   1.14027   -1.000
 4222.00    1.14347   1.09072   -1.000
 4223.00    1.08398   1.01167   -1.000
 4224.00    0.99516   0.91308   -1.000
 4225.00    0.88779   0.82952   -1.000
 4226.00    0.79700   0.79544  257.296
 4227.00    0.80647   0.83810   -1.000
 4228.00    0.92739   0.93982   -1.000
 4229.00    1.05308   1.04063  187.094
 4230.00    1.12118   1.09225   -1.000
 4231.00    1.14188   1.10067   -1.000
 4232.00    1.12237   1.08155   -1.000
 4233.00    1.08831   1.05572   -1.000
 4234.00    1.06737   1.03473   -1.000
 4235.00    1.05335   1.02438   -1.000
 4236.00    1.03807   1.02146   -1.000
 4237.00    1.04069   1.02988  193.028
 4238.00    1.05307   1.05113  188.455
 4239.00    1.06239   1.07646  185.799
 4240.00    1.08729   1.10048  182.195
 4241.00    1.11786   1.12168  179.750
 4242.00    1.13818   1.14017  178.984
 4243.00    1.14660   1.16107  175.874
 4244.00    1.16421   1.17685  172.140
 4245.00    1.17089   1.16977  173.996
 4246.00    1.13820   1.13485  182.159
 4247.00    1.09720   1.08748  189.100
 4248.00    1.06938   1.04619   -1.000
 4249.00    1.04915   1.02801   -1.000
 4250.00    1.03672   1.03450  195.407
 4251.00    1.05141   1.05476  189.702
 4252.00    1.09053   1.06660   -1.000
 4253.00    1.09997   1.05569   -1.000
 4254.00    1.06861   1.04133   -1.000
 4255.00    1.06061   1.05624  188.077
 4256.00    1.10499   1.09124  180.615
 4257.00    1.13368   1.10158   -1.000
 4258.00    1.09858   1.06824   -1.000
 4259.00    1.04097   1.01958   -1.000
 4260.00    1.00826   1.00238  201.742
 4261.00    1.01955   1.03871   -1.000
 4262.00    1.09025   1.10786   -1.000
 4263.00    1.16933   1.17090  173.230
 4264.00    1.20099   1.20175  169.217
 4265.00    1.21419   1.20402  168.840
 4266.00    1.21415   1.18740   -1.000
 4267.00    1.17550   1.15467   -1.000
 4268.00    1.13538   1.10600   -1.000
 4269.00    1.10042   1.04453   -1.000
 4270.00    1.03008   0.97837   -1.000
 4271.00    0.95437   0.93223   -1.000
 4272.00    0.92716   0.91793  217.263
 4273.00    0.94966   0.93443   -1.000
 4274.00    0.97734   0.96972  206.945
 4275.00    1.01780   1.02228  197.609
 4276.00    1.08594   1.08661  184.677
 4277.00    1.14387   1.14003  176.112
 4278.00    1.17190   1.15294   -1.000
 4279.00    1.15684   1.13077   -1.000
 4280.00    1.10853   1.10354  190.525
 4281.00    1.08793   1.09574  190.963
 4282.00    1.09732   1.10356  188.207
 4283.00    1.10824   1.10481  186.504
 4284.00    1.10468   1.09273  188.969
 4285.00    1.07568   1.07605  194.624
 4286.00    1.05031   1.05823  199.527
 4287.00    1.03546   1.03331  202.337
 4288.00    1.00599   0.99414  210.215
 4289.00    0.95707   0.95398  220.836
 4290.00    0.93484   0.94744  221.192
 4291.00    0.97009   0.98311  209.905
 4292.00    1.03567   1.03002  196.432
 4293.00    1.08197   1.05416   -1.000
 4294.00    1.07835   1.05049   -1.000
 4295.00    1.06027   1.03138   -1.000
 4296.00    1.04523   1.00066   -1.000
 4297.00    1.00947   0.95243   -1.000
 4298.00    0.94324   0.89123   -1.000
 4299.00    0.87581   0.84077   -1.000
 4300.00    0.84650   0.82267   -1.000
 4301.00    0.86537   0.83164   -1.000
 4302.00    0.87959   0.84951   -1.000
 4303.00    0.89702   0.86534   -1.000
 4304.00    0.91489   0.87620   -1.000
 4305.00    0.91862   0.86913   -1.000
 4306.00    0.89523   0.83800   -1.000
 4307.00    0.85574   0.80170   -1.000
 4308.00    0.81857   0.78644   -1.000
 4309.00    0.82910   0.80782   -1.000
 4310.00    0.88980   0.85686   -1.000
 4311.00    0.94188   0.91352   -1.000
 4312.00    0.98839   0.96707   -1.000
 4313.00    1.01651   1.03050   -1.000
 4314.00    1.05891   1.10877   -1.000
 4315.00    1.13136   1.19721   -1.000
 4316.00    1.23242   1.27716   -1.000
 4317.00    1.29719   1.31816   -1.000
 4318.00    1.30770   1.31700  159.066
 4319.00    1.28316   1.29356  161.609
 4320.00    1.26364   1.26181  165.306
 4321.00    1.23212   1.21302   -1.000
 4322.00    1.18557   1.13998   -1.000
 4323.00    1.11487   1.04584   -1.000
 4324.00    1.02983   0.96940   -1.000
 4325.00    0.95581   0.95266  218.732
 4326.00    0.97521   1.00931   -1.000
 4327.00    1.08043   1.11311   -1.000
 4328.00    1.19596   1.20622  169.427
 4329.00    1.24644   1.24796  166.315
 4330.00    1.24740   1.25302  167.107
 4331.00    1.23500   1.25208   -1.000
 4332.00    1.24445   1.26326   -1.000
 4333.00    1.25818   1.27596   -1.000
 4334.00    1.26893   1.27251  161.212
 4335.00    1.26689   1.23469   -1.000
 4336.00    1.21069   1.15371   -1.000
 4337.00    1.10543   1.04015   -1.000
 4338.00    1.00816   0.93235   -1.000
 4339.00    0.93313   0.87276   -1.000
 4340.00    0.88976   0.87618  232.556
 4341.00    0.92699   0.93866   -1.000
 4342.00    1.01959   1.03102   -1.000
 4343.00    1.10892   1.10966  181.828
 4344.00    1.15592   1.16102  176.195
 4345.00    1.19658   1.20045  171.415
 4346.00    1.22608   1.23362  168.545
 4347.00    1.24352   1.26521   -1.000
 4348.00    1.27145   1.28513  164.017
 4349.00    1.28520   1.26781  164.545
 4350.00    1.23767   1.20645   -1.000
 4351.00    1.14372   1.14017  187.144
 4352.00    1.09609   1.11624   -1.000
 4353.00    1.14128   1.14586  181.564
 4354.00    1.20571   1.20055  173.292
 4355.00    1.24082   1.24613  168.009
 4356.00    1.27687   1.26834  164.545
 4357.00    1.30041   1.27172   -1.000
 4358.00    1.27475   1.26366  168.396
 4359.00    1.25285   1.26224  170.434
 4360.00    1.26161   1.28119   -1.000
 4361.00    1.29970   1.31217  161.857
 4362.00    1.33654   1.33767  160.142
 4363.00    1.34498   1.35420  159.517
 4364.00    1.34647   1.36622   -1.000
 4365.00    1.36241   1.36059  157.586
 4366.00    1.33626   1.32785  162.612
 4367.00    1.28027   1.28825  168.619
 4368.00    1.24860   1.26530   -1.000
 4369.00    1.25403   1.25804  168.622
 4370.00    1.26447   1.25580  167.596
 4371.00    1.26886   1.24431   -1.000
 4372.00    1.26668   1.21628   -1.000
 4373.00    1.22498   1.17620   -1.000
 4374.00    1.17106   1.14277   -1.000
 4375.00    1.15403   1.14475  183.264
 4376.00    1.19247   1.18811  175.498
 4377.00    1.25631   1.24089  166.619
 4378.00    1.29974   1.26887   -1.000
 4379.00    1.30093   1.26233   -1.000
 4380.00    1.28010   1.21615   -1.000
 4381.00    1.23377   1.12686   -1.000
 4382.00    1.13164   1.01823   -1.000
 4383.00    0.99518   0.93991   -1.000
 4384.00    0.93883   0.94018  220.009
 4385.00    1.01153   1.01681  199.224
 4386.00    1.13259   1.10842   -1.000
 4387.00    1.20497   1.15991   -1.000
 4388.00    1.22113   1.16926   -1.000
 4389.00    1.21166   1.16626   -1.000
 4390.00    1.19902   1.17163   -1.000
 4391.00    1.21588   1.18924   -1.000
 4392.00    1.24743   1.20837   -1.000
 4393.00    1.25091   1.21458   -1.000
 4394.00    1.23017   1.21621  175.184
 4395.00    1.22919   1.23619  174.414
 4396.00    1.26894   1.27611  166.206
 4397.00    1.32623   1.30238   -1.000
 4398.00    1.33796   1.29057   -1.000
 4399.00    1.28335   1.25737   -1.000
 4400.00    1.23033   1.23347  175.141
 4401.00    1.22548   1.22412  172.901
 4402.00    1.25470   1.20844   -1.000
 4403.00    1.23671   1.16239   -1.000
 4404.00    1.15528   1.11110   -1.000
 4405.00    1.11430   1.09656  187.756
 4406.00    1.15123   1.12208   -1.000
 4407.00    1.18343   1.16073   -1.000
 4408.00    1.18874   1.20179  177.120
 4409.00    1.22438   1.25466   -1.000
 4410.00    1.29156   1.32121   -1.000
 4411.00    1.34000   1.36515   -1.000
 4412.00    1.36628   1.35666  155.599
 4413.00    1.34556   1.30533   -1.000
 4414.00    1.27256   1.24073   -1.000
 4415.00    1.19952   1.19898  175.449
 4416.00    1.19773   1.21294   -1.000
 4417.00    1.24116   1.27267   -1.000
 4418.00    1.28765   1.33972   -1.000
 4419.00    1.33068   1.38051   -1.000
 4420.00    1.34209   1.37929   -1.000
 4421.00    1.30718   1.34695   -1.000
 4422.00    1.26740   1.31490   -1.000
 4423.00    1.24951   1.30377   -1.000
 4424.00    1.25670   1.31104   -1.000
 4425.00    1.26047   1.31741   -1.000
 4426.00    1.25909   1.31843   -1.000
 4427.00    1.25947   1.32477   -1.000
 4428.00    1.27766   1.33085   -1.000
 4429.00    1.27082   1.33038   -1.000
 4430.00    1.25814   1.32670   -1.000
 4431.00    1.25970   1.32480   -1.000
 4432.00    1.27224   1.31801   -1.000
 4433.00    1.25735   1.28755   -1.000
 4434.00    1.21131   1.24637   -1.000
 4435.00    1.18352   1.23724   -1.000
 4436.00    1.21872   1.28101   -1.000
 4437.00    1.29857   1.35656   -1.000
 4438.00    1.36881   1.41111   -1.000
 4439.00    1.38784   1.41961   -1.000
 4440.00    1.36954   1.38098  157.318
 4441.00    1.30586   1.32199  164.997
 4442.00    1.25074   1.28353   -1.000
 4443.00    1.24125   1.29432   -1.000
 4444.00    1.27957   1.34799   -1.000
 4445.00    1.34716   1.40315   -1.000
 4446.00    1.39680   1.43387   -1.000
 4447.00    1.39636   1.43867   -1.000
 4448.00    1.38675   1.43479   -1.000
 4449.00    1.38849   1.43104   -1.000
 4450.00    1.37168   1.42376   -1.000
 4451.00    1.36776   1.40902   -1.000
 4452.00    1.36849   1.37896  159.344
 4453.00    1.33238   1.32623  165.395
 4454.00    1.27284   1.26726  173.115
 4455.00    1.23088   1.23709  176.583
 4456.00    1.23952   1.24018  173.419
 4457.00    1.26306   1.25693  170.324
 4458.00    1.26714   1.26438  170.517
 4459.00    1.26040   1.26021  171.424
 4460.00    1.24566   1.25785  173.255
 4461.00    1.23410   1.26820   -1.000
 4462.00    1.25221   1.29809   -1.000
 4463.00    1.30810   1.34072   -1.000
 4464.00    1.35279   1.37416   -1.000
 4465.00    1.36288   1.38621   -1.000
 4466.00    1.36456   1.37966  160.520
 4467.00    1.36033   1.36602  162.405
 4468.00    1.33349   1.35391   -1.000
 4469.00    1.31560   1.35257   -1.000
 4470.00    1.32934   1.37355   -1.000
 4471.00    1.35696   1.41417   -1.000
 4472.00    1.40458   1.45615   -1.000
 4473.00    1.45491   1.48868   -1.000
 4474.00    1.47809   1.50459   -1.000
 4475.00    1.47719   1.51394   -1.000
 4476.00    1.49637   1.52592   -1.000
 4477.00    1.51935   1.52912  146.142
 4478.00    1.50768   1.50409  147.521
 4479.00    1.45763   1.44887  153.127
 4480.00    1.38277   1.38666  160.153
 4481.00    1.33096   1.35831   -1.000
 4482.00    1.33864   1.38020   -1.000
 4483.00    1.39231   1.43779   -1.000
 4484.00    1.46045   1.49945   -1.000
 4485.00    1.50333   1.54038   -1.000
 4486.00    1.51515   1.54185   -1.000
 4487.00    1.49639   1.50623  150.330
 4488.00    1.43787   1.45555   -1.000
 4489.00    1.38472   1.42470   -1.000
 4490.00    1.37894   1.42875   -1.000
 4491.00    1.41158   1.45523   -1.000
 4492.00    1.44483   1.47240   -1.000
 4493.00    1.44148   1.45911   -1.000
 4494.00    1.39618   1.43019   -1.000
 4495.00    1.35897   1.41751   -1.000
 4496.00    1.36748   1.43698   -1.000
 4497.00    1.40965   1.47354   -1.000
 4498.00    1.45383   1.50392   -1.000
 4499.00    1.47771   1.51633   -1.000
 4500.00    1.46170   1.51337   -1.000
 4501.00    1.43840   1.51667   -1.000
 4502.00    1.45462   1.54141   -1.000
 4503.00    1.52180   1.57924   -1.000
 4504.00    1.57668   1.61564   -1.000
 4505.00    1.58036   1.62913   -1.000
 4506.00    1.57517   1.61780   -1.000
 4507.00    1.56370   1.59896   -1.000
 4508.00    1.54974   1.58996   -1.000
 4509.00    1.56158   1.59323   -1.000
 4510.00    1.57523   1.59802   -1.000
 4511.00    1.56243   1.59045   -1.000
 4512.00    1.53467   1.56739   -1.000
 4513.00    1.49953   1.54118   -1.000
 4514.00    1.47872   1.52291   -1.000
 4515.00    1.48437   1.51632   -1.000
 4516.00    1.49389   1.51846   -1.000
 4517.00    1.48290   1.51880   -1.000
 4518.00    1.46960   1.51831   -1.000
 4519.00    1.48654   1.52905   -1.000
 4520.00    1.52802   1.54751   -1.000
 4521.00    1.53833   1.55811   -1.000
 4522.00    1.51328   1.54784   -1.000
 4523.00    1.47671   1.52039   -1.000
 4524.00    1.45507   1.48942   -1.000
 4525.00    1.43469   1.45544   -1.000
 4526.00    1.37951   1.41161   -1.000
 4527.00    1.34330   1.36467   -1.000
 4528.00    1.31879   1.33209  169.219
 4529.00    1.31814   1.32837  167.915
 4530.00    1.33272   1.34932   -1.000
 4531.00    1.36226   1.37815   -1.000
 4532.00    1.38553   1.39250  161.150
 4533.00    1.37706   1.38435  165.807
 4534.00    1.33639   1.36966   -1.000
 4535.00    1.32452   1.37736   -1.000
 4536.00    1.37578   1.42454   -1.000
 4537.00    1.47467   1.49336   -1.000
 4538.00    1.53476   1.54592  145.910
 4539.00    1.53451   1.55671   -1.000
 4540.00    1.49761   1.53864   -1.000
 4541.00    1.48097   1.52220   -1.000
 4542.00    1.49737   1.52307   -1.000
 4543.00    1.50187   1.52989   -1.000
 4544.00    1.47239   1.52585   -1.000
 4545.00    1.51212   1.51073   69.298
 4546.00    0.53206   1.49705   -1.000
 4547.00   -0.03897   1.48554    0.000
 4548.00   -0.03361   1.46899    0.000
 4549.00    0.93793   1.45456   -1.000
 4550.00    0.56947   1.45769   -1.000
 4551.00    0.78109   1.47671   -1.000
 4552.00    1.51222   1.48730   -1.000
 4553.00    1.43718   1.47710   -1.000
 4554.00    1.42538   1.46281   -1.000
 4555.00    1.42754   1.46648   -1.000
 4556.00    1.47363   1.49996   -1.000
 4557.00    1.53162   1.55219   -1.000
 4558.00    1.56864   1.59614   -1.000
 4559.00    1.58359   1.61978   -1.000
 4560.00    1.58102   1.62752   -1.000
 4561.00    1.58221   1.62335   -1.000
 4562.00    1.57160   1.60592   -1.000
 4563.00    1.52693   1.57279   -1.000
 4564.00    1.47785   1.53848   -1.000
 4565.00    1.46459   1.52543   -1.000
 4566.00    1.50174   1.54554   -1.000
 4567.00    1.55723   1.58639   -1.000
 4568.00    1.58900   1.61729   -1.000
 4569.00    1.58692   1.61768   -1.000
 4570.00    1.54887   1.59199   -1.000
 4571.00    1.49558   1.56215   -1.000
 4572.00    1.49956   1.55437   -1.000
 4573.00    1.54862   1.57715   -1.000
 4574.00    1.57829   1.60863   -1.000
 4575.00    1.58035   1.62394   -1.000
 4576.00    1.57312   1.62133   -1.000
 4577.00    1.56318   1.60699   -1.000
 4578.00    1.54589   1.57918   -1.000
 4579.00    1.50157   1.53936   -1.000
 4580.00    1.45727   1.50372   -1.000
 4581.00    1.45702   1.48852   -1.000
 4582.00    1.46916   1.49555   -1.000
 4583.00    1.48397   1.50988   -1.000
 4584.00    1.48978   1.51605   -1.000
 4585.00    1.48426   1.51396   -1.000
 4586.00    1.49330   1.52224   -1.000
 4587.00    1.52620   1.54973   -1.000
 4588.00    1.56652   1.58498   -1.000
 4589.00    1.58820   1.60793   -1.000
 4590.00    1.57469   1.60553   -1.000
 4591.00    1.53466   1.58193   -1.000
 4592.00    1.51502   1.55458   -1.000
 4593.00    1.50579   1.53919   -1.000
 4594.00    1.50784   1.53681   -1.000
 4595.00    1.50981   1.54052   -1.000
 4596.00    1.51652   1.54661   -1.000
 4597.00    1.52560   1.55560   -1.000
 4598.00    1.53189   1.56406   -1.000
 4599.00    1.53432   1.56556   -1.000
 4600.00    1.51898   1.56037   -1.000
 4601.00    1.50685   1.55455   -1.000
 4602.00    1.51674   1.55420   -1.000
 4603.00    1.53769   1.55739   -1.000
 4604.00    1.54549   1.56118  148.325
 4605.00    1.54618   1.56869   -1.000
 4606.00    1.56111   1.58692   -1.000
 4607.00    1.59419   1.61892   -1.000
 4608.00    1.63698   1.65715   -1.000
 4609.00    1.66571   1.68535   -1.000
 4610.00    1.66345   1.68710   -1.000
 4611.00    1.63515   1.66693   -1.000
 4612.00    1.61313   1.64625   -1.000
 4613.00    1.60607   1.63707   -1.000
 4614.00    1.61572   1.64114   -1.000
 4615.00    1.62205   1.65194   -1.000
 4616.00    1.62541   1.65993   -1.000
 4617.00    1.62562   1.66104   -1.000
 4618.00    1.62061   1.65785   -1.000
 4619.00    1.60493   1.65650   -1.000
 4620.00    1.61897   1.66286   -1.000
 4621.00    1.64938   1.67653   -1.000
 4622.00    1.65404   1.68660   -1.000
 4623.00    1.64256   1.68469   -1.000
 4624.00    1.63761   1.67680   -1.000
 4625.00    1.63606   1.66994   -1.000
 4626.00    1.63765   1.66339   -1.000
 4627.00    1.64290   1.66055  141.702
 4628.00    1.63770   1.66126   -1.000
 4629.00    1.62497   1.66428   -1.000
 4630.00    1.63228   1.67007   -1.000
 4631.00    1.65653   1.67800   -1.000
 4632.00    1.64822   1.67814   -1.000
 4633.00    1.62426   1.66287   -1.000
 4634.00    1.61336   1.64332   -1.000
 4635.00    1.60930   1.63032   -1.000
 4636.00    1.59727   1.61983   -1.000
 4637.00    1.58012   1.60540   -1.000
 4638.00    1.55839   1.59193   -1.000
 4639.00    1.55749   1.58780   -1.000
 4640.00    1.58843   1.59835  145.671
 4641.00    1.62388   1.62026  142.073
 4642.00    1.65049   1.64047  140.147
 4643.00    1.65693   1.64083  140.759
 4644.00    1.62732   1.61625  143.428
 4645.00    1.58733   1.57789  147.511
 4646.00    1.54141   1.53659  151.601
 4647.00    1.51321   1.51162  152.194
 4648.00    1.52114   1.52114  149.438
 4649.00    1.56510   1.55851  145.918
 4650.00    1.60581   1.60213  143.940
 4651.00    1.61563   1.63251  143.718
 4652.00    1.63001   1.64363  143.419
 4653.00    1.62172   1.63715  145.164
 4654.00    1.59532   1.61683   -1.000
 4655.00    1.56050   1.59883   -1.000
 4656.00    1.55624   1.60237   -1.000
 4657.00    1.58531   1.63485   -1.000
 4658.00    1.65380   1.68772   -1.000
 4659.00    1.70787   1.73632   -1.000
 4660.00    1.73207   1.75415   -1.000
 4661.00    1.69834   1.73802   -1.000
 4662.00    1.65852   1.70179   -1.000
 4663.00    1.62776   1.66165   -1.000
 4664.00    1.60833   1.62443  143.579
 4665.00    1.58533   1.58249  145.977
 4666.00    1.52689   1.53117  152.351
 4667.00    1.45492   1.48650   -1.000
 4668.00    1.43156   1.47606   -1.000
 4669.00    1.47440   1.51086   -1.000
 4670.00    1.56159   1.56935  147.316
 4671.00    1.61445   1.61979  143.365
 4672.00    1.63304   1.64440  142.565
 4673.00    1.63244   1.64963  142.694
 4674.00    1.63091   1.65452   -1.000
 4675.00    1.64618   1.66827   -1.000
 4676.00    1.67998   1.68189  138.522
 4677.00    1.69138   1.67562  139.269
 4678.00    1.65498   1.64791  142.350
 4679.00    1.60757   1.61369  145.166
 4680.00    1.57915   1.58902  147.559
 4681.00    1.57530   1.58110  148.969
 4682.00    1.58818   1.58954  147.056
 4683.00    1.62148   1.61089  143.296
 4684.00    1.66331   1.63280   -1.000
 4685.00    1.66945   1.64443   -1.000
 4686.00    1.64939   1.64541  142.020
 4687.00    1.64299   1.64124  142.849
 4688.00    1.64754   1.63735  142.842
 4689.00    1.64402   1.63519  142.856
 4690.00    1.63668   1.63400  143.908
 4691.00    1.63420   1.63137  144.195
 4692.00    1.63821   1.63356  142.446
 4693.00    1.66227   1.64577  140.312
 4694.00    1.69136   1.66342   -1.000
 4695.00    1.71722   1.67798   -1.000
 4696.00    1.72220   1.68118   -1.000
 4697.00    1.69108   1.66412   -1.000
 4698.00    1.63846   1.63067  144.398
 4699.00    1.60022   1.59856  146.036
 4700.00    1.60412   1.57756   -1.000
 4701.00    1.59997   1.56464   -1.000
 4702.00    1.57701   1.55572  148.558
 4703.00    1.56266   1.55771  149.300
 4704.00    1.58242   1.57653  146.399
 4705.00    1.61850   1.59776  144.246
 4706.00    1.60824   1.60079  146.336
 4707.00    1.58751   1.58572  149.306
 4708.00    1.55976   1.57268  150.722
 4709.00    1.55297   1.57923   -1.000
 4710.00    1.59288   1.60318  145.403
 4711.00    1.64969   1.63024  141.415
 4712.00    1.67215   1.64663   -1.000
 4713.00    1.66555   1.64311  141.452
 4714.00    1.64398   1.63205  144.167
 4715.00    1.62804   1.63634  144.126
 4716.00    1.66133   1.66354  141.209
 4717.00    1.70197   1.70158  138.491
 4718.00    1.71695   1.73206  137.666
 4719.00    1.72433   1.74968   -1.000
 4720.00    1.72602   1.75561   -1.000
 4721.00    1.71644   1.75217   -1.000
 4722.00    1.70513   1.74563   -1.000
 4723.00    1.70642   1.74615   -1.000
 4724.00    1.71923   1.75236   -1.000
 4725.00    1.72189   1.74727   -1.000
 4726.00    1.67894   1.71791   -1.000
 4727.00    1.61393   1.66613   -1.000
 4728.00    1.57139   1.61593   -1.000
 4729.00    1.56884   1.59233   -1.000
 4730.00    1.58479   1.59717  146.631
 4731.00    1.60612   1.61868  145.484
 4732.00    1.63013   1.64498  143.716
 4733.00    1.64976   1.66762  142.477
 4734.00    1.67380   1.67840  141.675
 4735.00    1.68384   1.67847  140.886
 4736.00    1.66316   1.67665  142.446
 4737.00    1.65495   1.67944   -1.000
 4738.00    1.67993   1.69153  140.719
 4739.00    1.69434   1.70745  140.813
 4740.00    1.68330   1.71461   -1.000
 4741.00    1.66832   1.71325   -1.000
 4742.00    1.67754   1.71621   -1.000
 4743.00    1.70343   1.72451   -1.000
 4744.00    1.71352   1.73273   -1.000
 4745.00    1.71185   1.74045   -1.000
 4746.00    1.71402   1.75005   -1.000
 4747.00    1.72927   1.76328   -1.000
 4748.00    1.73730   1.77686   -1.000
 4749.00    1.73343   1.78693   -1.000
 4750.00    1.72947   1.79256   -1.000
 4751.00    1.72199   1.78751   -1.000
 4752.00    1.70877   1.76952   -1.000
 4753.00    1.68461   1.74398   -1.000
 4754.00    1.66397   1.72166   -1.000
 4755.00    1.65848   1.71250   -1.000
 4756.00    1.65522   1.71568   -1.000
 4757.00    1.65498   1.72645   -1.000
 4758.00    1.66451   1.74204   -1.000
 4759.00    1.68063   1.75719   -1.000
 4760.00    1.67732   1.76042   -1.000
 4761.00    1.65097   1.74263   -1.000
 4762.00    1.60387   1.70621   -1.000
 4763.00    1.58187   1.66708   -1.000
 4764.00    1.58023   1.64289   -1.000
 4765.00    1.57683   1.63032   -1.000
 4766.00    1.58717   1.62735   -1.000
 4767.00    1.61664   1.64461   -1.000
 4768.00    1.65385   1.68777   -1.000
 4769.00    1.69082   1.73446   -1.000
 4770.00    1.70935   1.75877   -1.000
 4771.00    1.69578   1.75536   -1.000
 4772.00    1.67514   1.74660   -1.000
 4773.00    1.68196   1.75502   -1.000
 4774.00    1.72156   1.78162   -1.000
 4775.00    1.74329   1.80946   -1.000
 4776.00    1.74653   1.82378   -1.000
 4777.00    1.74394   1.82618   -1.000
 4778.00    1.72880   1.82189   -1.000
 4779.00    1.71069   1.81175   -1.000
 4780.00    1.70094   1.79719   -1.000
 4781.00    1.69795   1.78229   -1.000
 4782.00    1.68749   1.76372   -1.000
 4783.00    1.67843   1.74304   -1.000
 4784.00    1.68239   1.73062   -1.000
 4785.00    1.67937   1.72679   -1.000
 4786.00    1.66162   1.72422   -1.000
 4787.00    1.65314   1.72160   -1.000
 4788.00    1.65661   1.72319   -1.000
 4789.00    1.66014   1.72823   -1.000
 4790.00    1.66458   1.73725   -1.000
 4791.00    1.68048   1.75591   -1.000
 4792.00    1.70339   1.78884   -1.000
 4793.00    1.73445   1.83022   -1.000
 4794.00    1.78218   1.86911   -1.000
 4795.00    1.80165   1.89276   -1.000
 4796.00    1.78182   1.88978   -1.000
 4797.00    1.75443   1.86243   -1.000
 4798.00    1.71262   1.82633   -1.000
 4799.00    1.68003   1.79763   -1.000
 4800.00    1.68728   1.79105   -1.000
 4801.00    1.72313   1.81151   -1.000
 4802.00    1.76291   1.84495   -1.000
 4803.00    1.77800   1.86514   -1.000
 4804.00    1.75709   1.85829   -1.000
 4805.00    1.72389   1.83324   -1.000
 4806.00    1.71153   1.80822   -1.000
 4807.00    1.70022   1.79332   -1.000
 4808.00    1.69980   1.79043   -1.000
 4809.00    1.71447   1.80111   -1.000
 4810.00    1.73541   1.81918   -1.000
 4811.00    1.74203   1.83362   -1.000
 4812.00    1.74279   1.83967   -1.000
 4813.00    1.75111   1.84305   -1.000
 4814.00    1.75283   1.84958   -1.000
 4815.00    1.76397   1.86151   -1.000
 4816.00    1.78245   1.87763   -1.000
 4817.00    1.79159   1.89362   -1.000
 4818.00    1.80378   1.90580   -1.000
 4819.00    1.80374   1.91343   -1.000
 4820.00    1.79924   1.91229   -1.000
 4821.00    1.79381   1.89398   -1.000
 4822.00    1.75512   1.85613   -1.000
 4823.00    1.71609   1.81030   -1.000
 4824.00    1.69115   1.78148   -1.000
 4825.00    1.72302   1.79070   -1.000
 4826.00    1.76495   1.82233   -1.000
 4827.00    1.77036   1.84170   -1.000
 4828.00    1.75190   1.83929   -1.000
 4829.00    1.74081   1.82856   -1.000
 4830.00    1.73346   1.81930   -1.000
 4831.00    1.72270   1.80482   -1.000
 4832.00    1.71086   1.78998   -1.000
 4833.00    1.72614   1.79074   -1.000
 4834.00    1.75691   1.80911   -1.000
 4835.00    1.76950   1.83364   -1.000
 4836.00    1.76457   1.84719   -1.000
 4837.00    1.75903   1.84469   -1.000
 4838.00    1.74157   1.82831   -1.000
 4839.00    1.71133   1.80291   -1.000
 4840.00    1.69385   1.78113   -1.000
 4841.00    1.70156   1.77245   -1.000
 4842.00    1.71156   1.77542   -1.000
 4843.00    1.71313   1.78252   -1.000
 4844.00    1.72905   1.79608   -1.000
 4845.00    1.76015   1.82116   -1.000
 4846.00    1.78088   1.84333   -1.000
 4847.00    1.76646   1.84162   -1.000
 4848.00    1.72493   1.82035   -1.000
 4849.00    1.71214   1.80584   -1.000
 4850.00    1.73817   1.81101   -1.000
 4851.00    1.75337   1.82358   -1.000
 4852.00    1.74535   1.82363   -1.000
 4853.00    1.72933   1.80014   -1.000
 4854.00    1.68596   1.75270   -1.000
 4855.00    1.62922   1.69952   -1.000
 4856.00    1.60891   1.66748   -1.000
 4857.00    1.62487   1.65742   -1.000
 4858.00    1.59809   1.63339   -1.000
 4859.00    1.50715   1.54986   -1.000
 4860.00    1.35582   1.42003   -1.000
 4861.00    1.25050   1.32144   -1.000
 4862.00    1.27530   1.31703   -1.000
 4863.00    1.39852   1.40497  165.521
 4864.00    1.51017   1.51881  155.750
 4865.00    1.57481   1.61249   -1.000
 4866.00    1.62132   1.67637   -1.000
 4867.00    1.64392   1.71730   -1.000
 4868.00    1.65382   1.73644   -1.000
 4869.00    1.65182   1.72854   -1.000
 4870.00    1.61527   1.68916   -1.000
 4871.00    1.55810   1.63378   -1.000
 4872.00    1.54006   1.60361   -1.000
 4873.00    1.58837   1.63348   -1.000
 4874.00    1.63183   1.69621   -1.000
 4875.00    1.64559   1.74583   -1.000
 4876.00    1.65873   1.76854   -1.000
 4877.00    1.67708   1.78237   -1.000
 4878.00    1.69836   1.80571   -1.000
 4879.00    1.72665   1.83480   -1.000
 4880.00    1.73258   1.85285   -1.000
 4881.00    1.70010   1.84620   -1.000
 4882.00    1.68601   1.82449   -1.000
 4883.00    1.69369   1.81035   -1.000
 4884.00    1.68225   1.79693   -1.000
 4885.00    1.64872   1.77056   -1.000
 4886.00    1.62851   1.74292   -1.000
 4887.00    1.63867   1.73211   -1.000
 4888.00    1.64953   1.73141   -1.000
 4889.00    1.63636   1.71625   -1.000
 4890.00    1.60216   1.68104   -1.000
 4891.00    1.58455   1.65802   -1.000
 4892.00    1.62970   1.68830   -1.000
 4893.00    1.73358   1.77812   -1.000
 4894.00    1.82084   1.88783   -1.000
 4895.00    1.85757   1.96128   -1.000
 4896.00    1.87323   1.99079   -1.000
 4897.00    1.87560   1.99080   -1.000
 4898.00    1.85854   1.97341   -1.000
 4899.00    1.81786   1.94592   -1.000
 4900.00    1.79088   1.91992   -1.000
 4901.00    1.79184   1.90279   -1.000
 4902.00    1.78882   1.89013   -1.000
 4903.00    1.76809   1.87678   -1.000
 4904.00    1.77454   1.87577   -1.000
 4905.00    1.81265   1.90330   -1.000
 4906.00    1.83859   1.94085   -1.000
 4907.00    1.83516   1.94841   -1.000
 4908.00    1.80248   1.91593   -1.000
 4909.00    1.75086   1.86083   -1.000
 4910.00    1.71546   1.81393   -1.000
 4911.00    1.71777   1.79979   -1.000
 4912.00    1.74706   1.82432   -1.000
 4913.00    1.78095   1.86856   -1.000
 4914.00    1.81573   1.91008   -1.000
 4915.00    1.84520   1.93851   -1.000
 4916.00    1.85622   1.93782   -1.000
 4917.00    1.80205   1.88394   -1.000
 4918.00    1.69765   1.77886   -1.000
 4919.00    1.60178   1.66511   -1.000
 4920.00    1.55621   1.59551   -1.000
 4921.00    1.58703   1.60192  152.678
 4922.00    1.66496   1.66427  147.114
 4923.00    1.71284   1.73281   -1.000
 4924.00    1.72069   1.77325   -1.000
 4925.00    1.73750   1.80190   -1.000
 4926.00    1.78149   1.84323   -1.000
 4927.00    1.82580   1.89549   -1.000
 4928.00    1.85216   1.94362   -1.000
 4929.00    1.87469   1.97785   -1.000
 4930.00    1.88496   1.99420   -1.000
 4931.00    1.88274   1.98315   -1.000
 4932.00    1.84716   1.94107   -1.000
 4933.00    1.77931   1.88500   -1.000
 4934.00    1.75059   1.84834   -1.000
 4935.00    1.77917   1.84456   -1.000
 4936.00    1.79308   1.84907   -1.000
 4937.00    1.75181   1.82234   -1.000
 4938.00    1.69253   1.77030   -1.000
 4939.00    1.68216   1.74600   -1.000
 4940.00    1.74116   1.78097   -1.000
 4941.00    1.81813   1.85691   -1.000
 4942.00    1.86077   1.92991   -1.000
 4943.00    1.88004   1.96991   -1.000
 4944.00    1.89194   1.97986   -1.000
 4945.00    1.87642   1.97183   -1.000
 4946.00    1.85321   1.96149   -1.000
 4947.00    1.86581   1.96434   -1.000
 4948.00    1.89728   1.98483   -1.000
 4949.00    1.90557   2.00784   -1.000
 4950.00    1.90817   2.01878   -1.000
 4951.00    1.91619   2.01719   -1.000
 4952.00    1.90392   2.00682   -1.000
 4953.00    1.87974   1.99139   -1.000
 4954.00    1.87181   1.96729   -1.000
 4955.00    1.84198   1.91748   -1.000
 4956.00    1.75699   1.82547   -1.000
 4957.00    1.66025   1.72343   -1.000
 4958.00    1.65871   1.69097   -1.000
 4959.00    1.75737   1.75508  142.571
 4960.00    1.84939   1.86177  137.602
 4961.00    1.88360   1.93976   -1.000
 4962.00    1.87779   1.96581   -1.000
 4963.00    1.87179   1.95942   -1.000
 4964.00    1.85209   1.93321   -1.000
 4965.00    1.80148   1.89346   -1.000
 4966.00    1.77529   1.85743   -1.000
 4967.00    1.76906   1.83976   -1.000
 4968.00    1.77278   1.83916   -1.000
 4969.00    1.78061   1.85059   -1.000
 4970.00    1.79963   1.87215   -1.000
 4971.00    1.83109   1.90104   -1.000
 4972.00    1.85409   1.93284   -1.000
 4973.00    1.88141   1.95887   -1.000
 4974.00    1.89048   1.97288   -1.000
 4975.00    1.88723   1.97269   -1.000
 4976.00    1.87516   1.95930   -1.000
 4977.00    1.84285   1.93323   -1.000
 4978.00    1.80305   1.90140   -1.000
 4979.00    1.77948   1.87118   -1.000
 4980.00    1.76137   1.83891   -1.000
 4981.00    1.71508   1.78880   -1.000
 4982.00    1.64824   1.71991   -1.000
 4983.00    1.61935   1.66432   -1.000
 4984.00    1.63858   1.65893   -1.000
 4985.00    1.68745   1.70697   -1.000
 4986.00    1.75726   1.78161   -1.000
 4987.00    1.81358   1.85060   -1.000
 4988.00    1.83131   1.89298   -1.000
 4989.00    1.81632   1.89577   -1.000
 4990.00    1.79172   1.87606   -1.000
 4991.00    1.78866   1.86126   -1.000
 4992.00    1.80246   1.86326   -1.000
 4993.00    1.81750   1.87453   -1.000
 4994.00    1.82879   1.88419   -1.000
 4995.00    1.83550   1.89364   -1.000
 4996.00    1.84415   1.90688   -1.000
 4997.00    1.83578   1.91035   -1.000
 4998.00    1.81473   1.88818   -1.000
 4999.00    1.77981   1.84354   -1.000
 5000.00    1.74947   1.79508   -1.000
 5001.00    1.74713   1.76618  149.252
 5002.00    1.74940   1.76469  147.856
 5003.00    1.76461   1.77453  146.869
 5004.00    1.76724   1.76796  148.927
 5005.00    1.72191   1.73465  152.722
 5006.00    1.68319   1.70010  153.639
 5007.00    1.71245   1.70734  149.944
 5008.00    1.77999   1.76216  145.368
 5009.00    1.82184   1.82192  143.764
 5010.00    1.81468   1.84575   -1.000
 5011.00    1.77738   1.81876   -1.000
 5012.00    1.70804   1.75835   -1.000
 5013.00    1.65299   1.69731   -1.000
 5014.00    1.63860   1.66946   -1.000
 5015.00    1.67207   1.68018  155.083
 5016.00    1.70985   1.70669  151.825
 5017.00    1.72478   1.72623  151.141
 5018.00    1.72281   1.73622  151.168
 5019.00    1.74155   1.75215  149.473
 5020.00    1.76840   1.77260  148.238
 5021.00    1.77067   1.78087  148.868
 5022.00    1.75689   1.77894   -1.000
 5023.00    1.76367   1.78614   -1.000
 5024.00    1.79178   1.81515   -1.000
 5025.00    1.81243   1.84711   -1.000
 5026.00    1.80519   1.85164   -1.000
 5027.00    1.77653   1.83439   -1.000
 5028.00    1.78384   1.82564   -1.000
 5029.00    1.82343   1.84196  143.136
 5030.00    1.85529   1.87983   -1.000
 5031.00    1.87635   1.92367   -1.000
 5032.00    1.90751   1.96192   -1.000
 5033.00    1.93344   1.98057   -1.000
 5034.00    1.89999   1.96094   -1.000
 5035.00    1.82815   1.90606   -1.000
 5036.00    1.77610   1.85025   -1.000
 5037.00    1.76647   1.81898   -1.000
 5038.00    1.76013   1.79833   -1.000
 5039.00    1.71288   1.75077   -1.000
 5040.00    1.62673   1.67671   -1.000
 5041.00    1.58480   1.63106   -1.000
 5042.00    1.64467   1.66082   -1.000
 5043.00    1.75664   1.76017  147.286
 5044.00    1.85807   1.87918   -1.000
 5045.00    1.91632   1.96456   -1.000
 5046.00    1.98857   1.99953  132.945
 5047.00    1.73866   1.98359   -1.000
 5048.00    0.67067   1.92864   -1.000
 5049.00    0.14513   1.86053   -1.000
 5050.00    0.18975   1.81430   -1.000
 5051.00    1.45439   1.80431   -1.000
 5052.00    1.81853   1.82578  144.800
 5053.00    1.86137   1.87060  141.138
 5054.00    1.91071   1.92182  138.552
 5055.00    1.94314   1.95654  137.218
 5056.00    1.95344   1.97565   -1.000
 5057.00    1.94905   1.98800   -1.000
 5058.00    1.95446   1.99977   -1.000
 5059.00    1.95405   2.01511   -1.000
 5060.00    1.96593   2.03118   -1.000
 5061.00    1.97604   2.04255   -1.000
 5062.00    1.96678   2.03589   -1.000
 5063.00    1.93056   1.99265   -1.000
 5064.00    1.85310   1.92343   -1.000
 5065.00    1.79741   1.86705   -1.000
 5066.00    1.81944   1.84724   -1.000
 5067.00    1.84358   1.85640  145.003
 5068.00    1.85085   1.87186   -1.000
 5069.00    1.85877   1.88633   -1.000
 5070.00    1.88475   1.90094  142.892
 5071.00    1.88294   1.90459   -1.000
 5072.00    1.85585   1.89200   -1.000
 5073.00    1.86078   1.88097  143.413
 5074.00    1.88968   1.88816  142.281
 5075.00    1.89347   1.90419  142.083
 5076.00    1.88544   1.91322   -1.000
 5077.00    1.88370   1.90318  143.342
 5078.00    1.83887   1.86257   -1.000
 5079.00    1.75660   1.79537   -1.000
 5080.00    1.70788   1.74183   -1.000
 5081.00    1.72752   1.73602  153.991
 5082.00    1.77719   1.76462  150.693
 5083.00    1.81246   1.80185  148.659
 5084.00    1.84272   1.83668  145.852
 5085.00    1.88371   1.87460  143.347
 5086.00    1.90889   1.91065  142.313
 5087.00    1.91404   1.93435   -1.000
 5088.00    1.91712   1.94644   -1.000
 5089.00    1.92794   1.95487   -1.000
 5090.00    1.93598   1.96414   -1.000
 5091.00    1.94562   1.97866   -1.000
 5092.00    1.96853   2.00121   -1.000
 5093.00    1.99012   2.02400   -1.000
 5094.00    1.98706   2.02755   -1.000
 5095.00    1.97815   1.99800  140.137
 5096.00    1.91940   1.94227  143.170
 5097.00    1.86270   1.87895  146.645
 5098.00    1.80419   1.82668   -1.000
 5099.00    1.78792   1.80653  150.220
 5100.00    1.81978   1.83144  146.547
 5101.00    1.88721   1.88692  142.288
 5102.00    1.91943   1.93595  141.023
 5103.00    1.91789   1.94965   -1.000
 5104.00    1.89665   1.93695   -1.000
 5105.00    1.87982   1.91391   -1.000
 5106.00    1.85334   1.88649   -1.000
 5107.00    1.83065   1.85835   -1.000
 5108.00    1.82693   1.83669  148.959
 5109.00    1.82243   1.82977  148.003
 5110.00    1.83805   1.84296  146.939
 5111.00    1.87370   1.87489  144.826
 5112.00    1.90570   1.91532  143.049
 5113.00    1.92805   1.94723   -1.000
 5114.00    1.94426   1.97058   -1.000
 5115.00    1.96384   1.99262   -1.000
 5116.00    1.97545   2.01558   -1.000
 5117.00    1.99583   2.03405   -1.000
 5118.00    2.00851   2.04018   -1.000
 5119.00    1.99280   2.02908   -1.000
 5120.00    1.96052   2.00068   -1.000
 5121.00    1.91961   1.96028   -1.000
 5122.00    1.87633   1.91276   -1.000
 5123.00    1.82495   1.86384   -1.000
 5124.00    1.79377   1.82482   -1.000
 5125.00    1.80414   1.81106  151.123
 5126.00    1.83122   1.81907  150.381
 5127.00    1.84032   1.83051  149.483
 5128.00    1.83696   1.83517  149.697
 5129.00    1.83539   1.84043  149.565
 5130.00    1.83985   1.85620  147.613
 5131.00    1.87497   1.88307  145.088
 5132.00    1.91252   1.91030  143.907
 5133.00    1.92173   1.93071  142.536
 5134.00    1.93940   1.94710  141.279
 5135.00    1.96224   1.95885  140.914
 5136.00    1.94038   1.95351  143.456
 5137.00    1.88825   1.91836   -1.000
 5138.00    1.84139   1.87138   -1.000
 5139.00    1.82263   1.84395  149.519
 5140.00    1.84180   1.84319  148.170
 5141.00    1.85511   1.85093  149.272
 5142.00    1.83357   1.85147  151.719
 5143.00    1.82633   1.85246   -1.000
 5144.00    1.85514   1.86529  148.282
 5145.00    1.87217   1.87533  147.768
 5146.00    1.85688   1.86378  149.159
 5147.00    1.84411   1.84511  149.530
 5148.00    1.86125   1.84558  147.685
 5149.00    1.87726   1.86348  146.853
 5150.00    1.87459   1.87093  148.681
 5151.00    1.84619   1.85861  151.411
 5152.00    1.81452   1.84127   -1.000
 5153.00    1.80937   1.83231   -1.000
 5154.00    1.83660   1.84099  148.721
 5155.00    1.88236   1.87337  144.932
 5156.00    1.94164   1.92452  141.244
 5157.00    1.98998   1.97454  138.601
 5158.00    2.00957   2.00837  137.583
 5159.00    2.01486   2.02260  137.565
 5160.00    2.01642   2.02152  138.028
 5161.00    2.00522   2.00672  138.825
 5162.00    1.97839   1.97488  140.396
 5163.00    1.94803   1.92589   -1.000
 5164.00    1.90210   1.86103   -1.000
 5165.00    1.79232   1.76145   -1.000
 5166.00    1.62441   1.61765  177.183
 5167.00    1.48635   1.48322  189.121
 5168.00    1.46679   1.43854   -1.000
 5169.00    1.56161   1.49347   -1.000
 5170.00    1.63033   1.55220   -1.000
 5171.00    1.56902   1.52439   -1.000
 5172.00    1.44588   1.44652  195.957
 5173.00    1.44713   1.42603   -1.000
 5174.00    1.60277   1.52598   -1.000
 5175.00    1.78688   1.69335   -1.000
 5176.00    1.88600   1.82384   -1.000
 5177.00    1.92078   1.88875   -1.000
 5178.00    1.93299   1.90878   -1.000
 5179.00    1.92842   1.90248   -1.000
 5180.00    1.88707   1.85854   -1.000
 5181.00    1.79000   1.75079   -1.000
 5182.00    1.62290   1.58939   -1.000
 5183.00    1.45409   1.44771  197.049
 5184.00    1.43930   1.41886   -1.000
 5185.00    1.60049   1.52920   -1.000
 5186.00    1.80194   1.70157   -1.000
 5187.00    1.91150   1.83947   -1.000
 5188.00    1.93388   1.90477   -1.000
 5189.00    1.94513   1.92627  145.628
 5190.00    1.94178   1.91742   -1.000
 5191.00    1.88831   1.87210  151.938
 5192.00    1.81942   1.81359  156.144
 5193.00    1.81420   1.78945   -1.000
 5194.00    1.84337   1.80717   -1.000
 5195.00    1.87700   1.83797   -1.000
 5196.00    1.90406   1.86923   -1.000
 5197.00    1.93435   1.90766   -1.000
 5198.00    1.97052   1.95361  142.346
 5199.00    2.00544   1.99358  141.191
 5200.00    2.02566   2.01420  141.062
 5201.00    2.01826   2.01060  142.216
 5202.00    1.98979   1.98076  144.818
 5203.00    1.94024   1.92449  148.146
 5204.00    1.88208   1.84569   -1.000
 5205.00    1.82217   1.76642   -1.000
 5206.00    1.78824   1.71263   -1.000
 5207.00    1.78495   1.69365   -1.000
 5208.00    1.77701   1.69741   -1.000
 5209.00    1.79136   1.72217   -1.000
 5210.00    1.85269   1.78044   -1.000
 5211.00    1.93554   1.87003   -1.000
 5212.00    2.01558   1.96298   -1.000
 5213.00    2.05680   2.02228   -1.000
 5214.00    2.04101   2.02569  139.159
 5215.00    1.99556   1.98582  142.490
 5216.00    1.95783   1.94603  144.210
 5217.00    1.97762   1.94748   -1.000
 5218.00    2.01711   1.99177   -1.000
 5219.00    2.06808   2.05036  137.742
 5220.00    2.09053   2.09443  136.697
 5221.00    2.09559   2.11268  136.154
 5222.00    2.08588   2.09923  137.951
 5223.00    2.04269   2.05166  142.210
 5224.00    1.96160   1.97067  148.120
 5225.00    1.86184   1.86515  155.091
 5226.00    1.79077   1.77363   -1.000
 5227.00    1.79381   1.75036   -1.000
 5228.00    1.89094   1.81258   -1.000
 5229.00    1.99207   1.92349   -1.000
 5230.00    2.05883   2.01028   -1.000
 5231.00    2.06617   2.03038   -1.000
 5232.00    2.03567   1.99762   -1.000
 5233.00    1.98558   1.95287   -1.000
 5234.00    1.97434   1.94180   -1.000
 5235.00    2.00830   1.98019   -1.000
 5236.00    2.06462   2.04483  136.776
 5237.00    2.11250   2.10437  135.264
 5238.00    2.12697   2.13751  135.163
 5239.00    2.12593   2.14370  135.603
 5240.00    2.13208   2.13728  135.351
 5241.00    2.14194   2.12794  134.539
 5242.00    2.13897   2.12283  134.763
 5243.00    2.13505   2.12947  134.477
 5244.00    2.14839   2.14229  134.264
 5245.00    2.13278   2.13504  137.016
 5246.00    2.06485   2.09299   -1.000
 5247.00    2.00671   2.03662   -1.000
 5248.00    1.99825   1.99727  144.947
 5249.00    2.00211   1.98297  145.215
 5250.00    1.98625   1.98078  146.163
 5251.00    1.98340   1.98898  145.440
 5252.00    2.01796   2.00929  143.393
 5253.00    2.04161   2.02607  141.984
 5254.00    2.03714   2.02836  142.033
 5255.00    2.03761   2.03398  140.991
 5256.00    2.08323   2.07117  137.649
 5257.00    2.15391   2.13350  133.914
 5258.00    2.19653   2.18218  132.776
 5259.00    2.18814   2.18872  134.065
 5260.00    2.14180   2.14647  137.799
 5261.00    2.05597   2.06351  143.697
 5262.00    1.95708   1.95798  150.566
 5263.00    1.87258   1.85493   -1.000
 5264.00    1.81035   1.77435   -1.000
 5265.00    1.78909   1.73435   -1.000
 5266.00    1.81003   1.73986   -1.000
 5267.00    1.85951   1.76290   -1.000
 5268.00    1.85052   1.75444   -1.000
 5269.00    1.76800   1.70596   -1.000
 5270.00    1.75179   1.67597   -1.000
 5271.00    1.85598   1.73159   -1.000
 5272.00    1.97934   1.85013   -1.000
 5273.00    2.02947   1.93841   -1.000
 5274.00    2.02438   1.96686   -1.000
 5275.00    2.01287   1.97965   -1.000
 5276.00    2.05084   2.01837   -1.000
 5277.00    2.13476   2.08805   -1.000
 5278.00    2.19583   2.15245   -1.000
 5279.00    2.20129   2.17156   -1.000
 5280.00    2.15471   2.13825  136.898
 5281.00    2.09571   2.07815   -1.000
 5282.00    2.05396   2.02021   -1.000
 5283.00    2.02872   1.98988   -1.000
 5284.00    2.04666   2.01137   -1.000
 5285.00    2.13628   2.08641   -1.000
 5286.00    2.20647   2.17729   -1.000
 5287.00    2.24125   2.23370  131.135
 5288.00    2.25043   2.24926  131.866
 5289.00    2.24698   2.25111  131.832
 5290.00    2.25865   2.25792  131.042
 5291.00    2.26130   2.26322  130.775
 5292.00    2.25338   2.25647  131.566
 5293.00    2.23294   2.24236  132.824
 5294.00    2.20954   2.22125  134.602
 5295.00    2.17732   2.17717  138.305
 5296.00    2.09412   2.09933  143.670
 5297.00    2.00436   2.01377  147.493
 5298.00    1.98645   1.97111  146.472
 5299.00    2.03301   1.99304   -1.000
 5300.00    2.09470   2.04461   -1.000
 5301.00    2.12524   2.08756   -1.000
 5302.00    2.13732   2.11970  137.464
 5303.00    2.19451   2.16480   -1.000
 5304.00    2.25408   2.22326   -1.000
 5305.00    2.27871   2.26270  130.980
 5306.00    2.26254   2.26571  132.297
 5307.00    2.24568   2.25082  133.444
 5308.00    2.24494   2.24635  132.528
 5309.00    2.27761   2.26487  131.121
 5310.00    2.30257   2.28886  130.297
 5311.00    2.30755   2.29678  130.447
 5312.00    2.28988   2.28651  131.198
 5313.00    2.27021   2.26626  131.760
 5314.00    2.26104   2.24269   -1.000
 5315.00    2.24624   2.21680   -1.000
 5316.00    2.21781   2.19155   -1.000
 5317.00    2.20419   2.18123   -1.000
 5318.00    2.22869   2.19308   -1.000
 5319.00    2.24479   2.21275   -1.000
 5320.00    2.23762   2.22033  134.184
 5321.00    2.22892   2.20955   -1.000
 5322.00    2.20601   2.17939   -1.000
 5323.00    2.16146   2.13177   -1.000
 5324.00    2.12218   2.08385   -1.000
 5325.00    2.11073   2.04376   -1.000
 5326.00    2.08219   1.98898   -1.000
 5327.00    1.98090   1.89884   -1.000
 5328.00    1.87744   1.81774   -1.000
 5329.00    1.90228   1.82294   -1.000
 5330.00    2.03926   1.92757   -1.000
 5331.00    2.15244   2.05358   -1.000
 5332.00    2.19464   2.13087   -1.000
 5333.00    2.20952   2.16405   -1.000
 5334.00    2.23537   2.19258   -1.000
 5335.00    2.26457   2.22474   -1.000
 5336.00    2.25809   2.23964   -1.000
 5337.00    2.23673   2.22776  135.423
 5338.00    2.22128   2.19026   -1.000
 5339.00    2.17060   2.12917   -1.000
 5340.00    2.11430   2.06726   -1.000
 5341.00    2.10734   2.04798   -1.000
 5342.00    2.15917   2.08781   -1.000
 5343.00    2.21958   2.14795   -1.000
 5344.00    2.23889   2.18128   -1.000
 5345.00    2.22583   2.17820   -1.000
 5346.00    2.21149   2.15765   -1.000
 5347.00    2.20293   2.13627   -1.000
 5348.00    2.18120   2.11999   -1.000
 5349.00    2.16768   2.11621   -1.000
 5350.00    2.20149   2.13943   -1.000
 5351.00    2.26036   2.18683   -1.000
 5352.00    2.29491   2.23717   -1.000
 5353.00    2.30063   2.27180   -1.000
 5354.00    2.31833   2.29589   -1.000
 5355.00    2.34995   2.32313   -1.000
 5356.00    2.36808   2.34677   -1.000
 5357.00    2.37017   2.35686  128.334
 5358.00    2.37337   2.35491   -1.000
 5359.00    2.36206   2.34538  129.011
 5360.00    2.34173   2.32544  130.558
 5361.00    2.30491   2.29390  132.773
 5362.00    2.27015   2.25888  134.712
 5363.00    2.23417   2.22687  135.629
 5364.00    2.21550   2.19980  136.413
 5365.00    2.21165   2.17983   -1.000
 5366.00    2.21663   2.17000   -1.000
 5367.00    2.22292   2.16841   -1.000
 5368.00    2.21008   2.15150   -1.000
 5369.00    2.16133   2.09896   -1.000
 5370.00    2.08972   2.02585   -1.000
 5371.00    2.05514   1.97907   -1.000
 5372.00    2.11160   2.00360   -1.000
 5373.00    2.22747   2.09449   -1.000
 5374.00    2.31264   2.19941   -1.000
 5375.00    2.34621   2.26679   -1.000
 5376.00    2.34412   2.28659   -1.000
 5377.00    2.33574   2.28345   -1.000
 5378.00    2.33192   2.28047   -1.000
 5379.00    2.32471   2.27963   -1.000
 5380.00    2.31216   2.27056   -1.000
 5381.00    2.28699   2.24903   -1.000
 5382.00    2.27185   2.22493   -1.000
 5383.00    2.26445   2.21212   -1.000
 5384.00    2.28777   2.22019   -1.000
 5385.00    2.31448   2.24600   -1.000
 5386.00    2.32464   2.27193   -1.000
 5387.00    2.31464   2.27715   -1.000
 5388.00    2.28769   2.25660   -1.000
 5389.00    2.25552   2.21987   -1.000
 5390.00    2.23287   2.18166   -1.000
 5391.00    2.21582   2.15489   -1.000
 5392.00    2.20717   2.14126   -1.000
 5393.00    2.19702   2.13723   -1.000
 5394.00    2.19207   2.13392   -1.000
 5395.00    2.18179   2.11397   -1.000
 5396.00    2.13690   2.07468   -1.000
 5397.00    2.10624   2.04246   -1.000
 5398.00    2.14504   2.05168   -1.000
 5399.00    2.21409   2.10503   -1.000
 5400.00    2.24028   2.16318   -1.000
 5401.00    2.25401   2.19448   -1.000
 5402.00    2.24929   2.19087   -1.000
 5403.00    2.20165   2.14530   -1.000
 5404.00    2.10611   2.06202   -1.000
 5405.00    2.04921   1.98325   -1.000
 5406.00    2.05895   1.96534   -1.000
 5407.00    2.12082   2.00784   -1.000
 5408.00    2.16179   2.05721   -1.000
 5409.00    2.14281   2.07307   -1.000
 5410.00    2.14485   2.07321   -1.000
 5411.00    2.19955   2.10496   -1.000
 5412.00    2.27060   2.16607   -1.000
 5413.00    2.30286   2.21545   -1.000
 5414.00    2.29482   2.23443   -1.000
 5415.00    2.28500   2.24263   -1.000
 5416.00    2.29936   2.26544   -1.000
 5417.00    2.33170   2.29363   -1.000
 5418.00    2.33040   2.30292   -1.000
 5419.00    2.29155   2.28977  134.572
 5420.00    2.27497   2.27044  135.353
 5421.00    2.28998   2.25908   -1.000
 5422.00    2.29758   2.25035   -1.000
 5423.00    2.27842   2.23147   -1.000
 5424.00    2.25515   2.21460   -1.000
 5425.00    2.27102   2.22813   -1.000
 5426.00    2.32050   2.27146   -1.000
 5427.00    2.33739   2.29568   -1.000
 5428.00    2.28181   2.25447   -1.000
 5429.00    2.19830   2.17316   -1.000
 5430.00    2.16597   2.12100   -1.000
 5431.00    2.21649   2.12672   -1.000
 5432.00    2.23475   2.15196   -1.000
 5433.00    2.20531   2.14541   -1.000
 5434.00    2.17072   2.11322   -1.000
 5435.00    2.17021   2.10017   -1.000
 5436.00    2.20670   2.13273   -1.000
 5437.00    2.26713   2.20369   -1.000
 5438.00    2.33510   2.28235   -1.000
 5439.00    2.38456   2.34135   -1.000
 5440.00    2.41616   2.37174   -1.000
 5441.00    2.41239   2.38492   -1.000
 5442.00    2.41372   2.38778   -1.000
 5443.00    2.38833   2.37091   -1.000
 5444.00    2.33198   2.31817   -1.000
 5445.00    2.23830   2.22772  140.913
 5446.00    2.15149   2.13487   -1.000
 5447.00    2.14232   2.09382   -1.000
 5448.00    2.20756   2.12742   -1.000
 5449.00    2.29252   2.20800   -1.000
 5450.00    2.33798   2.27468   -1.000
 5451.00    2.34916   2.29872   -1.000
 5452.00    2.33303   2.28736   -1.000
 5453.00    2.29465   2.24444   -1.000
 5454.00    2.22816   2.17588   -1.000
 5455.00    2.16886   2.11240   -1.000
 5456.00    2.19085   2.10205   -1.000
 5457.00    2.27699   2.16550   -1.000
 5458.00    2.34800   2.25621   -1.000
 5459.00    2.36959   2.30803   -1.000
 5460.00    2.34978   2.30372   -1.000
 5461.00    2.31259   2.26162   -1.000
 5462.00    2.27122   2.21211   -1.000
 5463.00    2.24539   2.18488   -1.000
 5464.00    2.26790   2.19422   -1.000
 5465.00    2.31024   2.22753   -1.000
 5466.00    2.32833   2.26080   -1.000
 5467.00    2.33705   2.28217   -1.000
 5468.00    2.35217   2.29255   -1.000
 5469.00    2.35152   2.29143   -1.000
 5470.00    2.33313   2.27863   -1.000
 5471.00    2.31916   2.26118   -1.000
 5472.00    2.30935   2.24563   -1.000
 5473.00    2.28995   2.22891   -1.000
 5474.00    2.26016   2.19921   -1.000
 5475.00    2.23245   2.15075   -1.000
 5476.00    2.17528   2.10098   -1.000
 5477.00    2.16000   2.08805   -1.000
 5478.00    2.23192   2.13109   -1.000
 5479.00    2.29642   2.19042   -1.000
 5480.00    2.28845   2.21345   -1.000
 5481.00    2.24153   2.19656   -1.000
 5482.00    2.23939   2.18501   -1.000
 5483.00    2.26723   2.21490   -1.000
 5484.00    2.31794   2.26986   -1.000
 5485.00    2.34645   2.30808   -1.000
 5486.00    2.33159   2.30511   -1.000
 5487.00    2.28344   2.27233  138.376
 5488.00    2.27078   2.24381   -1.000
 5489.00    2.28890   2.24264   -1.000
 5490.00    2.30754   2.26477   -1.000
 5491.00    2.33311   2.28520   -1.000
 5492.00    2.34890   2.29227   -1.000
 5493.00    2.33944   2.28956   -1.000
 5494.00    2.33460   2.28672   -1.000
 5495.00    2.35228   2.28472   -1.000
 5496.00    2.34376   2.27504   -1.000
 5497.00    2.32236   2.26302   -1.000
 5498.00    2.33752   2.26560   -1.000
 5499.00    2.37482   2.28052   -1.000
 5500.00    2.37653   2.28269   -1.000
 5501.00    2.33346   2.25706   -1.000
 5502.00    2.30873   2.22610   -1.000
 5503.00    2.32413   2.22033   -1.000
 5504.00    2.33210   2.22687   -1.000
 5505.00    2.31155   2.21936   -1.000
 5506.00    2.27509   2.19971   -1.000
 5507.00    2.27410   2.19496   -1.000
 5508.00    2.31863   2.22238   -1.000
 5509.00    2.34388   2.25781   -1.000
 5510.00    2.33312   2.26404   -1.000
 5511.00    2.29807   2.23393   -1.000
 5512.00    2.25236   2.18948   -1.000
 5513.00    2.23394   2.15985   -1.000
 5514.00    2.25773   2.16187   -1.000
 5515.00    2.29050   2.18875   -1.000
 5516.00    2.33641   2.22694   -1.000
 5517.00    2.37075   2.26954   -1.000
 5518.00    2.41253   2.31236   -1.000
 5519.00    2.43631   2.34593   -1.000
 5520.00    2.44045   2.35863   -1.000
 5521.00    2.42994   2.35493   -1.000
 5522.00    2.41950   2.35038   -1.000
 5523.00    2.40738   2.34967   -1.000
 5524.00    2.39883   2.34317   -1.000
 5525.00    2.36894   2.31572   -1.000
 5526.00    2.32414   2.26294   -1.000
 5527.00    2.26980   2.19897   -1.000
 5528.00    2.24080   2.15786   -1.000
 5529.00    2.26831   2.17352   -1.000
 5530.00    2.34107   2.23532   -1.000
 5531.00    2.38987   2.29601   -1.000
 5532.00    2.39064   2.31963   -1.000
 5533.00    2.36843   2.31151   -1.000
 5534.00    2.34042   2.29402   -1.000
 5535.00    2.33239   2.28232   -1.000
 5536.00    2.34886   2.28322   -1.000
 5537.00    2.36871   2.29596   -1.000
 5538.00    2.37965   2.31221   -1.000
 5539.00    2.41485   2.33055   -1.000
 5540.00    2.44796   2.35316   -1.000
 5541.00    2.45341   2.36732   -1.000
 5542.00    2.42478   2.35998   -1.000
 5543.00    2.39262   2.33877   -1.000
 5544.00    2.38927   2.32305   -1.000
 5545.00    2.39258   2.32176   -1.000
 5546.00    2.39893   2.33042   -1.000
 5547.00    2.42021   2.34664   -1.000
 5548.00    2.45583   2.37335   -1.000
 5549.00    2.48101   2.40022   -1.000
 5550.00    2.48752   2.41311   -1.000
 5551.00    2.48396   2.41004   -1.000
 5552.00    2.46743   2.39298   -1.000
 5553.00    2.43593   2.36753   -1.000
 5554.00    2.41095   2.34773   -1.000
 5555.00    2.42099   2.34329   -1.000
 5556.00    2.42930   2.34990   -1.000
 5557.00    2.42951   2.35550   -1.000
 5558.00    2.43790   2.35725   -1.000
 5559.00    2.44215   2.36048   -1.000
 5560.00    2.43771   2.36083   -1.000
 5561.00    2.43136   2.34865   -1.000
 5562.00    2.41198   2.32691   -1.000
 5563.00    2.39151   2.30984   -1.000
 5564.00    2.38125   2.30211   -1.000
 5565.00    2.37248   2.29705   -1.000
 5566.00    2.37963   2.28911   -1.000
 5567.00    2.37646   2.28147   -1.000
 5568.00    2.38288   2.27913   -1.000
 5569.00    2.37901   2.28201   -1.000
 5570.00    2.38243   2.28684   -1.000
 5571.00    2.38923   2.28823   -1.000
 5572.00    2.36972   2.28234   -1.000
 5573.00    2.36729   2.27521   -1.000
 5574.00    2.39274   2.28448   -1.000
 5575.00    2.37095   2.31082   -1.000
 5576.00    2.27592   2.32965   -1.000
 5577.00    2.21602   2.33741   -1.000
 5578.00    2.29437   2.34883   -1.000
 5579.00    2.44450   2.36257   -1.000
 5580.00    2.48378   2.36849   -1.000
 5581.00    2.45642   2.36465   -1.000
 5582.00    2.43779   2.35462   -1.000
 5583.00    2.43548   2.34521   -1.000
 5584.00    2.42741   2.33049   -1.000
 5585.00    2.38151   2.29098   -1.000
 5586.00    2.30940   2.22131   -1.000
 5587.00    2.24836   2.14791   -1.000
 5588.00    2.22230   2.10968   -1.000
 5589.00    2.23933   2.11825   -1.000
 5590.00    2.28278   2.15884   -1.000
 5591.00    2.32208   2.20689   -1.000
 5592.00    2.33494   2.23803   -1.000
 5593.00    2.33559   2.24977   -1.000
 5594.00    2.34488   2.26098   -1.000
 5595.00    2.37162   2.28738   -1.000
 5596.00    2.41417   2.31742   -1.000
 5597.00    2.41308   2.32134   -1.000
 5598.00    2.35937   2.29017   -1.000
 5599.00    2.32935   2.24927   -1.000
 5600.00    2.32146   2.22109   -1.000
 5601.00    2.30616   2.20095   -1.000
 5602.00    2.29772   2.19337   -1.000
 5603.00    2.32191   2.22070   -1.000
 5604.00    2.39257   2.28630   -1.000
 5605.00    2.46593   2.36213   -1.000
 5606.00    2.49971   2.41741   -1.000
 5607.00    2.51404   2.44265   -1.000
 5608.00    2.50617   2.44672   -1.000
 5609.00    2.50632   2.44368   -1.000
 5610.00    2.51416   2.44556   -1.000
 5611.00    2.51590   2.45414   -1.000
 5612.00    2.51584   2.45071   -1.000
 5613.00    2.47822   2.40800   -1.000
 5614.00    2.39009   2.32140   -1.000
 5615.00    2.30156   2.23078   -1.000
 5616.00    2.30367   2.19403   -1.000
 5617.00    2.35810   2.22827   -1.000
 5618.00    2.41157   2.28774   -1.000
 5619.00    2.42725   2.32427   -1.000
 5620.00    2.44404   2.34381   -1.000
 5621.00    2.45665   2.36204   -1.000
 5622.00    2.45644   2.36416   -1.000
 5623.00    2.42251   2.33301   -1.000
 5624.00    2.36169   2.28404   -1.000
 5625.00    2.35587   2.25642   -1.000
 5626.00    2.38973   2.27552   -1.000
 5627.00    2.43094   2.32180   -1.000
 5628.00    2.46804   2.36698   -1.000
 5629.00    2.49414   2.40197   -1.000
 5630.00    2.51253   2.42552   -1.000
 5631.00    2.51943   2.43288   -1.000
 5632.00    2.51646   2.42402   -1.000
 5633.00    2.50545   2.40638   -1.000
 5634.00    2.48969   2.38547   -1.000
 5635.00    2.46238   2.36205   -1.000
 5636.00    2.43314   2.34110   -1.000
 5637.00    2.41694   2.32831   -1.000
 5638.00    2.41789   2.32734   -1.000
 5639.00    2.42526   2.33364   -1.000
 5640.00    2.42111   2.33426   -1.000
 5641.00    2.41264   2.32449   -1.000
 5642.00    2.41502   2.31946   -1.000
 5643.00    2.42639   2.32943   -1.000
 5644.00    2.44267   2.34459   -1.000
 5645.00    2.45896   2.35837   -1.000
 5646.00    2.46999   2.37038   -1.000
 5647.00    2.47217   2.37667   -1.000
 5648.00    2.46633   2.37433   -1.000
 5649.00    2.46771   2.36785   -1.000
 5650.00    2.47541   2.36787   -1.000
 5651.00    2.48899   2.38106   -1.000
 5652.00    2.50401   2.39484   -1.000
 5653.00    2.49136   2.39073   -1.000
 5654.00    2.46906   2.37166   -1.000
 5655.00    2.44235   2.35078   -1.000
 5656.00    2.41024   2.32522   -1.000
 5657.00    2.35210   2.28388   -1.000
 5658.00    2.29117   2.23605   -1.000
 5659.00    2.30321   2.21817   -1.000
 5660.00    2.36204   2.24577   -1.000
 5661.00    2.39861   2.28045   -1.000
 5662.00    2.38484   2.29463   -1.000
 5663.00    2.40084   2.30790   -1.000
 5664.00    2.43592   2.33765   -1.000
 5665.00    2.46156   2.36794   -1.000
 5666.00    2.45485   2.37646   -1.000
 5667.00    2.43289   2.36372   -1.000
 5668.00    2.42058   2.35091   -1.000
 5669.00    2.42949   2.35179   -1.000
 5670.00    2.43802   2.36376   -1.000
 5671.00    2.45687   2.38443   -1.000
 5672.00    2.48688   2.41247   -1.000
 5673.00    2.51633   2.43734   -1.000
 5674.00    2.53195   2.44874   -1.000
 5675.00    2.52635   2.44820   -1.000
 5676.00    2.53565   2.44611   -1.000
 5677.00    2.54589   2.44852   -1.000
 5678.00    2.53210   2.44684   -1.000
 5679.00    2.51536   2.43361   -1.000
 5680.00    2.50329   2.41237   -1.000
 5681.00    2.47428   2.38423   -1.000
 5682.00    2.44763   2.35175   -1.000
 5683.00    2.42672   2.33227   -1.000
 5684.00    2.43455   2.33868   -1.000
 5685.00    2.44563   2.35422   -1.000
 5686.00    2.43275   2.35461   -1.000
 5687.00    2.40245   2.34056   -1.000
 5688.00    2.39543   2.33161   -1.000
 5689.00    2.43300   2.34374   -1.000
 5690.00    2.47503   2.37613   -1.000
 5691.00    2.51307   2.41337   -1.000
 5692.00    2.53831   2.44051   -1.000
 5693.00    2.54195   2.45211   -1.000
 5694.00    2.53549   2.45202   -1.000
 5695.00    2.53388   2.44773   -1.000
 5696.00    2.52572   2.44060   -1.000
 5697.00    2.50368   2.42655   -1.000
 5698.00    2.48028   2.40349   -1.000
 5699.00    2.45094   2.37754   -1.000
 5700.00    2.41812   2.35361   -1.000
 5701.00    2.39636   2.33502   -1.000
 5702.00    2.39381   2.33358   -1.000
 5703.00    2.40668   2.35117   -1.000
 5704.00    2.42192   2.36841   -1.000
 5705.00    2.41348   2.36506   -1.000
 5706.00    2.38178   2.33621   -1.000
 5707.00    2.34850   2.29634   -1.000
 5708.00    2.31332   2.26116   -1.000
 5709.00    2.30182   2.23626   -1.000
 5710.00    2.31437   2.23017   -1.000
 5711.00    2.33311   2.24706   -1.000
 5712.00    2.37494   2.28543   -1.000
 5713.00    2.43604   2.34106   -1.000
 5714.00    2.49416   2.39328   -1.000
 5715.00    2.51780   2.42458   -1.000
 5716.00    2.52538   2.43994   -1.000
 5717.00    2.52871   2.45027   -1.000
 5718.00    2.53867   2.46034   -1.000
 5719.00    2.56189   2.47392   -1.000
 5720.00    2.57198   2.49174   -1.000
 5721.00    2.59012   2.50975   -1.000
 5722.00    2.59973   2.52390   -1.000
 5723.00    2.60234   2.53134   -1.000
 5724.00    2.59643   2.52819   -1.000
 5725.00    2.57302   2.50963   -1.000
 5726.00    2.54275   2.48002   -1.000
 5727.00    2.52476   2.45835   -1.000
 5728.00    2.53396   2.46046   -1.000
 5729.00    2.55267   2.47509   -1.000
 5730.00    2.54594   2.47823   -1.000
 5731.00    2.52827   2.46707   -1.000
 5732.00    2.53884   2.46199   -1.000
 5733.00    2.56519   2.47920   -1.000
 5734.00    2.58479   2.50684   -1.000
 5735.00    2.59411   2.52067   -1.000
 5736.00    2.58541   2.51627   -1.000
 5737.00    2.57572   2.50465   -1.000
 5738.00    2.56379   2.49870   -1.000
 5739.00    2.55103   2.50096   -1.000
 5740.00    2.55333   2.50278   -1.000
 5741.00    2.56093   2.49897   -1.000
 5742.00    2.55909   2.49262   -1.000
 5743.00    2.55024   2.49532   -1.000
 5744.00    2.56356   2.51078   -1.000
 5745.00    2.57898   2.52599   -1.000
 5746.00    2.57398   2.52292   -1.000
 5747.00    2.55514   2.50053   -1.000
 5748.00    2.53915   2.48436   -1.000
 5749.00    2.55511   2.49213   -1.000
 5750.00    2.58184   2.50661   -1.000
 5751.00    2.56018   2.49862   -1.000
 5752.00    2.51193   2.45921   -1.000
 5753.00    2.47578   2.41658   -1.000
 5754.00    2.47875   2.40610   -1.000
 5755.00    2.52403   2.43928   -1.000
 5756.00    2.57202   2.49455   -1.000
 5757.00    2.60624   2.53549   -1.000
 5758.00    2.61319   2.54561   -1.000
 5759.00    2.58819   2.52596   -1.000
 5760.00    2.55045   2.48633   -1.000
 5761.00    2.51164   2.44253   -1.000
 5762.00    2.48802   2.41603   -1.000
 5763.00    2.51022   2.42655   -1.000
 5764.00    2.54622   2.47337   -1.000
 5765.00    2.59576   2.52722   -1.000
 5766.00    2.61918   2.55932   -1.000
 5767.00    2.62103   2.56930   -1.000
 5768.00    2.62200   2.56715   -1.000
 5769.00    2.60781   2.55931   -1.000
 5770.00    2.59472   2.54942   -1.000
 5771.00    2.57320   2.53842   -1.000
 5772.00    2.55652   2.52448   -1.000
 5773.00    2.54525   2.51090   -1.000
 5774.00    2.54192   2.50383   -1.000
 5775.00    2.53480   2.50632   -1.000
 5776.00    2.53492   2.51893   -1.000
 5777.00    2.51856   2.52841  134.238
 5778.00    2.46696   2.51598   -1.000
 5779.00    2.38192   2.47549   -1.000
 5780.00    2.29938   2.41796   -1.000
 5781.00    2.28587   2.36697   -1.000
 5782.00    2.33298   2.34358  141.278
 5783.00    2.38430   2.34651   -1.000
 5784.00    2.41907   2.35317   -1.000
 5785.00    2.43942   2.35956   -1.000
 5786.00    2.47439   2.38419   -1.000
 5787.00    2.51898   2.42785   -1.000
 5788.00    2.54332   2.46701   -1.000
 5789.00    2.55359   2.48312   -1.000
 5790.00    2.55173   2.47771   -1.000
 5791.00    2.55037   2.47029   -1.000
 5792.00    2.56365   2.48132   -1.000
 5793.00    2.57290   2.51247   -1.000
 5794.00    2.56947   2.54540   -1.000
 5795.00    2.56262   2.56175  132.906
 5796.00    2.54737   2.55279  133.766
 5797.00    2.52453   2.52878  134.621
 5798.00    2.53960   2.51840   -1.000
 5799.00    2.59927   2.53917   -1.000
 5800.00    2.64884   2.57826   -1.000
 5801.00    2.67542   2.60588   -1.000
 5802.00    2.66269   2.60723   -1.000
 5803.00    2.63046   2.58555   -1.000
 5804.00    2.60561   2.55404   -1.000
 5805.00    2.58549   2.53225   -1.000
 5806.00    2.58236   2.52922   -1.000
 5807.00    2.60113   2.53895   -1.000
 5808.00    2.60870   2.55098   -1.000
 5809.00    2.61598   2.56189   -1.000
 5810.00    2.62895   2.57321   -1.000
 5811.00    2.63782   2.58142   -1.000
 5812.00    2.64402   2.58033   -1.000
 5813.00    2.63779   2.56837   -1.000
 5814.00    2.62670   2.54609   -1.000
 5815.00    2.60654   2.51975   -1.000
 5816.00    2.60314   2.50794   -1.000
 5817.00    2.62867   2.52599   -1.000
 5818.00    2.66000   2.56368   -1.000
 5819.00    2.67664   2.59624   -1.000
 5820.00    2.69148   2.60749   -1.000
 5821.00    2.68822   2.60239   -1.000
 5822.00    2.67976   2.59305   -1.000
 5823.00    2.68225   2.58867   -1.000
 5824.00    2.68901   2.59059   -1.000
 5825.00    2.69124   2.59420   -1.000
 5826.00    2.68841   2.59838   -1.000
 5827.00    2.68551   2.60251   -1.000
 5828.00    2.68691   2.60736   -1.000
 5829.00    2.68591   2.61220   -1.000
 5830.00    2.68548   2.61401   -1.000
 5831.00    2.69354   2.61180   -1.000
 5832.00    2.68988   2.60566   -1.000
 5833.00    2.68687   2.59520   -1.000
 5834.00    2.67952   2.58343   -1.000
 5835.00    2.67575   2.57806   -1.000
 5836.00    2.68300   2.58197   -1.000
 5837.00    2.68399   2.58651   -1.000
 5838.00    2.67557   2.58787   -1.000
 5839.00    2.67969   2.59404   -1.000
 5840.00    2.69366   2.60842   -1.000
 5841.00    2.69474   2.62493   -1.000
 5842.00    2.70016   2.63272   -1.000
 5843.00    2.70162   2.62751   -1.000
 5844.00    2.67937   2.61297   -1.000
 5845.00    2.65951   2.59253   -1.000
 5846.00    2.64986   2.57028   -1.000
 5847.00    2.64176   2.55421   -1.000
 5848.00    2.63748   2.55078   -1.000
 5849.00    2.64644   2.55582   -1.000
 5850.00    2.63801   2.55452   -1.000
 5851.00    2.62043   2.53741   -1.000
 5852.00    2.59265   2.51097   -1.000
 5853.00    2.58277   2.49055   -1.000
 5854.00    2.58124   2.48283   -1.000
 5855.00    2.58112   2.47492   -1.000
 5856.00    2.56069   2.44719   -1.000
 5857.00    2.52172   2.40738   -1.000
 5858.00    2.52388   2.39170   -1.000
 5859.00    2.56114   2.41866   -1.000
 5860.00    2.59474   2.46495   -1.000
 5861.00    2.61573   2.49792   -1.000
 5862.00    2.61501   2.51106   -1.000
 5863.00    2.62815   2.51617   -1.000
 5864.00    2.63002   2.52158   -1.000
 5865.00    2.62462   2.51845   -1.000
 5866.00    2.60853   2.50388   -1.000
 5867.00    2.61237   2.49686   -1.000
 5868.00    2.64188   2.51381   -1.000
 5869.00    2.66901   2.54481   -1.000
 5870.00    2.67813   2.56926   -1.000
 5871.00    2.67675   2.57628   -1.000
 5872.00    2.66946   2.56891   -1.000
 5873.00    2.66572   2.55928   -1.000
 5874.00    2.66868   2.55565   -1.000
 5875.00    2.66374   2.55521   -1.000
 5876.00    2.66082   2.54852   -1.000
 5877.00    2.64922   2.53282   -1.000
 5878.00    2.63675   2.51242   -1.000
 5879.00    2.61227   2.49290   -1.000
 5880.00    2.59167   2.48108   -1.000
 5881.00    2.58762   2.48004   -1.000
 5882.00    2.59702   2.48207   -1.000
 5883.00    2.57968   2.47496   -1.000
 5884.00    2.55591   2.46311   -1.000
 5885.00    2.52478   2.45286   -1.000
 5886.00    2.43128   2.42118  138.342
 5887.00    2.21000   2.32556   -1.000
 5888.00    1.85916   2.15030   -1.000
 5889.00    1.54769   1.94937   -1.000
 5890.00    1.52506   1.83393   -1.000
 5891.00    1.75126   1.87100   -1.000
 5892.00    1.94882   1.99601   -1.000
 5893.00    1.95809   2.08336   -1.000
 5894.00    1.80523   2.07555   -1.000
 5895.00    1.66207   2.00387   -1.000
 5896.00    1.72559   1.96669   -1.000
 5897.00    1.96899   2.03448   -1.000
 5898.00    2.19712   2.16439   -1.000
 5899.00    2.33301   2.28037   -1.000
 5900.00    2.43699   2.36149   -1.000
 5901.00    2.52817   2.41915   -1.000
 5902.00    2.57626   2.45617   -1.000
 5903.00    2.59977   2.47516   -1.000
 5904.00    2.60738   2.48140   -1.000
 5905.00    2.60153   2.48104   -1.000
 5906.00    2.60229   2.48376   -1.000
 5907.00    2.61647   2.49428   -1.000
 5908.00    2.62093   2.50739   -1.000
 5909.00    2.61172   2.51857   -1.000
 5910.00    2.61123   2.52771   -1.000
 5911.00    2.61769   2.52997   -1.000
 5912.00    2.61027   2.51650   -1.000
 5913.00    2.57437   2.48438   -1.000
 5914.00    2.54407   2.44911   -1.000
 5915.00    2.53310   2.43400   -1.000
 5916.00    2.55240   2.44378   -1.000
 5917.00    2.57188   2.46827   -1.000
 5918.00    2.58613   2.49732   -1.000
 5919.00    2.59817   2.51903   -1.000
 5920.00    2.60448   2.52736   -1.000
 5921.00    2.60728   2.52463   -1.000
 5922.00    2.59812   2.51783   -1.000
 5923.00    2.59779   2.51713   -1.000
 5924.00    2.61304   2.52783   -1.000
 5925.00    2.62918   2.54373   -1.000
 5926.00    2.64437   2.55322   -1.000
 5927.00    2.64099   2.54536   -1.000
 5928.00    2.62070   2.52057   -1.000
 5929.00    2.61180   2.49553   -1.000
 5930.00    2.61264   2.48861   -1.000
 5931.00    2.62773   2.50525   -1.000
 5932.00    2.63667   2.52543   -1.000
 5933.00    2.63638   2.52699   -1.000
 5934.00    2.62185   2.51505   -1.000
 5935.00    2.62435   2.51354   -1.000
 5936.00    2.63496   2.53291   -1.000
 5937.00    2.64783   2.55537   -1.000
 5938.00    2.65652   2.56409   -1.000
 5939.00    2.65641   2.55718   -1.000
 5940.00    2.63720   2.53754   -1.000
 5941.00    2.60487   2.51585   -1.000
 5942.00    2.59430   2.50843   -1.000
 5943.00    2.61132   2.52048   -1.000
 5944.00    2.63493   2.54137   -1.000
 5945.00    2.64895   2.55720   -1.000
 5946.00    2.64176   2.55753   -1.000
 5947.00    2.61795   2.54018   -1.000
 5948.00    2.59961   2.51749   -1.000
 5949.00    2.59367   2.50987   -1.000
 5950.00    2.60549   2.51943   -1.000
 5951.00    2.61892   2.52610   -1.000
 5952.00    2.61823   2.51883   -1.000
 5953.00    2.61059   2.51018   -1.000
 5954.00    2.61807   2.51491   -1.000
 5955.00    2.62660   2.52157   -1.000
 5956.00    2.61242   2.51416   -1.000
 5957.00    2.60162   2.50473   -1.000
 5958.00    2.61948   2.51183   -1.000
 5959.00    2.65251   2.53639   -1.000
 5960.00    2.67574   2.56597   -1.000
 5961.00    2.69341   2.58633   -1.000
 5962.00    2.70380   2.59267   -1.000
 5963.00    2.70104   2.58790   -1.000
 5964.00    2.69167   2.57554   -1.000
 5965.00    2.66774   2.56192   -1.000
 5966.00    2.65376   2.55737   -1.000
 5967.00    2.66392   2.56654   -1.000
 5968.00    2.67644   2.58101   -1.000
 5969.00    2.68900   2.59396   -1.000
 5970.00    2.70154   2.60586   -1.000
 5971.00    2.70950   2.61405   -1.000
 5972.00    2.70742   2.61474   -1.000
 5973.00    2.69371   2.60633   -1.000
 5974.00    2.67206   2.58620   -1.000
 5975.00    2.64044   2.55558   -1.000
 5976.00    2.61557   2.52618   -1.000
 5977.00    2.60926   2.51278   -1.000
 5978.00    2.62623   2.52031   -1.000
 5979.00    2.64753   2.54359   -1.000
 5980.00    2.66430   2.56804   -1.000
 5981.00    2.67367   2.57482   -1.000
 5982.00    2.65394   2.55326   -1.000
 5983.00    2.61926   2.51490   -1.000
 5984.00    2.59577   2.48707   -1.000
 5985.00    2.60128   2.49129   -1.000
 5986.00    2.62966   2.51862   -1.000
 5987.00    2.65168   2.54483   -1.000
 5988.00    2.67160   2.56303   -1.000
 5989.00    2.67698   2.57452   -1.000
 5990.00    2.66829   2.57770   -1.000
 5991.00    2.67067   2.57797   -1.000
 5992.00    2.67829   2.58745   -1.000
 5993.00    2.70352   2.60900   -1.000
 5994.00    2.71262   2.62494   -1.000
 5995.00    2.70299   2.61761   -1.000
 5996.00    2.69150   2.59116   -1.000
 5997.00    2.66611   2.56395   -1.000
 5998.00    2.65978   2.55302   -1.000
 5999.00    2.66106   2.56117   -1.000
 6000.00    2.67395   2.57320   -1.000
 6001.00    2.67341   2.57529   -1.000
 6002.00    2.65925   2.56613   -1.000
 6003.00    2.64612   2.55822   -1.000
 6004.00    2.64572   2.56199   -1.000
 6005.00    2.64445   2.56166   -1.000
 6006.00    2.62542   2.54012   -1.000
 6007.00    2.59662   2.50884   -1.000
 6008.00    2.58874   2.49723   -1.000
 6009.00    2.60606   2.52223   -1.000
 6010.00    2.63334   2.56052   -1.000
 6011.00    2.65326   2.57472   -1.000
 6012.00    2.64216   2.56102   -1.000
 6013.00    2.63709   2.54254   -1.000
 6014.00    2.64365   2.53747   -1.000
 6015.00    2.64400   2.54105   -1.000
 6016.00    2.64234   2.54005   -1.000
 6017.00    2.63886   2.53787   -1.000
 6018.00    2.64069   2.53721   -1.000
 6019.00    2.62359   2.52770   -1.000
 6020.00    2.60880   2.51306   -1.000
 6021.00    2.62243   2.50995   -1.000
 6022.00    2.63755   2.52105   -1.000
 6023.00    2.64879   2.53749   -1.000
 6024.00    2.66300   2.55508   -1.000
 6025.00    2.67723   2.57604   -1.000
 6026.00    2.69416   2.59592   -1.000
 6027.00    2.70795   2.61072   -1.000
 6028.00    2.71382   2.62575   -1.000
 6029.00    2.73062   2.64069   -1.000
 6030.00    2.74007   2.64940   -1.000
 6031.00    2.73960   2.65407   -1.000
 6032.00    2.74482   2.66090   -1.000
 6033.00    2.75373   2.67408   -1.000
 6034.00    2.74912   2.69158   -1.000
 6035.00    2.73983   2.70109   -1.000
 6036.00    2.73908   2.69695   -1.000
 6037.00    2.73640   2.68517   -1.000
 6038.00    2.73236   2.67028   -1.000
 6039.00    2.72297   2.65587   -1.000
 6040.00    2.71404   2.64659   -1.000
 6041.00    2.72007   2.64763   -1.000
 6042.00    2.72235   2.65837   -1.000
 6043.00    2.73741   2.67346   -1.000
 6044.00    2.75582   2.68523   -1.000
 6045.00    2.75449   2.69082   -1.000
 6046.00    2.75998   2.69493   -1.000
 6047.00    2.76608   2.69927   -1.000
 6048.00    2.75898   2.70330   -1.000
 6049.00    2.77142   2.70621   -1.000
 6050.00    2.77762   2.70635   -1.000
 6051.00    2.77341   2.69995   -1.000
 6052.00    2.76576   2.68524   -1.000
 6053.00    2.75802   2.66506   -1.000
 6054.00    2.74490   2.64436   -1.000
 6055.00    2.71575   2.62658   -1.000
 6056.00    2.71180   2.61947   -1.000
 6057.00    2.72046   2.62830   -1.000
 6058.00    2.73548   2.64694   -1.000
 6059.00    2.74152   2.66446   -1.000
 6060.00    2.75833   2.67216   -1.000
 6061.00    2.74974   2.66601   -1.000
 6062.00    2.73354   2.64560   -1.000
 6063.00    2.82505   2.61408   -1.000
 6064.00    2.73049   2.58227   -1.000
 6065.00    2.66918   2.57128   -1.000
 6066.00    2.21225   2.59666   -1.000
 6067.00    0.85371   2.64329   -1.000
 6068.00    1.78396   2.68250   -1.000
 6069.00    2.70077   2.70399  136.232
 6070.00    2.66370   2.71468   -1.000
 6071.00    2.73469   2.72126   -1.000
 6072.00    2.92124   2.72443   -1.000
 6073.00    2.84186   2.72408   -1.000
 6074.00    2.78273   2.71965   -1.000
 6075.00    2.78033   2.70854   -1.000
 6076.00    2.76969   2.68949   -1.000
 6077.00    2.74179   2.66478   -1.000
 6078.00    2.70948   2.64111   -1.000
 6079.00    2.70104   2.62782   -1.000
 6080.00    2.70234   2.62195   -1.000
 6081.00    2.69495   2.61448   -1.000
 6082.00    2.67977   2.60794   -1.000
 6083.00    2.68058   2.60858   -1.000
 6084.00    2.69283   2.61270   -1.000
 6085.00    2.69758   2.61925   -1.000
 6086.00    2.70311   2.63102   -1.000
 6087.00    2.71104   2.64237   -1.000
 6088.00    2.71013   2.64281   -1.000
 6089.00    2.69686   2.62922   -1.000
 6090.00    2.68728   2.61169   -1.000
 6091.00    2.68310   2.60419   -1.000
 6092.00    2.68971   2.61132   -1.000
 6093.00    2.69942   2.62950   -1.000
 6094.00    2.71837   2.65121   -1.000
 6095.00    2.74815   2.66690   -1.000
 6096.00    2.75496   2.67284   -1.000
 6097.00    2.74793   2.67669   -1.000
 6098.00    2.74177   2.68316   -1.000
 6099.00    2.73533   2.67803   -1.000
 6100.00    2.71343   2.64279   -1.000
 6101.00    2.66117   2.57776   -1.000
 6102.00    2.60477   2.51603   -1.000
 6103.00    2.59507   2.50514   -1.000
 6104.00    2.64130   2.54879   -1.000
 6105.00    2.69690   2.60575   -1.000
 6106.00    2.73068   2.64243   -1.000
 6107.00    2.72235   2.66057   -1.000
 6108.00    2.71232   2.67380   -1.000
 6109.00    2.72433   2.68427   -1.000
 6110.00    2.72874   2.68522   -1.000
 6111.00    2.71915   2.68259   -1.000
 6112.00    2.72697   2.68793   -1.000
 6113.00    2.74687   2.70028   -1.000
 6114.00    2.75251   2.70812   -1.000
 6115.00    2.74161   2.70311   -1.000
 6116.00    2.72860   2.69259   -1.000
 6117.00    2.71871   2.68443   -1.000
 6118.00    2.71598   2.67073   -1.000
 6119.00    2.68289   2.63836   -1.000
 6120.00    2.64832   2.58609   -1.000
 6121.00    2.61369   2.53348   -1.000
 6122.00    2.60230   2.51328   -1.000
 6123.00    2.63581   2.53900   -1.000
 6124.00    2.67509   2.58636   -1.000
 6125.00    2.70792   2.62050   -1.000
 6126.00    2.70133   2.63217   -1.000
 6127.00    2.68036   2.63239   -1.000
 6128.00    2.67538   2.63701   -1.000
 6129.00    2.68979   2.65622   -1.000
 6130.00    2.71989   2.68408   -1.000
 6131.00    2.74522   2.70794   -1.000
 6132.00    2.73581   2.71542   -1.000
 6133.00    2.72058   2.69313   -1.000
 6134.00    2.66838   2.63034   -1.000
 6135.00    2.58939   2.53737   -1.000
 6136.00    2.51148   2.45557   -1.000
 6137.00    2.49034   2.43648   -1.000
 6138.00    2.54633   2.48532   -1.000
 6139.00    2.62998   2.55124   -1.000
 6140.00    2.67165   2.58781   -1.000
 6141.00    2.66869   2.60447   -1.000
 6142.00    2.67002   2.62838   -1.000
 6143.00    2.69358   2.66390   -1.000
 6144.00    2.72636   2.69392   -1.000
 6145.00    2.73309   2.70356   -1.000
 6146.00    2.72339   2.69434   -1.000
 6147.00    2.70482   2.67379   -1.000
 6148.00    2.67999   2.64993   -1.000
 6149.00    2.65782   2.63021   -1.000
 6150.00    2.65602   2.62214   -1.000
 6151.00    2.66356   2.63115   -1.000
 6152.00    2.67631   2.64642   -1.000
 6153.00    2.68441   2.64853   -1.000
 6154.00    2.67225   2.63344   -1.000
 6155.00    2.65290   2.61736   -1.000
 6156.00    2.64393   2.61116   -1.000
 6157.00    2.63460   2.60664   -1.000
 6158.00    2.60971   2.58650   -1.000
 6159.00    2.57335   2.53315   -1.000
 6160.00    2.50195   2.44469   -1.000
 6161.00    2.42220   2.35110   -1.000
 6162.00    2.38419   2.30179   -1.000
 6163.00    2.40257   2.32021   -1.000
 6164.00    2.45836   2.38215   -1.000
 6165.00    2.51938   2.44858   -1.000
 6166.00    2.54233   2.49054   -1.000
 6167.00    2.53529   2.49339   -1.000
 6168.00    2.51064   2.46130   -1.000
 6169.00    2.47353   2.43021   -1.000
 6170.00    2.47751   2.43911   -1.000
 6171.00    2.51274   2.48479   -1.000
 6172.00    2.55131   2.53237   -1.000
 6173.00    2.57222   2.56116  145.982
 6174.00    2.57842   2.57420  146.066
 6175.00    2.58215   2.57833  145.668
 6176.00    2.57973   2.58072  145.405
 6177.00    2.58166   2.58937  144.997
 6178.00    2.59938   2.60259  144.249
 6179.00    2.61652   2.61309  143.750
 6180.00    2.62449   2.62241  143.294
 6181.00    2.63554   2.63567  142.604
 6182.00    2.64187   2.64682  142.276
 6183.00    2.64485   2.64617  142.619
 6184.00    2.64234   2.63237  143.134
 6185.00    2.61726   2.60934  144.341
 6186.00    2.59192   2.58291  145.958
 6187.00    2.56869   2.55975  147.452
 6188.00    2.54521   2.54058  148.845
 6189.00    2.53296   2.51381   -1.000
 6190.00    2.50991   2.47740   -1.000
 6191.00    2.48838   2.45824   -1.000
 6192.00    2.50669   2.48118   -1.000
 6193.00    2.56073   2.53256   -1.000
 6194.00    2.60095   2.58138   -1.000
 6195.00    2.61763   2.61282  143.925
 6196.00    2.62824   2.62593  143.759
 6197.00    2.62403   2.61959  144.808
 6198.00    2.59733   2.59719  146.556
 6199.00    2.56334   2.57596  147.687
 6200.00    2.54512   2.57755   -1.000
 6201.00    2.55322   2.60086   -1.000
 6202.00    2.57076   2.62873   -1.000
 6203.00    2.57825   2.64931   -1.000
 6204.00    2.59890   2.66116   -1.000
 6205.00    2.62366   2.66834   -1.000
 6206.00    2.63636   2.67297   -1.000
 6207.00    2.64991   2.67532  144.098
 6208.00    2.65510   2.67234  144.014
 6209.00    2.64341   2.66128  144.732
 6210.00    2.62361   2.64086  146.123
 6211.00    2.59044   2.60757  147.230
 6212.00    2.55816   2.56153  148.714
 6213.00    2.51791   2.51490  151.069
 6214.00    2.49425   2.48555  152.493
 6215.00    2.49975   2.48275   -1.000
 6216.00    2.52004   2.49769   -1.000
 6217.00    2.53653   2.51125   -1.000
 6218.00    2.53999   2.50897   -1.000
 6219.00    2.53690   2.49822   -1.000
 6220.00    2.52522   2.49890   -1.000
 6221.00    2.54051   2.51560   -1.000
 6222.00    2.59050   2.53518   -1.000
 6223.00    2.46244   2.54697   -1.000
 6224.00    2.17808   2.55341   -1.000
 6225.00    2.55732   2.55930  148.795
 6226.00    2.59236   2.56202   -1.000
 6227.00    2.57491   2.55075   -1.000
 6228.00    2.55038   2.51604   -1.000
 6229.00    2.50416   2.46353   -1.000
 6230.00    2.46363   2.41968   -1.000
 6231.00    2.45858   2.41165   -1.000
 6232.00    2.48512   2.44456   -1.000
 6233.00    2.53550   2.50155   -1.000
 6234.00    2.58973   2.55664   -1.000
 6235.00    2.60679   2.58648   -1.000
 6236.00    2.59637   2.58420   -1.000
 6237.00    2.57299   2.56025   -1.000
 6238.00    2.54899   2.53045   -1.000
 6239.00    2.51934   2.50696  153.044
 6240.00    2.50028   2.49313  153.582
 6241.00    2.50221   2.48360   -1.000
 6242.00    2.48938   2.47035   -1.000
 6243.00    2.47349   2.45460   -1.000
 6244.00    2.47474   2.44536   -1.000
 6245.00    2.48565   2.44918   -1.000
 6246.00    2.50922   2.47089   -1.000
 6247.00    2.53210   2.50960   -1.000
 6248.00    2.56314   2.54906   -1.000
 6249.00    2.57686   2.56811  149.333
 6250.00    2.57105   2.55591   -1.000
 6251.00    2.52872   2.51822   -1.000
 6252.00    2.47417   2.47544  155.543
 6253.00    2.45154   2.44829  156.550
 6254.00    2.45812   2.43908   -1.000
 6255.00    2.45578   2.43393   -1.000
 6256.00    2.44381   2.42190   -1.000
 6257.00    2.41982   2.41045  159.793
 6258.00    2.42179   2.41665  158.937
 6259.00    2.46369   2.44629   -1.000
 6260.00    2.50720   2.49184   -1.000
 6261.00    2.54393   2.53880  152.017
 6262.00    2.56658   2.57470  149.628
 6263.00    2.58458   2.58931  149.020
 6264.00    2.58004   2.58506  150.346
 6265.00    2.56203   2.57819  151.308
 6266.00    2.55103   2.58237   -1.000
 6267.00    2.55661   2.59185   -1.000
 6268.00    2.55063   2.59281   -1.000
 6269.00    2.53720   2.58713   -1.000
 6270.00    2.53697   2.58712   -1.000
 6271.00    2.56284   2.59691   -1.000
 6272.00    2.57600   2.60826   -1.000
 6273.00    2.57703   2.60854   -1.000
 6274.00    2.55309   2.59145   -1.000
 6275.00    2.52972   2.56324   -1.000
 6276.00    2.49558   2.53361   -1.000
 6277.00    2.43739   2.50885   -1.000
 6278.00    2.37993   2.48976   -1.000
 6279.00    2.34051   2.47629   -1.000
 6280.00    2.31837   2.47590   -1.000
 6281.00    2.28796   2.49580   -1.000
 6282.00    2.27802   2.53200   -1.000
 6283.00    2.28281   2.57133   -1.000
 6284.00    2.32792   2.60190   -1.000
 6285.00    2.38665   2.62162   -1.000
 6286.00    2.45685   2.63719   -1.000
 6287.00    2.52175   2.65123   -1.000
 6288.00    2.56150   2.65618   -1.000
 6289.00    2.57225   2.64492   -1.000
 6290.00    2.55579   2.62276   -1.000
 6291.00    2.55750   2.60305   -1.000
 6292.00    2.55514   2.59393   -1.000
 6293.00    2.55318   2.59319   -1.000
 6294.00    2.55672   2.59136   -1.000
 6295.00    2.54262   2.57687   -1.000
 6296.00    2.52116   2.55204   -1.000
 6297.00    2.50238   2.53456   -1.000
 6298.00    2.49246   2.53371   -1.000
 6299.00    2.49194   2.53710   -1.000
 6300.00    2.48439   2.52947   -1.000
 6301.00    2.46983   2.51774   -1.000
 6302.00    2.48138   2.52215   -1.000
 6303.00    2.51351   2.54699   -1.000
 6304.00    2.54086   2.57933   -1.000
 6305.00    2.55593   2.60823   -1.000
 6306.00    2.56950   2.63384   -1.000
 6307.00    2.58942   2.65483   -1.000
 6308.00    2.59452   2.66408   -1.000
 6309.00    2.59101   2.65838   -1.000
 6310.00    2.58043   2.64444   -1.000
 6311.00    2.56128   2.63026   -1.000
 6312.00    2.54892   2.61846   -1.000
 6313.00    2.54266   2.60370   -1.000
 6314.00    2.52220   2.58342   -1.000
 6315.00    2.49639   2.56408   -1.000
 6316.00    2.48575   2.54833   -1.000
 6317.00    2.48255   2.53581   -1.000
 6318.00    2.48287   2.53673   -1.000
 6319.00    2.49846   2.56138   -1.000
 6320.00    2.54030   2.59652   -1.000
 6321.00    2.56894   2.62307   -1.000
 6322.00    2.57928   2.64140   -1.000
 6323.00    2.58928   2.66124   -1.000
 6324.00    2.60399   2.68093   -1.000
 6325.00    2.61577   2.69174   -1.000
 6326.00    2.61934   2.69356   -1.000
 6327.00    2.62129   2.69318   -1.000
 6328.00    2.62274   2.69411   -1.000
 6329.00    2.63076   2.69433   -1.000
 6330.00    2.62643   2.69620   -1.000
 6331.00    2.62556   2.70377   -1.000
 6332.00    2.62464   2.70698   -1.000
 6333.00    2.61036   2.68905   -1.000
 6334.00    2.58759   2.64812   -1.000
 6335.00    2.53624   2.60503   -1.000
 6336.00    2.51970   2.58739   -1.000
 6337.00    2.55079   2.60013   -1.000
 6338.00    2.58022   2.62819   -1.000
 6339.00    2.60921   2.65911   -1.000
 6340.00    2.62480   2.68302   -1.000
 6341.00    2.62281   2.68763   -1.000
 6342.00    2.60766   2.67182   -1.000
 6343.00    2.59134   2.65002   -1.000
 6344.00    2.57719   2.64174   -1.000
 6345.00    2.58369   2.65380   -1.000
 6346.00    2.59941   2.67713   -1.000
 6347.00    2.61092   2.70331   -1.000
 6348.00    2.62352   2.72674   -1.000
 6349.00    2.63112   2.74269   -1.000
 6350.00    2.63721   2.74966   -1.000
 6351.00    2.63745   2.74704   -1.000
 6352.00    2.62864   2.73244   -1.000
 6353.00    2.60129   2.70706   -1.000
 6354.00    2.57289   2.68152   -1.000
 6355.00    2.56350   2.66611   -1.000
 6356.00    2.55654   2.65532   -1.000
 6357.00    2.53841   2.63646   -1.000
 6358.00    2.52082   2.61113   -1.000
 6359.00    2.50792   2.58998   -1.000
 6360.00    2.50553   2.57503   -1.000
 6361.00    2.50085   2.56436   -1.000
 6362.00    2.49051   2.56346   -1.000
 6363.00    2.50152   2.57835   -1.000
 6364.00    2.52080   2.60599   -1.000
 6365.00    2.54604   2.63769   -1.000
 6366.00    2.56054   2.66901   -1.000
 6367.00    2.57895   2.69683   -1.000
 6368.00    2.59749   2.71378   -1.000
 6369.00    2.60912   2.71851   -1.000
 6370.00    2.60239   2.72111   -1.000
 6371.00    2.59930   2.73136   -1.000
 6372.00    2.61560   2.74752   -1.000
 6373.00    2.61838   2.75890   -1.000
 6374.00    2.60848   2.76115   -1.000
 6375.00    2.59815   2.75802   -1.000
 6376.00    2.58233   2.74963   -1.000
 6377.00    2.57044   2.73488   -1.000
 6378.00    2.55918   2.71929   -1.000
 6379.00    2.55391   2.70853   -1.000
 6380.00    2.54554   2.70471   -1.000
 6381.00    2.54564   2.70701   -1.000
 6382.00    2.55204   2.71171   -1.000
 6383.00    2.56222   2.71563   -1.000
 6384.00    2.55574   2.72081   -1.000
 6385.00    2.54949   2.73083   -1.000
 6386.00    2.54439   2.74238   -1.000
 6387.00    2.53852   2.74878   -1.000
 6388.00    2.54103   2.75025   -1.000
 6389.00    2.53377   2.74793   -1.000
 6390.00    2.50631   2.73417   -1.000
 6391.00    2.47573   2.70158   -1.000
 6392.00    2.44231   2.66087   -1.000
 6393.00    2.40688   2.63935   -1.000
 6394.00    2.40157   2.65495   -1.000
 6395.00    2.42525   2.69463   -1.000
 6396.00    2.44270   2.72704   -1.000
 6397.00    2.43343   2.72570   -1.000
 6398.00    2.39555   2.68816   -1.000
 6399.00    2.35414   2.64358   -1.000
 6400.00    2.32377   2.63356   -1.000
 6401.00    2.34086   2.66904   -1.000
 6402.00    2.37289   2.72158   -1.000
 6403.00    2.40461   2.76113   -1.000
 6404.00    2.40043   2.77427   -1.000
 6405.00    2.37842   2.76001   -1.000
 6406.00    2.34214   2.73016   -1.000
 6407.00    2.30795   2.70709   -1.000
 6408.00    2.28638   2.70383   -1.000
 6409.00    2.27458   2.70991   -1.000
 6410.00    2.25870   2.70790   -1.000
 6411.00    2.23373   2.69897   -1.000
 6412.00    2.21498   2.69796   -1.000
 6413.00    2.20312   2.70899   -1.000
 6414.00    2.20528   2.72406   -1.000
 6415.00    2.20382   2.73777   -1.000
 6416.00    2.19450   2.74484   -1.000
 6417.00    2.17957   2.73785   -1.000
 6418.00    2.15243   2.71351   -1.000
 6419.00    2.11539   2.68059   -1.000
 6420.00    2.07038   2.65961   -1.000
 6421.00    2.05617   2.67047   -1.000
 6422.00    2.06536   2.70944   -1.000
 6423.00    2.07528   2.75013   -1.000
 6424.00    2.07582   2.77693   -1.000
 6425.00    2.06395   2.79362   -1.000
 6426.00    2.04891   2.80433   -1.000
 6427.00    2.03284   2.80149   -1.000
 6428.00    2.00637   2.77401   -1.000
