###################################################################
## OUTPUT of StarlightChains_v04.for    [Cid@UFSC - 01/Apr/2007] ##
###################################################################

## Some input info
NGC6266_a_1.cxt                          [arq_obs]
Base.BC03.N                              [arq_base]
NGC6266_a_1.msk                          [arq_masks]
StCv04.C11.config                        [arq_config]
   45                                    [N_base]
    0                                    [N_YAV_components = # of components with extra extinction!]
    0                                    [i_FitPowerLaw (1/0 = Yes/No)]
-9.99                                    [alpha_PowerLaw]
CCM                                      [red_law_option]
 1.458241                                [q_norm = A(l_norm)/A(V)]

## (Re)Sampling Parameters
 3359.00                                 [l_ini (A)]
 6428.00                                 [l_fin (A)]
    1.00                                 [dl    (A)]     (OBS: dl_cushion =    50.00 A)

## Normalization info
 4020.00                                 [l_norm (A) - for base]
 4010.00                                 [llow_norm (A) - window for f_obs]
 4060.00                                 [lupp_norm (A) - window for f_obs]
4.260575E-14                             [fobs_norm (in input units)]

## S/N
 4730.00                                 [llow_SN (A) - window for S/N]
 4780.00                                 [lupp_SN (A) - window for S/N]
  58.893                                 [S/N in S/N window]
  42.056                                 [S/N in norm. window]
 225.721                                 [S/N_err in S/N window]
 161.191                                 [S/N_err in norm. window]
  1.0000                                 [fscale_chi2]

## etc...
  2147483622                             [idum_orig]
  3068                                   [NOl_eff]
   694                                   [Nl_eff]
  2374    NSIGMA                         [Ntot_cliped & clip_method]
   882840                                [Nglobal_steps]
   7                                     [N_chains]
   8                                     [NEX0s_base = N_base in EX0s-fits]
 0   0   1        2   2.0   4.774E+02    [Clip-Bug, RC-Crash & Burn-In warning-flags, n_censored_weights, wei_nsig_threshold & wei_limit]
    12     11.563     11.559      0.004  [idt_all, wdt_TotTime, wdt_UsrTime & wdt_SysTime (sec)]

## Synthesis Results - Best model ##

 2.48659E+00                             [chi2/Nl_eff]
     1.06154                             [adev (%)]

    98.56146                             [sum-of-x (%)]
 3.57823E-13                             [Flux_tot (units of input spectrum!)]
 3.80712E-09                             [Mini_tot (???)]
 2.02822E-09                             [Mcor_tot (???)]

 -11.60                                  [v0_min  (km/s)]
  56.09                                  [vd_min  (km/s)]
 1.5952                                  [AV_min  (mag)]
 0.0000                                  [YAV_min (mag)]

# j     x_j(%)      Mini_j(%)     Mcor_j(%)     age_j(yr)     Z_j      (L/M)_j    YAV?  Mstars   component_j        a/Fe...       SSP_chi2r SSP_adev(%)   SSP_AV   SSP_x(%)
  1      0.0000     0.0000E+00    0.0000E+00    1.000000E+06  0.00400  1.114E-02    0   1.0000   age020_m42            0.0000     2.9621E+03    26.3628   4.0000    89.5882
  2      8.8948     2.0825E-02    3.9086E-02    3.160000E+06  0.00400  4.073E-02    0   0.9999   age045_m42            0.0000     1.3031E+02     5.6768   3.8823    89.4342
  3      0.0000     0.0000E+00    0.0000E+00    5.010000E+06  0.00400  2.534E-02    0   0.9488   age055_m42            0.0000     4.9585E+02    12.1406   4.0000    89.2163
  4     10.9158     8.1898E-02    1.3623E-01    1.000000E+07  0.00400  1.271E-02    0   0.8862   age070_m42            0.0000     2.4089E+02     8.5860   3.4797    87.1236
  5      1.8764     3.5293E-02    5.4151E-02    2.512000E+07  0.00400  5.070E-03    0   0.8174   age090_m42            0.0000     2.0981E+02     8.0166   3.3518    88.7942
  6      0.0000     0.0000E+00    0.0000E+00    4.000000E+07  0.00400  3.505E-03    0   0.7851   age104_m42            0.0000     1.3360E+02     6.2165   3.0404    92.0548
  7      0.0000     0.0000E+00    0.0000E+00    1.015200E+08  0.00400  2.268E-03    0   0.7207   age116_m42            0.0000     6.5527E+02    10.4521   3.0309   102.9090
  8      0.0000     0.0000E+00    0.0000E+00    2.861200E+08  0.00400  1.079E-03    0   0.6613   age125_m42            0.0000     7.0700E+02    11.3721   2.5374   105.1990
  9      3.1338     5.8861E-01    6.8469E-01    6.405400E+08  0.00400  5.077E-04    0   0.6197   age132_m42            0.0000     7.4943E+02    11.8490   2.1596   109.7556
 10      8.3488     2.2522E+00    2.5466E+00    9.047900E+08  0.00400  3.535E-04    0   0.6024   age135_m42            0.0000     4.7868E+02     9.6673   1.9216   108.9496
 11      0.0000     0.0000E+00    0.0000E+00    1.434000E+09  0.00400  1.910E-04    0   0.5716   age139_m42            0.0000     2.2393E+02     7.0394   1.4059   108.0167
 12     30.9445     3.0056E+01    3.0820E+01    2.500000E+09  0.00400  9.818E-05    0   0.5463   age150_m42            0.0000     8.2470E+01     4.6576   1.1470   102.7890
 13     33.1299     6.6962E+01    6.5712E+01    5.000000E+09  0.00400  4.718E-05    0   0.5228   age161_m42            0.0000     8.1198E+01     4.1565   0.9847    99.3570
 14      0.0000     0.0000E+00    0.0000E+00    1.100000E+10  0.00400  2.205E-05    0   0.4980   age185_m42            0.0000     1.9423E+02     5.9062   0.7286    97.6123
 15      0.0000     0.0000E+00    0.0000E+00    1.300000E+10  0.00400  1.883E-05    0   0.4927   age193_m42            0.0000     2.1318E+02     6.1793   0.7120    97.4780
 16      0.0000     0.0000E+00    0.0000E+00    1.000000E+06  0.02000  1.989E-02    0   1.0000   age020_m62            0.0000     2.7597E+03    25.3332   4.0000    89.8523
 17      0.0000     0.0000E+00    0.0000E+00    3.160000E+06  0.02000  3.772E-02    0   0.9858   age045_m62            0.0000     1.9722E+03    22.1405   4.0000    90.5236
 18      1.3176     3.8936E-03    6.8277E-03    5.010000E+06  0.02000  3.227E-02    0   0.9342   age055_m62            0.0000     2.3133E+02     8.4681   4.0000    89.3131
 19      0.0000     0.0000E+00    0.0000E+00    1.000000E+07  0.02000  1.011E-02    0   0.8751   age070_m62            0.0000     6.4644E+02    13.2312   3.5204    82.6190
 20      0.0000     0.0000E+00    0.0000E+00    2.512000E+07  0.02000  4.206E-03    0   0.8099   age090_m62            0.0000     4.4149E+02    11.0473   3.4582    83.6191
 21      0.0000     0.0000E+00    0.0000E+00    4.000000E+07  0.02000  3.373E-03    0   0.7799   age104_m62            0.0000     1.5913E+02     5.8563   3.2586    93.5366
 22      0.0000     0.0000E+00    0.0000E+00    1.015200E+08  0.02000  1.878E-03    0   0.7221   age116_m62            0.0000     5.3065E+02     9.0911   3.0587   103.0828
 23      0.0000     0.0000E+00    0.0000E+00    2.861200E+08  0.02000  8.869E-04    0   0.6700   age125_m62            0.0000     1.1685E+03    14.5993   2.5492   110.6212
 24      0.0000     0.0000E+00    0.0000E+00    6.405400E+08  0.02000  3.657E-04    0   0.6322   age132_m62            0.0000     8.0565E+02    12.6911   1.8736   114.2223
 25      0.0000     0.0000E+00    0.0000E+00    9.047900E+08  0.02000  2.312E-04    0   0.6152   age135_m62            0.0000     4.7784E+02     9.9809   1.5050   113.0855
 26      0.0000     0.0000E+00    0.0000E+00    1.434000E+09  0.02000  1.168E-04    0   0.5865   age139_m62            0.0000     1.8063E+02     6.4122   1.1080   106.7344
 27      0.0000     0.0000E+00    0.0000E+00    2.500000E+09  0.02000  5.505E-05    0   0.5610   age150_m62            0.0000     2.2653E+02     6.9045   0.7436   104.0475
 28      0.0000     0.0000E+00    0.0000E+00    5.000000E+09  0.02000  2.596E-05    0   0.5353   age161_m62            0.0000     4.7840E+02     9.4473   0.4113   104.8005
 29      0.0000     0.0000E+00    0.0000E+00    1.100000E+10  0.02000  1.169E-05    0   0.5103   age185_m62            0.0000     8.0676E+02    11.9476   0.0500   106.9247
 30      0.0000     0.0000E+00    0.0000E+00    1.300000E+10  0.02000  9.691E-06    0   0.5047   age193_m62            0.0000     8.6896E+02    12.3505   0.0050   107.2502
 31      0.0000     0.0000E+00    0.0000E+00    1.000000E+06  0.05000  2.651E-02    0   0.9998   age020_m72            0.0000     2.7331E+03    24.9129   4.0000    90.9290
 32      0.0000     0.0000E+00    0.0000E+00    3.160000E+06  0.05000  4.817E-02    0   0.9577   age045_m72            0.0000     1.2052E+03    17.5730   4.0000    92.1422
 33      0.0000     0.0000E+00    0.0000E+00    5.010000E+06  0.05000  3.101E-02    0   0.9147   age055_m72            0.0000     3.7184E+02    10.6165   4.0000    87.6962
 34      0.0000     0.0000E+00    0.0000E+00    1.000000E+07  0.05000  8.954E-03    0   0.8524   age070_m72            0.0000     8.7188E+02    15.0173   4.0000    91.3429
 35      0.0000     0.0000E+00    0.0000E+00    2.512000E+07  0.05000  4.207E-03    0   0.7902   age090_m72            0.0000     1.6781E+02     6.2711   3.9749    88.3745
 36      0.0000     0.0000E+00    0.0000E+00    4.000000E+07  0.05000  3.198E-03    0   0.7618   age104_m72            0.0000     3.1999E+02     6.8985   3.4582    97.9678
 37      0.0000     0.0000E+00    0.0000E+00    1.015200E+08  0.05000  1.716E-03    0   0.7092   age116_m72            0.0000     6.6911E+02    10.3987   3.1668   103.0482
 38      0.0000     0.0000E+00    0.0000E+00    2.861200E+08  0.05000  7.047E-04    0   0.6618   age125_m72            0.0000     1.1567E+03    14.6273   2.3606   111.0630
 39      0.0000     0.0000E+00    0.0000E+00    6.405400E+08  0.05000  2.633E-04    0   0.6253   age132_m72            0.0000     6.5199E+02    11.5450   1.5146   113.6055
 40      0.0000     0.0000E+00    0.0000E+00    9.047900E+08  0.05000  1.484E-04    0   0.6088   age135_m72            0.0000     3.2091E+02     8.7376   1.0409   108.3485
 41      0.0000     0.0000E+00    0.0000E+00    1.434000E+09  0.05000  7.827E-05    0   0.5847   age139_m72            0.0000     3.5556E+02     8.6779   0.6634   104.9411
 42      0.0000     0.0000E+00    0.0000E+00    2.500000E+09  0.05000  3.759E-05    0   0.5583   age150_m72            0.0000     5.3863E+02    10.0982   0.3445   104.4915
 43      0.0000     0.0000E+00    0.0000E+00    5.000000E+09  0.05000  1.548E-05    0   0.5320   age161_m72            0.0000     8.3779E+02    11.9963  -0.0540   104.8432
 44      0.0000     0.0000E+00    0.0000E+00    1.100000E+10  0.05000  6.532E-06    0   0.5070   age185_m72            0.0000     1.2025E+03    14.2090  -0.4307   105.7890
 45      0.0000     0.0000E+00    0.0000E+00    1.300000E+10  0.05000  5.316E-06    0   0.5018   age193_m72            0.0000     1.3617E+03    15.1664  -0.5475   106.2532


## Synthesis Results - Average & Chains ##

# j      x_j: min, <> & last-chain-values for 1 ...  7 chains
  1      0.0000      0.0138      0.0000      0.0000      0.0000      0.0000      0.0000      0.0123      0.0148
  2      8.8948      8.4644      8.6117      8.7739      8.4626      8.4103      8.6855      8.6860      8.4607
  3      0.0000      0.0459      0.0000      0.0000      0.0575      0.1101      0.0000      0.2039      0.0000
  4     10.9158     10.4248     10.4650     10.5405     10.7007     10.6548     10.4716     10.5492     10.5153
  5      1.8764      2.2657      2.3363      2.2144      1.9232      2.3501      2.3483      2.0173      2.3358
  6      0.0000      0.0392      0.0173      0.0917      0.0000      0.0000      0.0000      0.0845      0.0701
  7      0.0000      0.6588      0.6054      0.5807      0.5636      0.7647      0.8829      0.7829      0.6009
  8      0.0000      0.0309      0.0000      0.0000      0.0937      0.0000      0.0000      0.0000      0.0000
  9      3.1338      3.0796      3.1615      3.1637      3.1400      2.8314      2.8526      2.8784      3.1727
 10      8.3488      7.6761      7.6885      7.8119      7.8063      7.7066      7.8255      7.8313      7.6708
 11      0.0000      0.2555      0.1144      0.0000      0.4974      0.6701      0.2028      0.8590      0.6149
 12     30.9445     30.1929     30.3046     30.3716     30.2267     29.9230     30.6596     29.9248     30.2557
 13     33.1299     32.8509     33.0707     33.2896     32.9273     32.8928     32.4001     32.9776     32.8036
 14      0.0000      0.0451      0.0000      0.0000      0.0000      0.0000      0.0000      0.0000      0.0227
 15      0.0000      0.0253      0.0000      0.0000      0.0000      0.0000      0.0000      0.0000      0.0000
 16      0.0000      0.0160      0.0000      0.0000      0.1115      0.0000      0.0690      0.0307      0.0000
 17      0.0000      0.0098      0.0000      0.0000      0.0000      0.0000      0.0000      0.0000      0.0000
 18      1.3176      1.1835      1.2520      1.1318      1.2427      1.0209      1.2509      0.9365      1.2185
 19      0.0000      0.0172      0.0000      0.0000      0.0000      0.0517      0.0000      0.0000      0.0000
 20      0.0000      0.0164      0.0000      0.0000      0.0099      0.0000      0.0000      0.0000      0.0000
 21      0.0000      0.0633      0.0000      0.0000      0.0669      0.0252      0.0000      0.0000      0.0278
 22      0.0000      0.0295      0.0000      0.0045      0.0000      0.1020      0.0000      0.0000      0.0000
 23      0.0000      0.0251      0.0673      0.0569      0.0000      0.0000      0.0693      0.0000      0.0000
 24      0.0000      0.0243      0.0000      0.0000      0.0000      0.0000      0.0316      0.0000      0.0000
 25      0.0000      0.0787      0.0000      0.0000      0.0034      0.2197      0.1159      0.0000      0.0000
 26      0.0000      0.0815      0.0000      0.0000      0.0205      0.0518      0.0084      0.0000      0.0673
 27      0.0000      0.0407      0.0000      0.0000      0.0000      0.0000      0.0000      0.0000      0.0282
 28      0.0000      0.0650      0.0447      0.0000      0.0469      0.0318      0.0585      0.0000      0.0000
 29      0.0000      0.5542      0.6118      0.4921      0.5871      0.6148      0.3989      0.5728      0.5398
 30      0.0000      0.0192      0.0846      0.1064      0.0000      0.0000      0.0000      0.0000      0.0000
 31      0.0000      0.0088      0.0000      0.0000      0.0000      0.0000      0.0000      0.0000      0.0000
 32      0.0000      0.0231      0.0000      0.0000      0.0000      0.0000      0.0000      0.0665      0.0000
 33      0.0000      0.0452      0.0000      0.0094      0.0115      0.0843      0.0000      0.0872      0.0124
 34      0.0000      0.0103      0.0000      0.0000      0.0628      0.0000      0.0000      0.0210      0.0000
 35      0.0000      0.0188      0.0000      0.0000      0.0000      0.0000      0.0000      0.0000      0.1111
 36      0.0000      0.0233      0.1553      0.0213      0.0016      0.0521      0.0000      0.0000      0.0000
 37      0.0000      0.0286      0.0264      0.0000      0.0173      0.0716      0.0000      0.0000      0.0000
 38      0.0000      0.0189      0.0000      0.0000      0.0000      0.0000      0.0000      0.0000      0.0000
 39      0.0000      0.0367      0.0014      0.0000      0.0000      0.0145      0.0000      0.0000      0.0000
 40      0.0000      0.0512      0.0000      0.0000      0.0000      0.0380      0.0000      0.0000      0.0787
 41      0.0000      0.0240      0.0000      0.0000      0.0000      0.0035      0.0388      0.0668      0.0000
 42      0.0000      0.0268      0.0176      0.0000      0.0000      0.0000      0.0000      0.0000      0.0000
 43      0.0000      0.0203      0.0000      0.0000      0.0000      0.0000      0.2564      0.0000      0.0000
 44      0.0000      0.0052      0.0000      0.0000      0.0000      0.0000      0.0000      0.0000      0.0000
 45      0.0000      0.0635      0.0412      0.0000      0.1035      0.0000      0.0589      0.0800      0.0764

# j      m_j: min, <> & last-chain-values for 1 ...  7 chains
  1  0.0000E+00  2.1065E-04  0.0000E+00  0.0000E+00  0.0000E+00  0.0000E+00  0.0000E+00  1.8777E-04  2.2668E-04
  2  3.9086E-02  3.5307E-02  3.5819E-02  3.6904E-02  3.5228E-02  3.5608E-02  3.6609E-02  3.6388E-02  3.5539E-02
  3  0.0000E+00  2.9203E-04  0.0000E+00  0.0000E+00  3.6514E-04  7.1118E-04  0.0000E+00  1.3031E-03  0.0000E+00
  4  1.3623E-01  1.2350E-01  1.2362E-01  1.2592E-01  1.2651E-01  1.2812E-01  1.2536E-01  1.2552E-01  1.2545E-01
  5  5.4151E-02  6.2066E-02  6.3818E-02  6.1168E-02  5.2576E-02  6.5344E-02  6.5004E-02  5.5500E-02  6.4432E-02
  6  0.0000E+00  1.4935E-03  6.5768E-04  3.5175E-03  0.0000E+00  0.0000E+00  0.0000E+00  3.2297E-03  2.6876E-03
  7  0.0000E+00  3.5571E-02  3.2592E-02  3.1617E-02  3.0371E-02  4.1908E-02  4.8171E-02  4.2452E-02  3.2673E-02
  8  0.0000E+00  3.2185E-03  0.0000E+00  0.0000E+00  9.7330E-03  0.0000E+00  0.0000E+00  0.0000E+00  0.0000E+00
  9  6.8469E-01  6.3868E-01  6.5381E-01  6.6161E-01  6.4990E-01  5.9604E-01  5.9782E-01  5.9954E-01  6.6261E-01
 10  2.5466E+00  2.2226E+00  2.2198E+00  2.2808E+00  2.2557E+00  2.2649E+00  2.2896E+00  2.2773E+00  2.2366E+00
 11  0.0000E+00  1.2991E-01  5.8000E-02  0.0000E+00  2.5241E-01  3.4587E-01  1.0421E-01  4.3868E-01  3.1488E-01
 12  3.0820E+01  2.8545E+01  2.8569E+01  2.8954E+01  2.8520E+01  2.8715E+01  2.9291E+01  2.8414E+01  2.8805E+01
 13  6.5712E+01  6.1851E+01  6.2087E+01  6.3201E+01  6.1870E+01  6.2860E+01  6.1642E+01  6.2358E+01  6.2194E+01
 14  0.0000E+00  1.7289E-01  0.0000E+00  0.0000E+00  0.0000E+00  0.0000E+00  0.0000E+00  0.0000E+00  8.7741E-02
 15  0.0000E+00  1.1246E-01  0.0000E+00  0.0000E+00  0.0000E+00  0.0000E+00  0.0000E+00  0.0000E+00  0.0000E+00
 16  0.0000E+00  1.3643E-04  0.0000E+00  0.0000E+00  9.5026E-04  0.0000E+00  5.9565E-04  2.6364E-04  0.0000E+00
 17  0.0000E+00  4.3614E-05  0.0000E+00  0.0000E+00  0.0000E+00  0.0000E+00  0.0000E+00  0.0000E+00  0.0000E+00
 18  6.8277E-03  5.8215E-03  6.1407E-03  5.6138E-03  6.1002E-03  5.0970E-03  6.2174E-03  4.6263E-03  6.0354E-03
 19  0.0000E+00  2.5306E-04  0.0000E+00  0.0000E+00  0.0000E+00  7.7149E-04  0.0000E+00  0.0000E+00  0.0000E+00
 20  0.0000E+00  5.3497E-04  0.0000E+00  0.0000E+00  3.2479E-04  0.0000E+00  0.0000E+00  0.0000E+00  0.0000E+00
 21  0.0000E+00  2.4852E-03  0.0000E+00  0.0000E+00  2.6224E-03  1.0065E-03  0.0000E+00  0.0000E+00  1.1005E-03
 22  0.0000E+00  1.9292E-03  0.0000E+00  2.9898E-04  0.0000E+00  6.7607E-03  0.0000E+00  0.0000E+00  0.0000E+00
 23  0.0000E+00  3.2232E-03  8.6137E-03  7.3623E-03  0.0000E+00  0.0000E+00  8.9871E-03  0.0000E+00  0.0000E+00
 24  0.0000E+00  7.1248E-03  0.0000E+00  0.0000E+00  0.0000E+00  0.0000E+00  9.3841E-03  0.0000E+00  0.0000E+00
 25  0.0000E+00  3.5592E-02  0.0000E+00  0.0000E+00  1.5214E-03  1.0080E-01  5.2971E-02  0.0000E+00  0.0000E+00
 26  0.0000E+00  6.9508E-02  0.0000E+00  0.0000E+00  1.7428E-02  4.4857E-02  7.2293E-03  0.0000E+00  5.7800E-02
 27  0.0000E+00  7.0468E-02  0.0000E+00  0.0000E+00  0.0000E+00  0.0000E+00  0.0000E+00  0.0000E+00  4.9134E-02
 28  0.0000E+00  2.2761E-01  1.5632E-01  0.0000E+00  1.6388E-01  1.1305E-01  2.0724E-01  0.0000E+00  0.0000E+00
 29  0.0000E+00  4.1102E+00  4.5246E+00  3.6803E+00  4.3455E+00  4.6288E+00  2.9899E+00  4.2671E+00  4.0314E+00
 30  0.0000E+00  1.6990E-01  7.4682E-01  9.4940E-01  0.0000E+00  0.0000E+00  0.0000E+00  0.0000E+00  0.0000E+00
 31  0.0000E+00  5.6461E-05  0.0000E+00  0.0000E+00  0.0000E+00  0.0000E+00  0.0000E+00  0.0000E+00  0.0000E+00
 32  0.0000E+00  7.8129E-05  0.0000E+00  0.0000E+00  0.0000E+00  0.0000E+00  0.0000E+00  2.2564E-04  0.0000E+00
 33  0.0000E+00  2.2665E-04  0.0000E+00  4.7272E-05  5.7721E-05  4.2902E-04  0.0000E+00  4.3906E-04  6.2512E-05
 34  0.0000E+00  1.6717E-04  0.0000E+00  0.0000E+00  1.0132E-03  0.0000E+00  0.0000E+00  3.4123E-04  0.0000E+00
 35  0.0000E+00  5.9904E-04  0.0000E+00  0.0000E+00  0.0000E+00  0.0000E+00  0.0000E+00  0.0000E+00  3.5701E-03
 36  0.0000E+00  9.4469E-04  6.2690E-03  8.6818E-04  6.5287E-05  2.1385E-03  0.0000E+00  0.0000E+00  0.0000E+00
 37  0.0000E+00  2.0077E-03  1.8462E-03  0.0000E+00  1.2141E-03  5.1061E-03  0.0000E+00  0.0000E+00  0.0000E+00
 38  0.0000E+00  3.0092E-03  0.0000E+00  0.0000E+00  0.0000E+00  0.0000E+00  0.0000E+00  0.0000E+00  0.0000E+00
 39  0.0000E+00  1.4807E-02  5.5617E-04  0.0000E+00  0.0000E+00  5.9487E-03  0.0000E+00  0.0000E+00  0.0000E+00
 40  0.0000E+00  3.5710E-02  0.0000E+00  0.0000E+00  0.0000E+00  2.6867E-02  0.0000E+00  0.0000E+00  5.5253E-02
 41  0.0000E+00  3.0521E-02  0.0000E+00  0.0000E+00  0.0000E+00  4.5070E-03  4.9770E-02  8.5218E-02  0.0000E+00
 42  0.0000E+00  6.7628E-02  4.4380E-02  0.0000E+00  0.0000E+00  0.0000E+00  0.0000E+00  0.0000E+00  0.0000E+00
 43  0.0000E+00  1.1838E-01  0.0000E+00  0.0000E+00  0.0000E+00  0.0000E+00  1.5127E+00  0.0000E+00  0.0000E+00
 44  0.0000E+00  6.8391E-02  0.0000E+00  0.0000E+00  0.0000E+00  0.0000E+00  0.0000E+00  0.0000E+00  0.0000E+00
 45  0.0000E+00  1.0188E+00  6.5963E-01  0.0000E+00  1.6571E+00  0.0000E+00  9.5522E-01  1.2893E+00  1.2338E+00

# AV, chi2 & Mass for <> & i_chain = 1 ...  7 solutions
AV       1.5952      1.5811      1.5818      1.5836      1.5816      1.5870      1.5862      1.5842      1.5828
chi2 2.4866E+00  2.5380E+00  2.5278E+00  2.5183E+00  2.5278E+00  2.5237E+00  2.5210E+00  2.5188E+00  2.5277E+00
Mass 2.0282E-09  2.0965E-09  2.1046E-09  2.0861E-09  2.1023E-09  2.0819E-09  2.0889E-09  2.0962E-09  2.0868E-09
 -11.60                                  [v0_min (km/s) before EX0s...]
  56.09                                  [vd_min (km/s) before EX0s...]


## Synthetic spectrum (Best Model) ##l_obs f_obs f_syn wei
 3070    [Nl_obs]
 3359.00    0.00000   0.43791   -2.000
 3360.00    0.03347   0.41890   -1.000
 3361.00    0.22091   0.41807   -1.000
 3362.00    0.23046   0.43711   -1.000
 3363.00    0.24720   0.46360   -1.000
 3364.00    0.25518   0.48185   -1.000
 3365.00    0.26359   0.48321   -1.000
 3366.00    0.26715   0.46929   -1.000
 3367.00    0.26695   0.44950   -1.000
 3368.00    0.26084   0.43513   -1.000
 3369.00    0.25089   0.42993   -1.000
 3370.00    0.24019   0.42939   -1.000
 3371.00    0.24586   0.42679   -1.000
 3372.00    0.25243   0.42509   -1.000
 3373.00    0.25670   0.43364   -1.000
 3374.00    0.26443   0.45475   -1.000
 3375.00    0.27956   0.48145   -1.000
 3376.00    0.29598   0.49599   -1.000
 3377.00    0.29952   0.48955   -1.000
 3378.00    0.30092   0.47010   -1.000
 3379.00    0.29520   0.45102   -1.000
 3380.00    0.29040   0.44484   -1.000
 3381.00    0.29195   0.45294   -1.000
 3382.00    0.29511   0.46870   -1.000
 3383.00    0.30084   0.48171   -1.000
 3384.00    0.30582   0.49059   -1.000
 3385.00    0.31050   0.49864   -1.000
 3386.00    0.31445   0.50312   -1.000
 3387.00    0.31709   0.50184   -1.000
 3388.00    0.31703   0.49870   -1.000
 3389.00    0.32888   0.49673   -1.000
 3390.00    0.33383   0.49407   -1.000
 3391.00    0.33775   0.48729   -1.000
 3392.00    0.33890   0.47778   -1.000
 3393.00    0.33661   0.47409   -1.000
 3394.00    0.34669   0.48216   -1.000
 3395.00    0.35629   0.49835   -1.000
 3396.00    0.36560   0.51524   -1.000
 3397.00    0.37949   0.52778   -1.000
 3398.00    0.39390   0.53309   -1.000
 3399.00    0.40350   0.53007   -1.000
 3400.00    0.40649   0.52178   -1.000
 3401.00    0.40921   0.51080   -1.000
 3402.00    0.40973   0.49807   -1.000
 3403.00    0.39622   0.48854   -1.000
 3404.00    0.39604   0.48508   -1.000
 3405.00    0.39454   0.48322   -1.000
 3406.00    0.38781   0.47851   -1.000
 3407.00    0.38557   0.47269   -1.000
 3408.00    0.38289   0.47104   -1.000
 3409.00    0.38217   0.47698   -1.000
 3410.00    0.39032   0.48551   -1.000
 3411.00    0.39482   0.48864   -1.000
 3412.00    0.39413   0.48480   -1.000
 3413.00    0.39215   0.47848   -1.000
 3414.00    0.39290   0.47643   -1.000
 3415.00    0.39403   0.48070   -1.000
 3416.00    0.39704   0.49046   -1.000
 3417.00    0.40723   0.50307   -1.000
 3418.00    0.41740   0.51670   -1.000
 3419.00    0.43015   0.52782   -1.000
 3420.00    0.44402   0.53164   -1.000
 3421.00    0.44636   0.52710   -1.000
 3422.00    0.43946   0.51928   -1.000
 3423.00    0.43858   0.51272   -1.000
 3424.00    0.43937   0.51011   -1.000
 3425.00    0.43818   0.51101   -1.000
 3426.00    0.44079   0.51525   -1.000
 3427.00    0.44809   0.52477   -1.000
 3428.00    0.45958   0.53949   -1.000
 3429.00    0.46638   0.54976   -1.000
 3430.00    0.47347   0.54857   -1.000
 3431.00    0.47189   0.53716   -1.000
 3432.00    0.46176   0.52397   -1.000
 3433.00    0.45756   0.51750   -1.000
 3434.00    0.45886   0.51926   43.334
 3435.00    0.46539   0.52504   48.925
 3436.00    0.47026   0.52667   -1.000
 3437.00    0.46310   0.52053   -1.000
 3438.00    0.45178   0.50588   43.321
 3439.00    0.43663   0.48432   45.447
 3440.00    0.41618   0.45997   48.304
 3441.00    0.40187   0.44328   51.926
 3442.00    0.40292   0.44076   53.728
 3443.00    0.40921   0.44916   53.753
 3444.00    0.42029   0.46045   53.259
 3445.00    0.43122   0.47236   51.010
 3446.00    0.44068   0.48784   48.204
 3447.00    0.45437   0.50751   45.670
 3448.00    0.46772   0.52636   50.118
 3449.00    0.48468   0.53571   -1.000
 3450.00    0.48409   0.53073   -1.000
 3451.00    0.48023   0.51594   -1.000
 3452.00    0.47109   0.49957   -1.000
 3453.00    0.47487   0.49229   -1.000
 3454.00    0.47797   0.49589   -1.000
 3455.00    0.48656   0.50413   -1.000
 3456.00    0.48742   0.50756   -1.000
 3457.00    0.48767   0.50107   -1.000
 3458.00    0.48422   0.48994  404.168
 3459.00    0.47594   0.47923  197.655
 3460.00    0.46810   0.47140   43.264
 3461.00    0.46564   0.47231   43.742
 3462.00    0.46785   0.48487   49.036
 3463.00    0.47741   0.49932   -1.000
 3464.00    0.49140   0.50600   -1.000
 3465.00    0.49284   0.50673   -1.000
 3466.00    0.49301   0.50722   -1.000
 3467.00    0.49412   0.51215   -1.000
 3468.00    0.50260   0.51923   -1.000
 3469.00    0.51435   0.52501   -1.000
 3470.00    0.51610   0.52710   -1.000
 3471.00    0.51538   0.52330   -1.000
 3472.00    0.50952   0.51348  370.053
 3473.00    0.49780   0.49849  383.593
 3474.00    0.48280   0.48013  402.389
 3475.00    0.46330   0.46709  202.156
 3476.00    0.46208   0.46703   43.746
 3477.00    0.46497   0.47845   45.076
 3478.00    0.47607   0.49358   49.604
 3479.00    0.49664   0.50622   -1.000
 3480.00    0.51169   0.51272  380.712
 3481.00    0.51663   0.51233  370.053
 3482.00    0.51628   0.50616   -1.000
 3483.00    0.51565   0.49945   -1.000
 3484.00    0.50870   0.49996  374.656
 3485.00    0.51498   0.51140  377.417
 3486.00    0.52267   0.52712  368.443
 3487.00    0.53411   0.53281  357.071
 3488.00    0.52691   0.52352  351.330
 3489.00    0.50611   0.50569  360.974
 3490.00    0.49207   0.49283  383.566
 3491.00    0.48022   0.49219   -1.000
 3492.00    0.48193   0.49802   -1.000
 3493.00    0.49580   0.50082  406.645
 3494.00    0.49267   0.49583  401.895
 3495.00    0.48457   0.48703  396.430
 3496.00    0.48194   0.48328  395.775
 3497.00    0.48445   0.49256   -1.000
 3498.00    0.49339   0.51069   -1.000
 3499.00    0.51272   0.52243   -1.000
 3500.00    0.52723   0.52457  360.532
 3501.00    0.53354   0.52501  344.674
 3502.00    0.53398   0.52872  340.514
 3503.00    0.54356   0.53245   -1.000
 3504.00    0.53877   0.52879   -1.000
 3505.00    0.53121   0.52020   -1.000
 3506.00    0.51806   0.51487  349.316
 3507.00    0.52235   0.51508  355.120
 3508.00    0.52870   0.51671   -1.000
 3509.00    0.53270   0.51429   -1.000
 3510.00    0.52173   0.50773   -1.000
 3511.00    0.50901   0.50074  365.976
 3512.00    0.50728   0.49388   -1.000
 3513.00    0.50257   0.48767   -1.000
 3514.00    0.49517   0.48994  391.879
 3515.00    0.50271   0.50345  398.962
 3516.00    0.51910   0.52288  387.248
 3517.00    0.53761   0.53876  366.364
 3518.00    0.54484   0.54244  346.215
 3519.00    0.53059   0.53369  342.803
 3520.00    0.52074   0.51775  353.908
 3521.00    0.51342   0.50320   -1.000
 3522.00    0.50300   0.49183   -1.000
 3523.00    0.48722   0.48029  398.808
 3524.00    0.47044   0.47026  212.878
 3525.00    0.46301   0.46651   43.339
 3526.00    0.46817   0.47449   44.705
 3527.00    0.48117   0.49376   49.260
 3528.00    0.49900   0.51521   -1.000
 3529.00    0.51501   0.52922   -1.000
 3530.00    0.52444   0.53276   -1.000
 3531.00    0.52490   0.53069  359.325
 3532.00    0.52764   0.53015  366.558
 3533.00    0.52954   0.53437  368.135
 3534.00    0.53351   0.54063  363.738
 3535.00    0.53846   0.54496  357.435
 3536.00    0.54606   0.54696  350.034
 3537.00    0.54432   0.55012  345.465
 3538.00    0.55142   0.55608  346.918
 3539.00    0.55251   0.56053   -1.000
 3540.00    0.54971   0.55904   -1.000
 3541.00    0.55392   0.55589  342.781
 3542.00    0.54317   0.55765   -1.000
 3543.00    0.53996   0.56306   -1.000
 3544.00    0.54500   0.56789   -1.000
 3545.00    0.54539   0.56783   -1.000
 3546.00    0.54320   0.56436   -1.000
 3547.00    0.54762   0.56194   -1.000
 3548.00    0.53926   0.56241   -1.000
 3549.00    0.54195   0.56504   -1.000
 3550.00    0.54886   0.56683   -1.000
 3551.00    0.54514   0.56505   -1.000
 3552.00    0.53130   0.55870   -1.000
 3553.00    0.52495   0.55156   -1.000
 3554.00    0.52388   0.54787   -1.000
 3555.00    0.52300   0.54868   -1.000
 3556.00    0.52300   0.55082   -1.000
 3557.00    0.52426   0.54987   -1.000
 3558.00    0.52852   0.54601   -1.000
 3559.00    0.52431   0.54388   -1.000
 3560.00    0.52766   0.54855   -1.000
 3561.00    0.53301   0.55912   -1.000
 3562.00    0.53454   0.56603   -1.000
 3563.00    0.53675   0.55658   -1.000
 3564.00    0.52042   0.52874   -1.000
 3565.00    0.49441   0.50251  219.638
 3566.00    0.48033   0.49178   43.785
 3567.00    0.47766   0.49188   45.353
 3568.00    0.47789   0.49033   44.833
 3569.00    0.47355   0.48001   44.761
 3570.00    0.46737   0.47028   46.245
 3571.00    0.46553   0.47156   46.850
 3572.00    0.47521   0.48080   45.291
 3573.00    0.48976   0.48965   47.669
 3574.00    0.49821   0.49383  417.955
 3575.00    0.50310   0.49587  412.227
 3576.00    0.50687   0.49882   -1.000
 3577.00    0.50906   0.49982   -1.000
 3578.00    0.49843   0.49327  413.542
 3579.00    0.49382   0.47760   -1.000
 3580.00    0.47405   0.46029   45.401
 3581.00    0.45441   0.45017   48.937
 3582.00    0.44610   0.44976   51.379
 3583.00    0.45172   0.45282   51.673
 3584.00    0.45354   0.44899   51.989
 3585.00    0.43300   0.43960   53.357
 3586.00    0.42676   0.43460   55.031
 3587.00    0.43377   0.43898   55.437
 3588.00    0.44778   0.45286   52.578
 3589.00    0.46115   0.47315   49.799
 3590.00    0.48198   0.49522   47.182
 3591.00    0.50112   0.51218   47.284
 3592.00    0.51888   0.52025  398.660
 3593.00    0.53028   0.52220  385.159
 3594.00    0.53133   0.52572  384.004
 3595.00    0.53554   0.53546  376.990
 3596.00    0.54587   0.54775  364.232
 3597.00    0.55843   0.55882  347.104
 3598.00    0.56248   0.56735  337.144
 3599.00    0.57594   0.57059  328.632
 3600.00    0.56803   0.56531  324.147
 3601.00    0.55567   0.55063  329.227
 3602.00    0.54331   0.53134   -1.000
 3603.00    0.52966   0.51540   -1.000
 3604.00    0.52409   0.50904   -1.000
 3605.00    0.52378   0.51130   -1.000
 3606.00    0.52660   0.51365   -1.000
 3607.00    0.52429   0.50978   -1.000
 3608.00    0.50918   0.50073   -1.000
 3609.00    0.49653   0.49613  410.190
 3610.00    0.49685   0.50235  415.483
 3611.00    0.50352   0.51197   -1.000
 3612.00    0.51536   0.51896  393.636
 3613.00    0.52272   0.52504  379.996
 3614.00    0.52955   0.53332  371.231
 3615.00    0.53801   0.54133  363.898
 3616.00    0.54072   0.53642  351.747
 3617.00    0.52954   0.51445   -1.000
 3618.00    0.50449   0.49505   -1.000
 3619.00    0.48859   0.49414  238.672
 3620.00    0.50054   0.51015   46.549
 3621.00    0.52359   0.53095   -1.000
 3622.00    0.54531   0.54646  365.815
 3623.00    0.55449   0.55517  346.164
 3624.00    0.56004   0.56472  338.384
 3625.00    0.56934   0.58103   -1.000
 3626.00    0.58378   0.59946   -1.000
 3627.00    0.59701   0.61086   -1.000
 3628.00    0.58831   0.60377   -1.000
 3629.00    0.56750   0.57506  311.404
 3630.00    0.53455   0.53907  332.240
 3631.00    0.50763   0.51450  371.491
 3632.00    0.50329   0.51117   -1.000
 3633.00    0.51550   0.52264   -1.000
 3634.00    0.52715   0.53596   -1.000
 3635.00    0.53080   0.54261   -1.000
 3636.00    0.54042   0.54641  367.548
 3637.00    0.55180   0.55590  353.350
 3638.00    0.57473   0.57101  336.678
 3639.00    0.58228   0.58526  321.848
 3640.00    0.58827   0.58917  311.976
 3641.00    0.57791   0.58048  312.432
 3642.00    0.55673   0.56406  320.681
 3643.00    0.55217   0.54749  332.098
 3644.00    0.54123   0.53723  349.675
 3645.00    0.53464   0.53232  359.415
 3646.00    0.53107   0.52795  365.442
 3647.00    0.52705   0.52459  371.101
 3648.00    0.52408   0.52516  377.437
 3649.00    0.52923   0.53122  376.760
 3650.00    0.53902   0.54319  365.902
 3651.00    0.55721   0.55928  350.771
 3652.00    0.57634   0.57454  333.882
 3653.00    0.59034   0.58598  320.372
 3654.00    0.59138   0.59255  312.861
 3655.00    0.59228   0.59766  308.826
 3656.00    0.60237   0.60515  307.641
 3657.00    0.60713   0.61230  304.056
 3658.00    0.61047   0.61590  300.755
 3659.00    0.61007   0.61554  295.989
 3660.00    0.60592   0.61169  296.391
 3661.00    0.60554   0.60504  296.607
 3662.00    0.59945   0.59699  299.969
 3663.00    0.59360   0.59011  303.329
 3664.00    0.59150   0.58763  308.371
 3665.00    0.59059   0.58884  310.192
 3666.00    0.60070   0.58957   -1.000
 3667.00    0.60055   0.58509   -1.000
 3668.00    0.58739   0.57653   -1.000
 3669.00    0.57380   0.57370  317.456
 3670.00    0.57464   0.58095  324.697
 3671.00    0.58915   0.59355  321.619
 3672.00    0.60559   0.60292  309.734
 3673.00    0.61169   0.60430  304.001
 3674.00    0.60834   0.59951  303.101
 3675.00    0.60532   0.58984   -1.000
 3676.00    0.59563   0.57723   -1.000
 3677.00    0.58419   0.56452   -1.000
 3678.00    0.57354   0.55439   -1.000
 3679.00    0.56229   0.54999   -1.000
 3680.00    0.56186   0.55152   -1.000
 3681.00    0.57524   0.55771   -1.000
 3682.00    0.58225   0.56522   -1.000
 3683.00    0.58277   0.56909   -1.000
 3684.00    0.57979   0.56379   -1.000
 3685.00    0.57027   0.54874   -1.000
 3686.00    0.55382   0.53459   -1.000
 3687.00    0.54732   0.53288   -1.000
 3688.00    0.56181   0.54703   -1.000
 3689.00    0.58330   0.56976   -1.000
 3690.00    0.60402   0.58973   -1.000
 3691.00    0.61511   0.59846   -1.000
 3692.00    0.61714   0.59879   -1.000
 3693.00    0.61526   0.59768   -1.000
 3694.00    0.61372   0.59574   -1.000
 3695.00    0.61367   0.59117   -1.000
 3696.00    0.61366   0.58747   -1.000
 3697.00    0.61589   0.59320   -1.000
 3698.00    0.62412   0.61139   -1.000
 3699.00    0.64216   0.63326  292.304
 3700.00    0.65916   0.64346   -1.000
 3701.00    0.65317   0.63056   -1.000
 3702.00    0.62711   0.59485   -1.000
 3703.00    0.59264   0.55134   -1.000
 3704.00    0.55279   0.51801   -1.000
 3705.00    0.53847   0.50755   -1.000
 3706.00    0.54452   0.51662   -1.000
 3707.00    0.55618   0.53220   -1.000
 3708.00    0.56751   0.54445   -1.000
 3709.00    0.57298   0.54842   -1.000
 3710.00    0.58080   0.54758   -1.000
 3711.00    0.58654   0.55319   -1.000
 3712.00    0.60795   0.57314   -1.000
 3713.00    0.63504   0.60256   -1.000
 3714.00    0.65988   0.63106   -1.000
 3715.00    0.67334   0.64883   -1.000
 3716.00    0.67596   0.65053   -1.000
 3717.00    0.66224   0.63504   -1.000
 3718.00    0.63260   0.59896   -1.000
 3719.00    0.57496   0.54461   -1.000
 3720.00    0.52983   0.49426   -1.000
 3721.00    0.49688   0.47037   -1.000
 3722.00    0.50134   0.48153   46.352
 3723.00    0.54579   0.52191   -1.000
 3724.00    0.60227   0.57175   -1.000
 3725.00    0.63495   0.60517   -1.000
 3726.00    0.64620   0.61606   -1.000
 3727.00    0.63181   0.62032   -1.000
 3728.00    0.63231   0.62696  324.834
 3729.00    0.63544   0.63043  326.882
 3730.00    0.63771   0.61772   -1.000
 3731.00    0.61543   0.58040   -1.000
 3732.00    0.57046   0.52587   -1.000
 3733.00    0.51636   0.47108   -1.000
 3734.00    0.47362   0.43453   43.295
 3735.00    0.45597   0.42934   48.360
 3736.00    0.47125   0.45610   49.880
 3737.00    0.51388   0.50488   47.204
 3738.00    0.55927   0.56289   45.261
 3739.00    0.60784   0.61381  377.373
 3740.00    0.64451   0.64420  340.479
 3741.00    0.65630   0.65117  321.939
 3742.00    0.64377   0.63927  321.191
 3743.00    0.62492   0.61584  334.581
 3744.00    0.60444   0.58953   -1.000
 3745.00    0.57662   0.56354   -1.000
 3746.00    0.55858   0.53496   -1.000
 3747.00    0.53222   0.49866   -1.000
 3748.00    0.49285   0.45886   43.780
 3749.00    0.46887   0.43711   46.510
 3750.00    0.48117   0.45089   49.317
 3751.00    0.53221   0.49636   -1.000
 3752.00    0.58684   0.55604   -1.000
 3753.00    0.63857   0.61298   -1.000
 3754.00    0.68480   0.65452   -1.000
 3755.00    0.70531   0.67123   -1.000
 3756.00    0.69640   0.65914   -1.000
 3757.00    0.66231   0.62904   -1.000
 3758.00    0.62649   0.60191   -1.000
 3759.00    0.61262   0.59355   -1.000
 3760.00    0.62353   0.60243   -1.000
 3761.00    0.64962   0.61630   -1.000
 3762.00    0.66905   0.62809   -1.000
 3763.00    0.66480   0.63480   -1.000
 3764.00    0.66455   0.63322   -1.000
 3765.00    0.65901   0.62153   -1.000
 3766.00    0.64560   0.60186   -1.000
 3767.00    0.62469   0.57706   -1.000
 3768.00    0.60979   0.54891   -1.000
 3769.00    0.60124   0.52225   -1.000
 3770.00    0.58728   0.50882   -1.000
 3771.00    0.58855   0.52151   -1.000
 3772.00    0.61898   0.55777   -1.000
 3773.00    0.65253   0.59749   -1.000
 3774.00    0.67767   0.62727   -1.000
 3775.00    0.69094   0.64852   -1.000
 3776.00    0.69982   0.66728   -1.000
 3777.00    0.71613   0.68760   -1.000
 3778.00    0.73392   0.70921   -1.000
 3779.00    0.75181   0.72929   -1.000
 3780.00    0.76299   0.74461   -1.000
 3781.00    0.77529   0.75414   -1.000
 3782.00    0.77891   0.75890   -1.000
 3783.00    0.78077   0.75764   -1.000
 3784.00    0.77079   0.74612   -1.000
 3785.00    0.75620   0.72308   -1.000
 3786.00    0.72898   0.69599   -1.000
 3787.00    0.69620   0.67465   -1.000
 3788.00    0.68654   0.66334   -1.000
 3789.00    0.68336   0.65997   -1.000
 3790.00    0.68783   0.65970   -1.000
 3791.00    0.69162   0.65524   -1.000
 3792.00    0.67984   0.64043   -1.000
 3793.00    0.65750   0.61487   -1.000
 3794.00    0.62942   0.58129   -1.000
 3795.00    0.59930   0.54305   -1.000
 3796.00    0.56636   0.50261   -1.000
 3797.00    0.53376   0.46835   -1.000
 3798.00    0.52102   0.46127   -1.000
 3799.00    0.54804   0.49292   -1.000
 3800.00    0.58863   0.54977   -1.000
 3801.00    0.63808   0.61085   -1.000
 3802.00    0.68059   0.65962   -1.000
 3803.00    0.70779   0.69003   -1.000
 3804.00    0.72302   0.70330   -1.000
 3805.00    0.71867   0.70230   -1.000
 3806.00    0.70518   0.69672  308.275
 3807.00    0.70347   0.70184  320.033
 3808.00    0.72024   0.72109  325.539
 3809.00    0.74398   0.74494  316.498
 3810.00    0.75898   0.75939  304.398
 3811.00    0.75665   0.75357  301.560
 3812.00    0.73673   0.72805  308.102
 3813.00    0.71090   0.69382   -1.000
 3814.00    0.68733   0.66678   -1.000
 3815.00    0.67292   0.65991   -1.000
 3816.00    0.68190   0.67093   -1.000
 3817.00    0.69054   0.68159  374.209
 3818.00    0.69446   0.67675   -1.000
 3819.00    0.67574   0.65671   -1.000
 3820.00    0.65196   0.63920   -1.000
 3821.00    0.64330   0.63919  413.327
 3822.00    0.66050   0.64611   -1.000
 3823.00    0.66645   0.64088   -1.000
 3824.00    0.64346   0.62029   -1.000
 3825.00    0.60898   0.59660   -1.000
 3826.00    0.59556   0.58167   45.147
 3827.00    0.59369   0.57607   46.057
 3828.00    0.58879   0.57326   45.617
 3829.00    0.59145   0.56599   44.870
 3830.00    0.58026   0.54953   44.175
 3831.00    0.55780   0.52180   44.806
 3832.00    0.51956   0.48466   46.947
 3833.00    0.48427   0.44523   50.698
 3834.00    0.47010   0.41688   52.103
 3835.00    0.47004   0.40958   -1.000
 3836.00    0.48278   0.42159   48.913
 3837.00    0.49241   0.44419   47.933
 3838.00    0.50600   0.47063   49.016
 3839.00    0.52489   0.50225   50.143
 3840.00    0.55457   0.54237   49.131
 3841.00    0.59492   0.58792   47.662
 3842.00    0.64018   0.63200  418.853
 3843.00    0.67923   0.66664   -1.000
 3844.00    0.70072   0.68843   -1.000
 3845.00    0.71384   0.70289   -1.000
 3846.00    0.72160   0.71617  349.795
 3847.00    0.72227   0.72629  349.610
 3848.00    0.72129   0.72766  350.529
 3849.00    0.71440   0.72453   -1.000
 3850.00    0.71178   0.72561   -1.000
 3851.00    0.71537   0.73457   -1.000
 3852.00    0.73396   0.74552   -1.000
 3853.00    0.73986   0.74722   -1.000
 3854.00    0.73423   0.73771  362.953
 3855.00    0.72503   0.72443  372.527
 3856.00    0.70563   0.71112  383.464
 3857.00    0.69457   0.69729  389.135
 3858.00    0.67597   0.68412   -1.000
 3859.00    0.65304   0.67921   42.786
 3860.00    0.65367   0.69046   45.424
 3861.00    0.68652   0.71426   45.397
 3862.00    0.72431   0.73805   -1.000
 3863.00    0.75516   0.74882  356.180
 3864.00    0.76560   0.74834   -1.000
 3865.00    0.75782   0.74526   -1.000
 3866.00    0.74870   0.74386  350.806
 3867.00    0.74556   0.74520  356.079
 3868.00    0.74649   0.74462  363.279
 3869.00    0.72633   0.73506   -1.000
 3870.00    0.69737   0.71470   -1.000
 3871.00    0.67701   0.69055   -1.000
 3872.00    0.67027   0.67703   44.180
 3873.00    0.68611   0.68394  418.326
 3874.00    0.71891   0.70668   -1.000
 3875.00    0.73879   0.72250   -1.000
 3876.00    0.73176   0.71578   -1.000
 3877.00    0.70091   0.69402  344.285
 3878.00    0.67150   0.67608  373.809
 3879.00    0.66910   0.67115  398.376
 3880.00    0.66568   0.67192  400.648
 3881.00    0.65415   0.66844   -1.000
 3882.00    0.64275   0.65909   -1.000
 3883.00    0.65317   0.64559  399.043
 3884.00    0.66619   0.62465   -1.000
 3885.00    0.64769   0.58879   -1.000
 3886.00    0.61186   0.54071   -1.000
 3887.00    0.58442   0.49679   -1.000
 3888.00    0.56263   0.47332   -1.000
 3889.00    0.56785   0.48201   -1.000
 3890.00    0.60445   0.52166   -1.000
 3891.00    0.65161   0.57594   -1.000
 3892.00    0.70107   0.62071   -1.000
 3893.00    0.71906   0.64617   -1.000
 3894.00    0.72396   0.66066   -1.000
 3895.00    0.72879   0.67633   -1.000
 3896.00    0.74436   0.69545   -1.000
 3897.00    0.76794   0.71007   -1.000
 3898.00    0.77318   0.71664   -1.000
 3899.00    0.76611   0.72160   -1.000
 3900.00    0.77018   0.73100   -1.000
 3901.00    0.78217   0.74179   -1.000
 3902.00    0.79476   0.74628   -1.000
 3903.00    0.78768   0.74015   -1.000
 3904.00    0.77136   0.72926   -1.000
 3905.00    0.75763   0.72478   -1.000
 3906.00    0.76071   0.73423   -1.000
 3907.00    0.78297   0.75867   -1.000
 3908.00    0.81543   0.78884   -1.000
 3909.00    0.83805   0.81097   -1.000
 3910.00    0.85473   0.82255   -1.000
 3911.00    0.86213   0.82666   -1.000
 3912.00    0.85847   0.82414   -1.000
 3913.00    0.84619   0.81681   -1.000
 3914.00    0.83602   0.80859   -1.000
 3915.00    0.83167   0.80207   -1.000
 3916.00    0.82571   0.79735   -1.000
 3917.00    0.81614   0.79094   -1.000
 3918.00    0.80768   0.78005   -1.000
 3919.00    0.78649   0.76637   -1.000
 3920.00    0.77509   0.75516   -1.000
 3921.00    0.76162   0.75241  319.006
 3922.00    0.76500   0.75747  325.216
 3923.00    0.77513   0.76280   -1.000
 3924.00    0.77323   0.75914   -1.000
 3925.00    0.75463   0.74198   -1.000
 3926.00    0.71700   0.71191  335.415
 3927.00    0.67075   0.67124  368.460
 3928.00    0.61948   0.62491  387.219
 3929.00    0.55660   0.57404   47.824
 3930.00    0.50363   0.51664   56.079
 3931.00    0.44731   0.45494   65.606
 3932.00    0.38041   0.39758   77.660
 3933.00    0.33167   0.36556   -1.000
 3934.00    0.31161   0.37608   -1.000
 3935.00    0.34977   0.42440   -1.000
 3936.00    0.42574   0.49108   -1.000
 3937.00    0.50626   0.55985   -1.000
 3938.00    0.57657   0.61962   55.572
 3939.00    0.63386   0.66776   47.027
 3940.00    0.67091   0.70194   -1.000
 3941.00    0.69191   0.71985   -1.000
 3942.00    0.71035   0.72550   -1.000
 3943.00    0.71047   0.72657   -1.000
 3944.00    0.72382   0.73253   -1.000
 3945.00    0.75862   0.74680   -1.000
 3946.00    0.78459   0.76151   -1.000
 3947.00    0.79531   0.76973   -1.000
 3948.00    0.79941   0.77488   -1.000
 3949.00    0.80613   0.78131   -1.000
 3950.00    0.81496   0.78558   -1.000
 3951.00    0.81886   0.78563   -1.000
 3952.00    0.81492   0.78637   -1.000
 3953.00    0.82239   0.79093   -1.000
 3954.00    0.83452   0.79324   -1.000
 3955.00    0.82437   0.78563   -1.000
 3956.00    0.80328   0.77354   -1.000
 3957.00    0.79369   0.76792   -1.000
 3958.00    0.79879   0.76557   -1.000
 3959.00    0.78772   0.75233   -1.000
 3960.00    0.75052   0.72025   -1.000
 3961.00    0.70116   0.67709   -1.000
 3962.00    0.64921   0.63785   -1.000
 3963.00    0.61557   0.60355   -1.000
 3964.00    0.58132   0.56380   -1.000
 3965.00    0.51811   0.50683   44.933
 3966.00    0.43688   0.43156   52.778
 3967.00    0.35688   0.35890   65.195
 3968.00    0.29974   0.31290   79.741
 3969.00    0.28770   0.30773   87.948
 3970.00    0.32738   0.34281   81.471
 3971.00    0.40375   0.40529   67.056
 3972.00    0.48400   0.47700   55.084
 3973.00    0.55507   0.54708   46.093
 3974.00    0.62248   0.60937   -1.000
 3975.00    0.68392   0.66210   -1.000
 3976.00    0.73013   0.70633   -1.000
 3977.00    0.76907   0.74428   -1.000
 3978.00    0.80095   0.77918   -1.000
 3979.00    0.84063   0.80630   -1.000
 3980.00    0.85705   0.81969   -1.000
 3981.00    0.85776   0.82074   -1.000
 3982.00    0.85847   0.81956   -1.000
 3983.00    0.85713   0.82528   -1.000
 3984.00    0.87065   0.83684   -1.000
 3985.00    0.89343   0.84850   -1.000
 3986.00    0.90921   0.85908   -1.000
 3987.00    0.91659   0.87045   -1.000
 3988.00    0.92754   0.88216   -1.000
 3989.00    0.93148   0.89146   -1.000
 3990.00    0.93035   0.89932   -1.000
 3991.00    0.94226   0.90884   -1.000
 3992.00    0.96671   0.91792   -1.000
 3993.00    0.96426   0.92008   -1.000
 3994.00    0.94716   0.91259   -1.000
 3995.00    0.93501   0.89858   -1.000
 3996.00    0.91650   0.88549   -1.000
 3997.00    0.90769   0.88224   -1.000
 3998.00    0.92086   0.89147   -1.000
 3999.00    0.94225   0.90821   -1.000
 4000.00    0.96536   0.92621   -1.000
 4001.00    0.97836   0.93766   -1.000
 4002.00    0.98960   0.93647   -1.000
 4003.00    0.98314   0.92104   -1.000
 4004.00    0.95357   0.89596   -1.000
 4005.00    0.92253   0.87597   -1.000
 4006.00    0.91892   0.87913   -1.000
 4007.00    0.94470   0.90258   -1.000
 4008.00    0.97730   0.92913   -1.000
 4009.00    0.99176   0.94669   -1.000
 4010.00    0.99077   0.95376   -1.000
 4011.00    0.99256   0.95526   -1.000
 4012.00    0.98943   0.95596   -1.000
 4013.00    0.98965   0.95847   -1.000
 4014.00    0.99270   0.96171   -1.000
 4015.00    0.99981   0.96349   -1.000
 4016.00    1.00017   0.96434   -1.000
 4017.00    0.99603   0.96693   -1.000
 4018.00    1.00046   0.97303   -1.000
 4019.00    1.01059   0.97976   -1.000
 4020.00    1.01063   0.98299   -1.000
 4021.00    1.00378   0.98086   -1.000
 4022.00    0.99613   0.97467   -1.000
 4023.00    0.99344   0.96608   -1.000
 4024.00    0.99331   0.95991   -1.000
 4025.00    0.99199   0.96344   -1.000
 4026.00    1.01017   0.97729   -1.000
 4027.00    1.03517   0.99000   -1.000
 4028.00    1.03176   0.98587   -1.000
 4029.00    1.00634   0.96359   -1.000
 4030.00    0.97235   0.93515   -1.000
 4031.00    0.94770   0.91352   -1.000
 4032.00    0.94280   0.90658   -1.000
 4033.00    0.95012   0.91373   -1.000
 4034.00    0.96045   0.93198   -1.000
 4035.00    0.98636   0.95841   -1.000
 4036.00    1.02357   0.98982   -1.000
 4037.00    1.05075   1.01626   -1.000
 4038.00    1.05778   1.02558   -1.000
 4039.00    1.04631   1.01813   -1.000
 4040.00    1.03008   1.00744   -1.000
 4041.00    1.02517   0.99981   -1.000
 4042.00    1.02032   0.98782   -1.000
 4043.00    1.00170   0.95869   -1.000
 4044.00    0.95051   0.91702   -1.000
 4045.00    0.89741   0.89259  235.452
 4046.00    0.91233   0.90251  253.709
 4047.00    0.96320   0.93807   -1.000
 4048.00    1.01290   0.97784   -1.000
 4049.00    1.04020   1.00391   -1.000
 4050.00    1.04028   1.01257   -1.000
 4051.00    1.03719   1.00800   -1.000
 4052.00    1.02911   0.99458   -1.000
 4053.00    1.01175   0.97923   -1.000
 4054.00    1.00000   0.97030   -1.000
 4055.00    0.99761   0.96611   -1.000
 4056.00    0.99578   0.96205   -1.000
 4057.00    0.98930   0.96145   -1.000
 4058.00    0.99158   0.96974   -1.000
 4059.00    1.01329   0.98496   -1.000
 4060.00    1.03301   0.99124   -1.000
 4061.00    1.02279   0.97551   -1.000
 4062.00    0.98164   0.94471   -1.000
 4063.00    0.94204   0.91631   -1.000
 4064.00    0.93821   0.90516   -1.000
 4065.00    0.95869   0.91072   -1.000
 4066.00    0.97753   0.92473   -1.000
 4067.00    0.99276   0.94169   -1.000
 4068.00    1.01634   0.95668   -1.000
 4069.00    1.02719   0.95858   -1.000
 4070.00    1.01355   0.94374   -1.000
 4071.00    0.98194   0.92590   -1.000
 4072.00    0.97548   0.92208   -1.000
 4073.00    0.98836   0.93136   -1.000
 4074.00    1.00476   0.93349   -1.000
 4075.00    0.98400   0.91634   -1.000
 4076.00    0.93746   0.88983   -1.000
 4077.00    0.90554   0.87378   -1.000
 4078.00    0.90862   0.88209   -1.000
 4079.00    0.94359   0.91184   -1.000
 4080.00    0.99113   0.94621   -1.000
 4081.00    1.01378   0.96407   -1.000
 4082.00    1.01705   0.95987   -1.000
 4083.00    0.99790   0.94386   -1.000
 4084.00    0.98053   0.93291   -1.000
 4085.00    0.97891   0.93747   -1.000
 4086.00    0.99970   0.95545   -1.000
 4087.00    1.02870   0.97656   -1.000
 4088.00    1.04553   0.98809   -1.000
 4089.00    1.04600   0.98511   -1.000
 4090.00    1.03360   0.97242   -1.000
 4091.00    1.02222   0.95961   -1.000
 4092.00    1.00226   0.94956   -1.000
 4093.00    0.99825   0.93733   -1.000
 4094.00    0.98794   0.91732   -1.000
 4095.00    0.96196   0.88912   -1.000
 4096.00    0.93329   0.85842   -1.000
 4097.00    0.90540   0.82608   -1.000
 4098.00    0.88458   0.78533   -1.000
 4099.00    0.84375   0.72958   -1.000
 4100.00    0.77842   0.66707   -1.000
 4101.00    0.71514   0.62625   -1.000
 4102.00    0.71019   0.63155   -1.000
 4103.00    0.76230   0.68223   -1.000
 4104.00    0.83080   0.75393   -1.000
 4105.00    0.88672   0.81546   -1.000
 4106.00    0.92588   0.85538   -1.000
 4107.00    0.94358   0.87860   -1.000
 4108.00    0.94437   0.89099   -1.000
 4109.00    0.94961   0.89901   -1.000
 4110.00    0.95387   0.90889   -1.000
 4111.00    0.96048   0.92237   -1.000
 4112.00    0.97797   0.93827   -1.000
 4113.00    0.99490   0.95612   -1.000
 4114.00    1.00724   0.97464   -1.000
 4115.00    1.01936   0.98747   -1.000
 4116.00    1.02429   0.98950   -1.000
 4117.00    1.01547   0.98167   -1.000
 4118.00    1.00115   0.97108   -1.000
 4119.00    0.99033   0.96479   -1.000
 4120.00    0.98964   0.96558   -1.000
 4121.00    0.99734   0.97039   -1.000
 4122.00    1.00075   0.97619   -1.000
 4123.00    1.00877   0.98396   -1.000
 4124.00    1.02149   0.99316   -1.000
 4125.00    1.03362   0.99772   -1.000
 4126.00    1.02048   0.99276   -1.000
 4127.00    1.00529   0.98295   -1.000
 4128.00    0.99690   0.97643   -1.000
 4129.00    1.00004   0.97406   -1.000
 4130.00    0.99674   0.96762   -1.000
 4131.00    0.99027   0.95387   -1.000
 4132.00    0.96684   0.94216   -1.000
 4133.00    0.95595   0.94455  233.131
 4134.00    0.96619   0.96409  233.810
 4135.00    1.00189   0.99275  226.150
 4136.00    1.03058   1.02032  214.692
 4137.00    1.04308   1.04055  207.664
 4138.00    1.05816   1.05412  204.287
 4139.00    1.06590   1.05837  201.092
 4140.00    1.06103   1.04590  200.276
 4141.00    1.03035   1.01628  204.356
 4142.00    0.98392   0.98172  215.124
 4143.00    0.94634   0.95940   -1.000
 4144.00    0.95605   0.96409  245.844
 4145.00    0.98889   0.98936  237.070
 4146.00    1.02020   1.01356  222.764
 4147.00    1.02867   1.02339  214.384
 4148.00    1.02012   1.02142  212.098
 4149.00    1.01194   1.01908  216.092
 4150.00    1.00927   1.02128   -1.000
 4151.00    1.01036   1.02271   -1.000
 4152.00    1.00802   1.01723  223.387
 4153.00    0.99753   1.00560  222.089
 4154.00    0.98959   0.99587  224.138
 4155.00    0.98955   0.99547  227.843
 4156.00    0.99678   1.00464  222.228
 4157.00    1.00760   1.01895   -1.000
 4158.00    1.01609   1.03421   -1.000
 4159.00    1.01325   1.04598   -1.000
 4160.00    1.02510   1.05288   -1.000
 4161.00    1.05603   1.05810  214.155
 4162.00    1.05563   1.06444  207.612
 4163.00    1.04070   1.07060   -1.000
 4164.00    1.04601   1.07228   -1.000
 4165.00    1.04271   1.06610   -1.000
 4166.00    1.03179   1.05460   -1.000
 4167.00    1.02111   1.04494   -1.000
 4168.00    1.02544   1.04108   -1.000
 4169.00    1.03428   1.03478  219.548
 4170.00    1.02824   1.01508  215.727
 4171.00    0.99234   0.98392  217.894
 4172.00    0.94892   0.95672  230.814
 4173.00    0.93516   0.95174   -1.000
 4174.00    0.94653   0.96876   -1.000
 4175.00    0.96826   0.99023   -1.000
 4176.00    0.97796   1.00153   -1.000
 4177.00    0.97550   1.00549   -1.000
 4178.00    0.97697   1.01255   -1.000
 4179.00    0.99527   1.02357   -1.000
 4180.00    1.00602   1.02960   -1.000
 4181.00    1.01002   1.02709   -1.000
 4182.00    1.00388   1.02361   -1.000
 4183.00    1.00506   1.02763   -1.000
 4184.00    1.01842   1.03484   -1.000
 4185.00    1.02092   1.03419   -1.000
 4186.00    1.00693   1.02458   -1.000
 4187.00    0.98738   1.01498   -1.000
 4188.00    0.98420   1.01448   -1.000
 4189.00    1.00753   1.02242   -1.000
 4190.00    1.02013   1.03239   -1.000
 4191.00    1.02232   1.04333   -1.000
 4192.00    1.02914   1.05470   -1.000
 4193.00    1.04377   1.05931   -1.000
 4194.00    1.03979   1.05085  207.435
 4195.00    1.01147   1.03024   -1.000
 4196.00    0.98689   1.00470   -1.000
 4197.00    0.97576   0.98307  232.137
 4198.00    0.96173   0.96927  236.288
 4199.00    0.96533   0.96432  236.860
 4200.00    0.97406   0.96746  234.307
 4201.00    0.97851   0.97483  230.541
 4202.00    0.98368   0.98396  229.865
 4203.00    0.99138   0.99683  228.401
 4204.00    0.99809   1.01397   -1.000
 4205.00    1.00869   1.03298   -1.000
 4206.00    1.02202   1.05120   -1.000
 4207.00    1.03499   1.06413   -1.000
 4208.00    1.04193   1.06881   -1.000
 4209.00    1.03871   1.06782   -1.000
 4210.00    1.04261   1.06836   -1.000
 4211.00    1.04470   1.07385   -1.000
 4212.00    1.04423   1.07690   -1.000
 4213.00    1.03230   1.06689   -1.000
 4214.00    1.00568   1.04491   -1.000
 4215.00    0.98033   1.02490   -1.000
 4216.00    0.98352   1.02043   -1.000
 4217.00    1.01101   1.03558   -1.000
 4218.00    1.04942   1.06084   -1.000
 4219.00    1.07285   1.08072  200.048
 4220.00    1.08166   1.08790  194.416
 4221.00    1.08492   1.08010  192.254
 4222.00    1.06185   1.05424  193.920
 4223.00    1.02700   1.00994   -1.000
 4224.00    0.97524   0.95546   -1.000
 4225.00    0.90818   0.90678  237.253
 4226.00    0.85927   0.88601   -1.000
 4227.00    0.86650   0.90872   -1.000
 4228.00    0.93614   0.96535   -1.000
 4229.00    1.01714   1.02068  237.498
 4230.00    1.06108   1.05078  212.994
 4231.00    1.06245   1.05318  201.636
 4232.00    1.04518   1.03958  199.862
 4233.00    1.03250   1.02435  204.263
 4234.00    1.02036   1.01455  209.654
 4235.00    1.01326   1.00957  211.803
 4236.00    1.00378   1.00817  216.736
 4237.00    1.00950   1.01253  220.708
 4238.00    1.01788   1.02404  219.196
 4239.00    1.02669   1.03878   -1.000
 4240.00    1.03963   1.05209   -1.000
 4241.00    1.05458   1.06142  206.963
 4242.00    1.06028   1.06876  204.148
 4243.00    1.06570   1.07596  203.221
 4244.00    1.07552   1.07954  199.775
 4245.00    1.06820   1.07250  195.555
 4246.00    1.04176   1.05327  197.459
 4247.00    1.01467   1.03105   -1.000
 4248.00    1.00346   1.01704   -1.000
 4249.00    0.98968   1.01551   -1.000
 4250.00    0.99306   1.02448   -1.000
 4251.00    1.01688   1.03723   -1.000
 4252.00    1.03810   1.04516  215.575
 4253.00    1.03950   1.04097  209.468
 4254.00    1.02864   1.03313  210.485
 4255.00    1.02801   1.03652  216.190
 4256.00    1.04343   1.04804  213.626
 4257.00    1.05442   1.05082  205.330
 4258.00    1.04154   1.03499  203.472
 4259.00    1.00747   1.01153  211.092
 4260.00    0.99182   1.00279  222.776
 4261.00    0.99926   1.01981   -1.000
 4262.00    1.03343   1.05381   -1.000
 4263.00    1.06479   1.08531   -1.000
 4264.00    1.08888   1.10336   -1.000
 4265.00    1.09545   1.10650  192.261
 4266.00    1.09446   1.09923  191.690
 4267.00    1.07759   1.08483  194.750
 4268.00    1.05406   1.06227  201.173
 4269.00    1.03211   1.03106  207.312
 4270.00    0.99711   0.99669  215.264
 4271.00    0.95427   0.96861   -1.000
 4272.00    0.94156   0.95722   -1.000
 4273.00    0.95221   0.96364   -1.000
 4274.00    0.96976   0.98190   -1.000
 4275.00    0.99463   1.01014   -1.000
 4276.00    1.03109   1.04527   -1.000
 4277.00    1.06557   1.07341  210.198
 4278.00    1.07420   1.08148  200.289
 4279.00    1.05295   1.07111   -1.000
 4280.00    1.03445   1.05706   -1.000
 4281.00    1.02158   1.05050   -1.000
 4282.00    1.02039   1.05144   -1.000
 4283.00    1.02935   1.05035   -1.000
 4284.00    1.02656   1.04303   -1.000
 4285.00    1.01088   1.03189   -1.000
 4286.00    0.99406   1.01716   -1.000
 4287.00    0.98598   0.99804  226.287
 4288.00    0.95954   0.97353   -1.000
 4289.00    0.92849   0.95186   -1.000
 4290.00    0.91289   0.94923   -1.000
 4291.00    0.93704   0.96853   -1.000
 4292.00    0.98460   0.99370  238.840
 4293.00    1.00832   1.00756  223.620
 4294.00    0.99921   1.00486  219.026
 4295.00    0.99376   0.99149  220.880
 4296.00    0.98224   0.97112  224.506
 4297.00    0.94999   0.94170  229.607
 4298.00    0.90547   0.90416  241.056
 4299.00    0.86481   0.87115  261.797
 4300.00    0.84542   0.85386  281.520
 4301.00    0.84686   0.85346  285.706
 4302.00    0.86023   0.86362  277.535
 4303.00    0.87027   0.87914  273.146
 4304.00    0.88439   0.89384  269.009
 4305.00    0.89559   0.89718  265.723
 4306.00    0.88387   0.88423  266.713
 4307.00    0.85670   0.86389  275.734
 4308.00    0.82985   0.85259   -1.000
 4309.00    0.83523   0.86201   -1.000
 4310.00    0.86629   0.88733   -1.000
 4311.00    0.89405   0.91415   -1.000
 4312.00    0.91850   0.93879   -1.000
 4313.00    0.94164   0.96897   -1.000
 4314.00    0.96913   1.01162   -1.000
 4315.00    1.01647   1.06556   -1.000
 4316.00    1.07927   1.11509   -1.000
 4317.00    1.11925   1.14534   -1.000
 4318.00    1.12440   1.15169   -1.000
 4319.00    1.11498   1.14126   -1.000
 4320.00    1.10207   1.12170   -1.000
 4321.00    1.08713   1.09267  187.457
 4322.00    1.05904   1.05145  193.759
 4323.00    1.01321   1.00287  203.231
 4324.00    0.95918   0.96296  218.124
 4325.00    0.93041   0.95084   -1.000
 4326.00    0.95062   0.97550   -1.000
 4327.00    1.00719   1.02403   -1.000
 4328.00    1.05966   1.06575  208.278
 4329.00    1.07800   1.08479  193.033
 4330.00    1.07771   1.08616  188.971
 4331.00    1.07473   1.08383  189.658
 4332.00    1.07532   1.08404  188.685
 4333.00    1.07492   1.08082  185.431
 4334.00    1.07153   1.06530  183.483
 4335.00    1.05613   1.02862   -1.000
 4336.00    1.00996   0.96476   -1.000
 4337.00    0.94068   0.88014   -1.000
 4338.00    0.86493   0.79694   -1.000
 4339.00    0.79020   0.73934   -1.000
 4340.00    0.75388   0.72810   -1.000
 4341.00    0.78488   0.76856   -1.000
 4342.00    0.85866   0.84101   -1.000
 4343.00    0.93081   0.91260   -1.000
 4344.00    0.98046   0.96828  207.098
 4345.00    1.01735   1.01061  200.360
 4346.00    1.04505   1.04536  194.896
 4347.00    1.06509   1.07382  191.519
 4348.00    1.07988   1.08994  189.466
 4349.00    1.08016   1.08428  186.382
 4350.00    1.05401   1.05724  186.761
 4351.00    1.01155   1.02867   -1.000
 4352.00    0.99051   1.02233   -1.000
 4353.00    1.01870   1.04330   -1.000
 4354.00    1.06500   1.07760   -1.000
 4355.00    1.08902   1.10643   -1.000
 4356.00    1.10592   1.12286   -1.000
 4357.00    1.11125   1.12884   -1.000
 4358.00    1.10072   1.12935   -1.000
 4359.00    1.09406   1.13181   -1.000
 4360.00    1.10560   1.14254   -1.000
 4361.00    1.12966   1.15898   -1.000
 4362.00    1.14277   1.17332   -1.000
 4363.00    1.14515   1.18408   -1.000
 4364.00    1.15595   1.19069   -1.000
 4365.00    1.15953   1.18678   -1.000
 4366.00    1.13839   1.17041   -1.000
 4367.00    1.11346   1.15040   -1.000
 4368.00    1.10418   1.13537   -1.000
 4369.00    1.10410   1.12707   -1.000
 4370.00    1.10695   1.12216   -1.000
 4371.00    1.11223   1.11489  190.336
 4372.00    1.10489   1.10001  190.130
 4373.00    1.08222   1.07853  191.952
 4374.00    1.05361   1.06155  199.593
 4375.00    1.04263   1.06376   -1.000
 4376.00    1.07149   1.08758   -1.000
 4377.00    1.11720   1.11780  199.794
 4378.00    1.13289   1.13885  189.768
 4379.00    1.13689   1.14235  186.138
 4380.00    1.12900   1.12305  187.083
 4381.00    1.10647   1.07863   -1.000
 4382.00    1.04642   1.01847   -1.000
 4383.00    0.97191   0.96808  220.739
 4384.00    0.94775   0.95901   -1.000
 4385.00    0.99133   0.99274  249.710
 4386.00    1.05000   1.03907  227.634
 4387.00    1.08637   1.07073  206.028
 4388.00    1.08994   1.08282  198.751
 4389.00    1.08650   1.08621  198.624
 4390.00    1.08991   1.09099  200.739
 4391.00    1.09888   1.10074  201.458
 4392.00    1.11339   1.11002  197.739
 4393.00    1.11126   1.11038  193.281
 4394.00    1.09906   1.10678  194.332
 4395.00    1.09214   1.11307   -1.000
 4396.00    1.11112   1.13091   -1.000
 4397.00    1.13506   1.14417  189.318
 4398.00    1.14171   1.13982  183.633
 4399.00    1.11563   1.12475  185.858
 4400.00    1.09027   1.11428   -1.000
 4401.00    1.09645   1.11433   -1.000
 4402.00    1.11070   1.11400  196.487
 4403.00    1.10369   1.10125  192.943
 4404.00    1.06843   1.08321   -1.000
 4405.00    1.05869   1.07567   -1.000
 4406.00    1.07605   1.08250  213.088
 4407.00    1.08710   1.09619  206.271
 4408.00    1.08911   1.11273   -1.000
 4409.00    1.10769   1.13791   -1.000
 4410.00    1.13653   1.16997   -1.000
 4411.00    1.16618   1.19273   -1.000
 4412.00    1.18343   1.19344  179.077
 4413.00    1.16756   1.17097  176.777
 4414.00    1.12165   1.13500  181.246
 4415.00    1.08639   1.10591   -1.000
 4416.00    1.08194   1.10312   -1.000
 4417.00    1.09699   1.12804   -1.000
 4418.00    1.12940   1.16588   -1.000
 4419.00    1.15850   1.19842   -1.000
 4420.00    1.16310   1.20988   -1.000
 4421.00    1.14667   1.20169   -1.000
 4422.00    1.13564   1.18890   -1.000
 4423.00    1.13610   1.18252   -1.000
 4424.00    1.13457   1.18187   -1.000
 4425.00    1.12811   1.18046   -1.000
 4426.00    1.11868   1.17794   -1.000
 4427.00    1.12040   1.17951   -1.000
 4428.00    1.12479   1.18457   -1.000
 4429.00    1.12416   1.18975   -1.000
 4430.00    1.12190   1.19316   -1.000
 4431.00    1.12210   1.19298   -1.000
 4432.00    1.12592   1.18586   -1.000
 4433.00    1.11635   1.16870   -1.000
 4434.00    1.09010   1.14863   -1.000
 4435.00    1.07690   1.14411   -1.000
 4436.00    1.10195   1.16534   -1.000
 4437.00    1.14689   1.20167   -1.000
 4438.00    1.18110   1.23136   -1.000
 4439.00    1.19416   1.23870   -1.000
 4440.00    1.18097   1.22021   -1.000
 4441.00    1.14312   1.18634   -1.000
 4442.00    1.10376   1.15932   -1.000
 4443.00    1.09098   1.15694   -1.000
 4444.00    1.11095   1.18056   -1.000
 4445.00    1.14630   1.21325   -1.000
 4446.00    1.17318   1.23652   -1.000
 4447.00    1.18158   1.24474   -1.000
 4448.00    1.18341   1.24384   -1.000
 4449.00    1.18084   1.24040   -1.000
 4450.00    1.17681   1.23655   -1.000
 4451.00    1.17620   1.23063   -1.000
 4452.00    1.17870   1.21608   -1.000
 4453.00    1.16048   1.18835   -1.000
 4454.00    1.12807   1.15716   -1.000
 4455.00    1.10632   1.13893   -1.000
 4456.00    1.11167   1.14034   -1.000
 4457.00    1.12949   1.15229   -1.000
 4458.00    1.14007   1.16256   -1.000
 4459.00    1.13588   1.16776   -1.000
 4460.00    1.12633   1.17112   -1.000
 4461.00    1.12415   1.17641   -1.000
 4462.00    1.13341   1.18704   -1.000
 4463.00    1.15542   1.20295   -1.000
 4464.00    1.18029   1.21735   -1.000
 4465.00    1.18456   1.22335   -1.000
 4466.00    1.17739   1.21881   -1.000
 4467.00    1.17177   1.20724   -1.000
 4468.00    1.15488   1.19638   -1.000
 4469.00    1.14403   1.19558   -1.000
 4470.00    1.15109   1.20892   -1.000
 4471.00    1.18194   1.23246   -1.000
 4472.00    1.21247   1.25888   -1.000
 4473.00    1.23526   1.28062   -1.000
 4474.00    1.24708   1.29280   -1.000
 4475.00    1.25110   1.29692   -1.000
 4476.00    1.25101   1.29771   -1.000
 4477.00    1.25942   1.29519   -1.000
 4478.00    1.25512   1.28295   -1.000
 4479.00    1.23482   1.25634   -1.000
 4480.00    1.20190   1.22263   -1.000
 4481.00    1.17018   1.20178   -1.000
 4482.00    1.17017   1.20697   -1.000
 4483.00    1.19474   1.23438   -1.000
 4484.00    1.23123   1.27013   -1.000
 4485.00    1.25206   1.29714   -1.000
 4486.00    1.25911   1.30420   -1.000
 4487.00    1.24963   1.29158   -1.000
 4488.00    1.22556   1.26999   -1.000
 4489.00    1.19976   1.25320   -1.000
 4490.00    1.19936   1.25148   -1.000
 4491.00    1.21767   1.26297   -1.000
 4492.00    1.22992   1.27630   -1.000
 4493.00    1.22427   1.27976   -1.000
 4494.00    1.21273   1.27331   -1.000
 4495.00    1.19779   1.26917   -1.000
 4496.00    1.19958   1.27413   -1.000
 4497.00    1.22043   1.28452   -1.000
 4498.00    1.24331   1.29338   -1.000
 4499.00    1.25432   1.29604   -1.000
 4500.00    1.24410   1.29355   -1.000
 4501.00    1.23363   1.29583   -1.000
 4502.00    1.24117   1.31084   -1.000
 4503.00    1.26573   1.33390   -1.000
 4504.00    1.28634   1.35428   -1.000
 4505.00    1.29893   1.36301   -1.000
 4506.00    1.29142   1.35940   -1.000
 4507.00    1.27930   1.34987   -1.000
 4508.00    1.28251   1.34370   -1.000
 4509.00    1.28644   1.34484   -1.000
 4510.00    1.28976   1.34826   -1.000
 4511.00    1.28968   1.34658   -1.000
 4512.00    1.27877   1.33758   -1.000
 4513.00    1.26664   1.32519   -1.000
 4514.00    1.26415   1.31382   -1.000
 4515.00    1.26242   1.30695   -1.000
 4516.00    1.25419   1.30547   -1.000
 4517.00    1.24685   1.30444   -1.000
 4518.00    1.24442   1.30153   -1.000
 4519.00    1.25023   1.30092   -1.000
 4520.00    1.26163   1.30402   -1.000
 4521.00    1.26112   1.30609   -1.000
 4522.00    1.24886   1.30162   -1.000
 4523.00    1.24075   1.29131   -1.000
 4524.00    1.23499   1.27969   -1.000
 4525.00    1.22687   1.26660   -1.000
 4526.00    1.20950   1.24850   -1.000
 4527.00    1.18801   1.22620   -1.000
 4528.00    1.17489   1.20821   -1.000
 4529.00    1.17332   1.20374   -1.000
 4530.00    1.18233   1.21192   -1.000
 4531.00    1.20604   1.22249   -1.000
 4532.00    1.20436   1.22283   -1.000
 4533.00    1.18509   1.21176   -1.000
 4534.00    1.15944   1.20249   -1.000
 4535.00    1.15769   1.21089   -1.000
 4536.00    1.19987   1.24183   -1.000
 4537.00    1.25513   1.28369   -1.000
 4538.00    1.28193   1.31718   -1.000
 4539.00    1.28591   1.32910   -1.000
 4540.00    1.27433   1.32367   -1.000
 4541.00    1.27000   1.31511   -1.000
 4542.00    1.26825   1.31262   -1.000
 4543.00    1.26421   1.31352   -1.000
 4544.00    1.25245   1.31032   -1.000
 4545.00    1.24147   1.30252   -1.000
 4546.00    1.27098   1.29353   84.975
 4547.00    1.12104   1.28155   -1.000
 4548.00    0.23368   1.26470   -1.000
 4549.00   -0.02469   1.25065    0.000
 4550.00    0.15730   1.25095   -1.000
 4551.00    0.86551   1.26435   -1.000
 4552.00    0.34480   1.27517   -1.000
 4553.00    0.94231   1.27322   -1.000
 4554.00    1.22147   1.26514   -1.000
 4555.00    1.21335   1.26449   -1.000
 4556.00    1.24125   1.27985   -1.000
 4557.00    1.27275   1.30676   -1.000
 4558.00    1.29302   1.33286   -1.000
 4559.00    1.30331   1.35154   -1.000
 4560.00    1.30776   1.36193   -1.000
 4561.00    1.30437   1.36324   -1.000
 4562.00    1.29616   1.35392   -1.000
 4563.00    1.27459   1.33626   -1.000
 4564.00    1.25800   1.31983   -1.000
 4565.00    1.26066   1.31530   -1.000
 4566.00    1.27915   1.32606   -1.000
 4567.00    1.30027   1.34497   -1.000
 4568.00    1.31183   1.35852   -1.000
 4569.00    1.31103   1.35787   -1.000
 4570.00    1.28742   1.34337   -1.000
 4571.00    1.25871   1.32553   -1.000
 4572.00    1.25861   1.31905   -1.000
 4573.00    1.27709   1.33002   -1.000
 4574.00    1.30018   1.34840   -1.000
 4575.00    1.31085   1.36034   -1.000
 4576.00    1.30718   1.36257   -1.000
 4577.00    1.30150   1.35730   -1.000
 4578.00    1.29050   1.34461   -1.000
 4579.00    1.27291   1.32479   -1.000
 4580.00    1.25521   1.30314   -1.000
 4581.00    1.24925   1.28684   -1.000
 4582.00    1.25147   1.28024   -1.000
 4583.00    1.25724   1.28216   -1.000
 4584.00    1.25787   1.28856   -1.000
 4585.00    1.25833   1.29642   -1.000
 4586.00    1.27157   1.30659   -1.000
 4587.00    1.28804   1.31983   -1.000
 4588.00    1.30041   1.33376   -1.000
 4589.00    1.30318   1.34293   -1.000
 4590.00    1.29674   1.34258   -1.000
 4591.00    1.28990   1.33404   -1.000
 4592.00    1.27853   1.32474   -1.000
 4593.00    1.27376   1.32220   -1.000
 4594.00    1.28518   1.32755   -1.000
 4595.00    1.29431   1.33626   -1.000
 4596.00    1.30156   1.34447   -1.000
 4597.00    1.30602   1.35044   -1.000
 4598.00    1.30566   1.35228   -1.000
 4599.00    1.29838   1.34863   -1.000
 4600.00    1.28502   1.34135   -1.000
 4601.00    1.27742   1.33457   -1.000
 4602.00    1.28297   1.33232   -1.000
 4603.00    1.28948   1.33511   -1.000
 4604.00    1.29626   1.34084   -1.000
 4605.00    1.30934   1.34787   -1.000
 4606.00    1.31639   1.35649   -1.000
 4607.00    1.32355   1.36775   -1.000
 4608.00    1.33706   1.38082   -1.000
 4609.00    1.34447   1.39188   -1.000
 4610.00    1.34965   1.39489   -1.000
 4611.00    1.34629   1.38892   -1.000
 4612.00    1.33640   1.38115   -1.000
 4613.00    1.32882   1.37664   -1.000
 4614.00    1.32818   1.37579   -1.000
 4615.00    1.33273   1.37565   -1.000
 4616.00    1.33209   1.37305   -1.000
 4617.00    1.33231   1.36764   -1.000
 4618.00    1.32268   1.36259   -1.000
 4619.00    1.32393   1.36289   -1.000
 4620.00    1.33415   1.37126   -1.000
 4621.00    1.34777   1.38521   -1.000
 4622.00    1.35736   1.39703   -1.000
 4623.00    1.35558   1.40083   -1.000
 4624.00    1.34893   1.39888   -1.000
 4625.00    1.34538   1.39521   -1.000
 4626.00    1.34750   1.39101   -1.000
 4627.00    1.34746   1.38728   -1.000
 4628.00    1.34095   1.38425   -1.000
 4629.00    1.33362   1.38294   -1.000
 4630.00    1.34061   1.38562   -1.000
 4631.00    1.35193   1.39218   -1.000
 4632.00    1.35344   1.39639   -1.000
 4633.00    1.34071   1.39256   -1.000
 4634.00    1.33732   1.38393   -1.000
 4635.00    1.33629   1.37712   -1.000
 4636.00    1.33144   1.37347   -1.000
 4637.00    1.32504   1.37131   -1.000
 4638.00    1.32070   1.37154   -1.000
 4639.00    1.32659   1.37630   -1.000
 4640.00    1.34144   1.38652   -1.000
 4641.00    1.36354   1.39984   -1.000
 4642.00    1.37298   1.41027   -1.000
 4643.00    1.36696   1.41057   -1.000
 4644.00    1.35593   1.39924   -1.000
 4645.00    1.34065   1.38023   -1.000
 4646.00    1.31893   1.35862   -1.000
 4647.00    1.30868   1.34367   -1.000
 4648.00    1.31872   1.34459   -1.000
 4649.00    1.33690   1.35964   -1.000
 4650.00    1.34904   1.37813   -1.000
 4651.00    1.34907   1.38987   -1.000
 4652.00    1.34432   1.39204   -1.000
 4653.00    1.33588   1.38706   -1.000
 4654.00    1.32367   1.37776   -1.000
 4655.00    1.31428   1.36965   -1.000
 4656.00    1.31730   1.37067   -1.000
 4657.00    1.33552   1.38596   -1.000
 4658.00    1.36374   1.41262   -1.000
 4659.00    1.39072   1.43861   -1.000
 4660.00    1.40360   1.45071   -1.000
 4661.00    1.39203   1.44660   -1.000
 4662.00    1.37295   1.43232   -1.000
 4663.00    1.36359   1.41468   -1.000
 4664.00    1.36228   1.39601   -1.000
 4665.00    1.35061   1.37374   -1.000
 4666.00    1.31917   1.34633   -1.000
 4667.00    1.28507   1.32135   -1.000
 4668.00    1.27100   1.31202   -1.000
 4669.00    1.29146   1.32411   -1.000
 4670.00    1.31897   1.35023   -1.000
 4671.00    1.34799   1.37735   -1.000
 4672.00    1.36372   1.39595   -1.000
 4673.00    1.36321   1.40592   -1.000
 4674.00    1.36502   1.41285   -1.000
 4675.00    1.37088   1.42093   -1.000
 4676.00    1.38460   1.42584   -1.000
 4677.00    1.38517   1.41967   -1.000
 4678.00    1.37005   1.40283   -1.000
 4679.00    1.35188   1.38385   -1.000
 4680.00    1.34230   1.37129   -1.000
 4681.00    1.33555   1.36743   -1.000
 4682.00    1.33934   1.37052   -1.000
 4683.00    1.35968   1.37867   -1.000
 4684.00    1.37678   1.38832  163.266
 4685.00    1.38116   1.39551  160.852
 4686.00    1.37448   1.39932   -1.000
 4687.00    1.37291   1.40149   -1.000
 4688.00    1.37155   1.40299   -1.000
 4689.00    1.37068   1.40377   -1.000
 4690.00    1.36618   1.40335   -1.000
 4691.00    1.36763   1.40215   -1.000
 4692.00    1.37640   1.40378   -1.000
 4693.00    1.38920   1.40999   -1.000
 4694.00    1.40395   1.41741  159.629
 4695.00    1.41373   1.42233  156.212
 4696.00    1.41500   1.42241  154.012
 4697.00    1.39816   1.41458  154.428
 4698.00    1.37424   1.39966   -1.000
 4699.00    1.36614   1.38333  163.234
 4700.00    1.36774   1.36937  165.547
 4701.00    1.35780   1.35762  164.614
 4702.00    1.34228   1.34789  165.473
 4703.00    1.34015   1.34531  168.214
 4704.00    1.34856   1.35361  169.391
 4705.00    1.35651   1.36557  166.691
 4706.00    1.35557   1.36927  164.098
 4707.00    1.34287   1.36271   -1.000
 4708.00    1.33016   1.35588   -1.000
 4709.00    1.33103   1.35883   -1.000
 4710.00    1.34944   1.37166   -1.000
 4711.00    1.37801   1.38811  165.814
 4712.00    1.39741   1.40063  161.179
 4713.00    1.39176   1.40327  159.206
 4714.00    1.37781   1.39956   -1.000
 4715.00    1.37777   1.39974   -1.000
 4716.00    1.39050   1.40975   -1.000
 4717.00    1.40719   1.42543   -1.000
 4718.00    1.40977   1.43818   -1.000
 4719.00    1.41243   1.44435   -1.000
 4720.00    1.41165   1.44524   -1.000
 4721.00    1.40496   1.44441   -1.000
 4722.00    1.40300   1.44473   -1.000
 4723.00    1.40547   1.44711   -1.000
 4724.00    1.41411   1.44951   -1.000
 4725.00    1.41472   1.44727   -1.000
 4726.00    1.39493   1.43601   -1.000
 4727.00    1.36880   1.41648   -1.000
 4728.00    1.34926   1.39690   -1.000
 4729.00    1.35247   1.38571   -1.000
 4730.00    1.35938   1.38367   -1.000
 4731.00    1.36468   1.38751   -1.000
 4732.00    1.37259   1.39566   -1.000
 4733.00    1.38199   1.40495   -1.000
 4734.00    1.39505   1.41044  161.955
 4735.00    1.38662   1.41085   -1.000
 4736.00    1.38064   1.40895   -1.000
 4737.00    1.38457   1.40852   -1.000
 4738.00    1.39424   1.41254   -1.000
 4739.00    1.39691   1.41997   -1.000
 4740.00    1.39927   1.42593   -1.000
 4741.00    1.39754   1.42897   -1.000
 4742.00    1.40060   1.43264   -1.000
 4743.00    1.40997   1.43841   -1.000
 4744.00    1.41563   1.44384   -1.000
 4745.00    1.41730   1.44692   -1.000
 4746.00    1.42239   1.44924   -1.000
 4747.00    1.42578   1.45435   -1.000
 4748.00    1.42581   1.46228   -1.000
 4749.00    1.42687   1.47026   -1.000
 4750.00    1.42759   1.47617   -1.000
 4751.00    1.42441   1.47673   -1.000
 4752.00    1.41341   1.46942   -1.000
 4753.00    1.40498   1.45616   -1.000
 4754.00    1.39910   1.44331   -1.000
 4755.00    1.39717   1.43708   -1.000
 4756.00    1.39333   1.43876   -1.000
 4757.00    1.39193   1.44574   -1.000
 4758.00    1.39275   1.45480   -1.000
 4759.00    1.39549   1.46237   -1.000
 4760.00    1.40186   1.46278   -1.000
 4761.00    1.39052   1.45137   -1.000
 4762.00    1.36369   1.42951   -1.000
 4763.00    1.34732   1.40703   -1.000
 4764.00    1.34555   1.39418   -1.000
 4765.00    1.35334   1.39222   -1.000
 4766.00    1.36808   1.39876   -1.000
 4767.00    1.38338   1.41322   -1.000
 4768.00    1.39989   1.43391   -1.000
 4769.00    1.41291   1.45344   -1.000
 4770.00    1.41425   1.46329   -1.000
 4771.00    1.40927   1.46293   -1.000
 4772.00    1.40433   1.46035   -1.000
 4773.00    1.40951   1.46381   -1.000
 4774.00    1.42883   1.47499   -1.000
 4775.00    1.44249   1.48728   -1.000
 4776.00    1.43985   1.49381   -1.000
 4777.00    1.43765   1.49265   -1.000
 4778.00    1.43192   1.48594   -1.000
 4779.00    1.42208   1.47805   -1.000
 4780.00    1.41218   1.47256   -1.000
 4781.00    1.40916   1.46941   -1.000
 4782.00    1.40773   1.46543   -1.000
 4783.00    1.40635   1.45988   -1.000
 4784.00    1.40809   1.45425   -1.000
 4785.00    1.40442   1.44903   -1.000
 4786.00    1.39160   1.44465   -1.000
 4787.00    1.38406   1.44285   -1.000
 4788.00    1.38559   1.44510   -1.000
 4789.00    1.39216   1.45092   -1.000
 4790.00    1.40325   1.45985   -1.000
 4791.00    1.41487   1.47224   -1.000
 4792.00    1.42432   1.48784   -1.000
 4793.00    1.43886   1.50472   -1.000
 4794.00    1.45486   1.51961   -1.000
 4795.00    1.46145   1.52830   -1.000
 4796.00    1.45697   1.52714   -1.000
 4797.00    1.44024   1.51726   -1.000
 4798.00    1.42160   1.50397   -1.000
 4799.00    1.41540   1.49386   -1.000
 4800.00    1.41765   1.49292   -1.000
 4801.00    1.43152   1.50143   -1.000
 4802.00    1.44555   1.51182   -1.000
 4803.00    1.44674   1.51576   -1.000
 4804.00    1.43464   1.51145   -1.000
 4805.00    1.42351   1.50317   -1.000
 4806.00    1.42599   1.49695   -1.000
 4807.00    1.43037   1.49495   -1.000
 4808.00    1.43720   1.49658   -1.000
 4809.00    1.44138   1.50131   -1.000
 4810.00    1.44426   1.50673   -1.000
 4811.00    1.44352   1.51036   -1.000
 4812.00    1.44541   1.51355   -1.000
 4813.00    1.45131   1.51864   -1.000
 4814.00    1.45696   1.52569   -1.000
 4815.00    1.46169   1.53386   -1.000
 4816.00    1.46608   1.54159   -1.000
 4817.00    1.47360   1.54656   -1.000
 4818.00    1.47662   1.54805   -1.000
 4819.00    1.47363   1.54781   -1.000
 4820.00    1.47075   1.54553   -1.000
 4821.00    1.46493   1.53612   -1.000
 4822.00    1.44641   1.51637   -1.000
 4823.00    1.42534   1.49195   -1.000
 4824.00    1.42064   1.47672   -1.000
 4825.00    1.43417   1.48022   -1.000
 4826.00    1.44848   1.49551   -1.000
 4827.00    1.45399   1.50818   -1.000
 4828.00    1.44705   1.51142   -1.000
 4829.00    1.44093   1.50830   -1.000
 4830.00    1.43453   1.50310   -1.000
 4831.00    1.43021   1.49575   -1.000
 4832.00    1.43041   1.48854   -1.000
 4833.00    1.43941   1.48656   -1.000
 4834.00    1.44992   1.49097   -1.000
 4835.00    1.45960   1.49821   -1.000
 4836.00    1.45863   1.50308   -1.000
 4837.00    1.45184   1.50223   -1.000
 4838.00    1.44189   1.49509   -1.000
 4839.00    1.42794   1.48333   -1.000
 4840.00    1.41833   1.47158   -1.000
 4841.00    1.41858   1.46518   -1.000
 4842.00    1.42465   1.46570   -1.000
 4843.00    1.43204   1.46972   -1.000
 4844.00    1.44505   1.47521   -1.000
 4845.00    1.45211   1.48279   -1.000
 4846.00    1.45287   1.48770   -1.000
 4847.00    1.44030   1.48310   -1.000
 4848.00    1.42614   1.47244   -1.000
 4849.00    1.42250   1.46570   -1.000
 4850.00    1.42749   1.46618   -1.000
 4851.00    1.43033   1.46751   -1.000
 4852.00    1.42863   1.46099   -1.000
 4853.00    1.41292   1.44167   -1.000
 4854.00    1.38116   1.40980   -1.000
 4855.00    1.35104   1.37369   -1.000
 4856.00    1.33542   1.34328  169.152
 4857.00    1.32966   1.31674  169.721
 4858.00    1.29232   1.27465   -1.000
 4859.00    1.20310   1.19892  171.589
 4860.00    1.08345   1.10445   -1.000
 4861.00    1.01001   1.03564   -1.000
 4862.00    1.04062   1.03139  218.096
 4863.00    1.14167   1.09091   -1.000
 4864.00    1.24037   1.17793   -1.000
 4865.00    1.29939   1.25871   -1.000
 4866.00    1.33415   1.32018  171.646
 4867.00    1.35952   1.36281  167.597
 4868.00    1.37338   1.38815  165.712
 4869.00    1.37227   1.39493   -1.000
 4870.00    1.35679   1.38372   -1.000
 4871.00    1.33520   1.36418   -1.000
 4872.00    1.33354   1.35610   -1.000
 4873.00    1.35930   1.37238  173.932
 4874.00    1.38279   1.40361   -1.000
 4875.00    1.39764   1.42979   -1.000
 4876.00    1.39585   1.44139   -1.000
 4877.00    1.39527   1.44699   -1.000
 4878.00    1.40595   1.45915   -1.000
 4879.00    1.42158   1.47872   -1.000
 4880.00    1.42992   1.49587   -1.000
 4881.00    1.42220   1.50114   -1.000
 4882.00    1.41637   1.49561   -1.000
 4883.00    1.41315   1.48737   -1.000
 4884.00    1.41390   1.47927   -1.000
 4885.00    1.40519   1.47052   -1.000
 4886.00    1.40547   1.46278   -1.000
 4887.00    1.40365   1.45835   -1.000
 4888.00    1.40205   1.45450   -1.000
 4889.00    1.39465   1.44424   -1.000
 4890.00    1.37812   1.42842   -1.000
 4891.00    1.37411   1.42145   -1.000
 4892.00    1.40540   1.43980   -1.000
 4893.00    1.45032   1.48495   -1.000
 4894.00    1.49444   1.53668   -1.000
 4895.00    1.51533   1.57331   -1.000
 4896.00    1.51662   1.59052   -1.000
 4897.00    1.51228   1.59313   -1.000
 4898.00    1.50121   1.58561   -1.000
 4899.00    1.48421   1.57276   -1.000
 4900.00    1.47258   1.56069   -1.000
 4901.00    1.47262   1.55262   -1.000
 4902.00    1.47132   1.54632   -1.000
 4903.00    1.46902   1.53987   -1.000
 4904.00    1.47194   1.53973   -1.000
 4905.00    1.48678   1.55205   -1.000
 4906.00    1.50071   1.56851   -1.000
 4907.00    1.49919   1.57446   -1.000
 4908.00    1.48651   1.56312   -1.000
 4909.00    1.46489   1.53882   -1.000
 4910.00    1.44715   1.51428   -1.000
 4911.00    1.45037   1.50332   -1.000
 4912.00    1.46771   1.51150   -1.000
 4913.00    1.48530   1.53189   -1.000
 4914.00    1.49913   1.55366   -1.000
 4915.00    1.51173   1.56823   -1.000
 4916.00    1.51302   1.56569   -1.000
 4917.00    1.48507   1.53788   -1.000
 4918.00    1.43152   1.48847   -1.000
 4919.00    1.38421   1.43471   -1.000
 4920.00    1.36798   1.39925   -1.000
 4921.00    1.38125   1.39480  178.737
 4922.00    1.41248   1.41470  174.495
 4923.00    1.43315   1.44061  168.218
 4924.00    1.44171   1.46234   -1.000
 4925.00    1.45861   1.48452   -1.000
 4926.00    1.48325   1.51210   -1.000
 4927.00    1.50429   1.54245   -1.000
 4928.00    1.52010   1.56866   -1.000
 4929.00    1.52952   1.58547   -1.000
 4930.00    1.53790   1.59115   -1.000
 4931.00    1.53011   1.58311   -1.000
 4932.00    1.50283   1.55979   -1.000
 4933.00    1.46821   1.52980   -1.000
 4934.00    1.45303   1.50926   -1.000
 4935.00    1.46557   1.50624   -1.000
 4936.00    1.47742   1.51041   -1.000
 4937.00    1.46290   1.50377   -1.000
 4938.00    1.44053   1.48696   -1.000
 4939.00    1.43477   1.47931   -1.000
 4940.00    1.46317   1.49469   -1.000
 4941.00    1.50121   1.52876   -1.000
 4942.00    1.52077   1.56361   -1.000
 4943.00    1.52918   1.58471   -1.000
 4944.00    1.53285   1.59036   -1.000
 4945.00    1.53039   1.58672   -1.000
 4946.00    1.52601   1.58213   -1.000
 4947.00    1.53063   1.58413   -1.000
 4948.00    1.53934   1.59453   -1.000
 4949.00    1.54769   1.60660   -1.000
 4950.00    1.54942   1.61188   -1.000
 4951.00    1.54760   1.60879   -1.000
 4952.00    1.54337   1.60204   -1.000
 4953.00    1.53871   1.59525   -1.000
 4954.00    1.53477   1.58552   -1.000
 4955.00    1.51430   1.56207   -1.000
 4956.00    1.46635   1.51862   -1.000
 4957.00    1.42227   1.47329   -1.000
 4958.00    1.42813   1.45763   -1.000
 4959.00    1.47647   1.48414  172.441
 4960.00    1.52448   1.53306  163.827
 4961.00    1.54586   1.57349   -1.000
 4962.00    1.54697   1.59248   -1.000
 4963.00    1.54182   1.59439   -1.000
 4964.00    1.52975   1.58529   -1.000
 4965.00    1.51209   1.56982   -1.000
 4966.00    1.49812   1.55394   -1.000
 4967.00    1.49592   1.54287   -1.000
 4968.00    1.49828   1.53821   -1.000
 4969.00    1.50371   1.53992   -1.000
 4970.00    1.51338   1.54782   -1.000
 4971.00    1.52298   1.56024   -1.000
 4972.00    1.53607   1.57431   -1.000
 4973.00    1.54804   1.58756   -1.000
 4974.00    1.55492   1.59699   -1.000
 4975.00    1.55386   1.59991   -1.000
 4976.00    1.54258   1.59609   -1.000
 4977.00    1.52958   1.58674   -1.000
 4978.00    1.52040   1.57358   -1.000
 4979.00    1.50840   1.55738   -1.000
 4980.00    1.48852   1.53497   -1.000
 4981.00    1.45646   1.50177   -1.000
 4982.00    1.42473   1.46157   -1.000
 4983.00    1.41162   1.43058   -1.000
 4984.00    1.42274   1.42642  178.159
 4985.00    1.45093   1.45159  175.533
 4986.00    1.48378   1.49137  170.943
 4987.00    1.50712   1.52817   -1.000
 4988.00    1.52160   1.55010   -1.000
 4989.00    1.51598   1.55295   -1.000
 4990.00    1.49940   1.54282   -1.000
 4991.00    1.49615   1.53214   -1.000
 4992.00    1.50511   1.52949   -1.000
 4993.00    1.50879   1.53479   -1.000
 4994.00    1.51091   1.54365   -1.000
 4995.00    1.52076   1.55283   -1.000
 4996.00    1.53168   1.56007   -1.000
 4997.00    1.52852   1.56136   -1.000
 4998.00    1.51513   1.55151   -1.000
 4999.00    1.49936   1.53017   -1.000
 5000.00    1.48424   1.50542   -1.000
 5001.00    1.48128   1.48915  168.843
 5002.00    1.48995   1.48759  169.430
 5003.00    1.49522   1.49415  168.213
 5004.00    1.48776   1.49415  166.972
 5005.00    1.46413   1.48019  168.528
 5006.00    1.44665   1.46384  172.417
 5007.00    1.46253   1.46480  174.234
 5008.00    1.49697   1.48711  171.172
 5009.00    1.51930   1.51499  166.140
 5010.00    1.51558   1.52750  163.568
 5011.00    1.49134   1.51489   -1.000
 5012.00    1.45601   1.48429   -1.000
 5013.00    1.42923   1.45371   -1.000
 5014.00    1.42724   1.43837  179.901
 5015.00    1.44514   1.43965  180.235
 5016.00    1.46388   1.44778  176.941
 5017.00    1.46683   1.45336  173.155
 5018.00    1.46523   1.45755  171.725
 5019.00    1.47593   1.46778  171.603
 5020.00    1.49356   1.48337  170.132
 5021.00    1.49730   1.49616  168.590
 5022.00    1.49749   1.50232  168.826
 5023.00    1.50660   1.50811  169.310
 5024.00    1.51573   1.52066  168.663
 5025.00    1.52352   1.53383  167.061
 5026.00    1.52302   1.53698  165.774
 5027.00    1.51880   1.53264  166.106
 5028.00    1.52118   1.53092  166.921
 5029.00    1.53620   1.53706  165.958
 5030.00    1.55011   1.55052  163.194
 5031.00    1.56251   1.56791  160.671
 5032.00    1.57424   1.58405  158.140
 5033.00    1.57558   1.59121  156.131
 5034.00    1.55734   1.58141   -1.000
 5035.00    1.52098   1.55681   -1.000
 5036.00    1.49464   1.53040   -1.000
 5037.00    1.48827   1.51261   -1.000
 5038.00    1.48172   1.49792  170.668
 5039.00    1.45553   1.47160  172.386
 5040.00    1.41473   1.43631   -1.000
 5041.00    1.40676   1.41628  185.279
 5042.00    1.43864   1.43174  187.218
 5043.00    1.49149   1.47963  180.268
 5044.00    1.54050   1.53677  169.596
 5045.00    1.57266   1.58097  161.797
 5046.00    1.58515   1.60313  157.647
 5047.00    1.57106   1.60202   -1.000
 5048.00    1.55727   1.58083   -1.000
 5049.00    1.41388   1.54980   -1.000
 5050.00    1.20109   1.52303   -1.000
 5051.00    0.63759   1.51187   -1.000
 5052.00    0.56104   1.52124   -1.000
 5053.00    1.37516   1.54702   -1.000
 5054.00    1.61326   1.57493   -1.000
 5055.00    1.60099   1.59364  157.941
 5056.00    1.60698   1.60440  156.108
 5057.00    1.60445   1.61283  155.374
 5058.00    1.60264   1.62061  155.473
 5059.00    1.59759   1.62668   -1.000
 5060.00    1.59629   1.62990   -1.000
 5061.00    1.59999   1.63012   -1.000
 5062.00    1.59882   1.62385   -1.000
 5063.00    1.58176   1.60467   -1.000
 5064.00    1.54568   1.57618   -1.000
 5065.00    1.52605   1.55233   -1.000
 5066.00    1.53330   1.54345  168.764
 5067.00    1.54855   1.54703  167.662
 5068.00    1.55562   1.55340  165.201
 5069.00    1.56414   1.55792  164.177
 5070.00    1.57294   1.56109  163.482
 5071.00    1.57154   1.56054  162.474
 5072.00    1.56155   1.55488  163.187
 5073.00    1.56153   1.55013  164.515
 5074.00    1.56200   1.55279  163.312
 5075.00    1.56877   1.56085  161.815
 5076.00    1.57741   1.56557  161.344
 5077.00    1.56478   1.55875  161.205
 5078.00    1.53051   1.53669  162.347
 5079.00    1.49157   1.50652  166.992
 5080.00    1.47677   1.48499  174.477
 5081.00    1.49233   1.48231  178.129
 5082.00    1.51918   1.49453   -1.000
 5083.00    1.53635   1.51237   -1.000
 5084.00    1.55707   1.53199   -1.000
 5085.00    1.58039   1.55376   -1.000
 5086.00    1.59078   1.57412  163.395
 5087.00    1.59506   1.58791  161.820
 5088.00    1.59750   1.59554  161.380
 5089.00    1.59740   1.60077  160.725
 5090.00    1.60422   1.60599  159.643
 5091.00    1.61223   1.61246  158.689
 5092.00    1.61884   1.62101  157.857
 5093.00    1.62615   1.62940  156.285
 5094.00    1.62446   1.63070  154.766
 5095.00    1.61319   1.61763  155.470
 5096.00    1.60290   1.59039  158.288
 5097.00    1.57976   1.55797   -1.000
 5098.00    1.54354   1.53279  165.523
 5099.00    1.53481   1.52390  169.143
 5100.00    1.55770   1.53429   -1.000
 5101.00    1.59115   1.55811   -1.000
 5102.00    1.60838   1.58113   -1.000
 5103.00    1.60683   1.59219  160.402
 5104.00    1.59577   1.59009  160.783
 5105.00    1.58372   1.57836  162.633
 5106.00    1.56349   1.56094  164.731
 5107.00    1.54193   1.54346  166.765
 5108.00    1.53666   1.53244  168.846
 5109.00    1.54144   1.53181  169.198
 5110.00    1.54889   1.54170  168.293
 5111.00    1.56483   1.55992  167.107
 5112.00    1.58409   1.58097  165.006
 5113.00    1.60397   1.59937  162.879
 5114.00    1.61565   1.61351  160.895
 5115.00    1.62836   1.62493  159.314
 5116.00    1.63401   1.63465  158.318
 5117.00    1.64045   1.64141  156.860
 5118.00    1.64339   1.64296  155.448
 5119.00    1.63780   1.63723  155.459
 5120.00    1.62204   1.62388  157.111
 5121.00    1.59980   1.60521  159.421
 5122.00    1.57275   1.58429  162.001
 5123.00    1.54890   1.56257  165.788
 5124.00    1.53771   1.54366  170.628
 5125.00    1.54331   1.53279  172.860
 5126.00    1.55321   1.53085   -1.000
 5127.00    1.55386   1.53282   -1.000
 5128.00    1.55091   1.53458  169.956
 5129.00    1.55485   1.53719   -1.000
 5130.00    1.56862   1.54385   -1.000
 5131.00    1.58276   1.55484   -1.000
 5132.00    1.59280   1.56710   -1.000
 5133.00    1.60186   1.57788   -1.000
 5134.00    1.61039   1.58624   -1.000
 5135.00    1.61249   1.59062   -1.000
 5136.00    1.59989   1.58688  160.066
 5137.00    1.57570   1.57346  162.098
 5138.00    1.55089   1.55473  165.832
 5139.00    1.53983   1.53928  168.863
 5140.00    1.54714   1.53292  169.718
 5141.00    1.55227   1.53376   -1.000
 5142.00    1.54469   1.53693  169.117
 5143.00    1.54334   1.54156  171.525
 5144.00    1.55588   1.54863  171.538
 5145.00    1.57311   1.55491   -1.000
 5146.00    1.57592   1.55454   -1.000
 5147.00    1.57393   1.54952   -1.000
 5148.00    1.58101   1.54948   -1.000
 5149.00    1.58413   1.55499   -1.000
 5150.00    1.57538   1.55639   -1.000
 5151.00    1.56145   1.54968  168.230
 5152.00    1.55193   1.53988  171.095
 5153.00    1.56002   1.53424   -1.000
 5154.00    1.58059   1.53855   -1.000
 5155.00    1.60262   1.55570   -1.000
 5156.00    1.62665   1.58178   -1.000
 5157.00    1.64742   1.60860   -1.000
 5158.00    1.65664   1.62885   -1.000
 5159.00    1.65909   1.63940   -1.000
 5160.00    1.65375   1.64059  156.166
 5161.00    1.64817   1.63384  156.560
 5162.00    1.63821   1.61996   -1.000
 5163.00    1.62567   1.59838   -1.000
 5164.00    1.59531   1.56185   -1.000
 5165.00    1.52850   1.49942   -1.000
 5166.00    1.43870   1.41657   -1.000
 5167.00    1.36720   1.34193   -1.000
 5168.00    1.36305   1.31159   -1.000
 5169.00    1.40867   1.32943   -1.000
 5170.00    1.43894   1.35396   -1.000
 5171.00    1.40924   1.34878   -1.000
 5172.00    1.36258   1.32421   -1.000
 5173.00    1.37351   1.32574   -1.000
 5174.00    1.45967   1.38081   -1.000
 5175.00    1.55639   1.46652   -1.000
 5176.00    1.61536   1.54133   -1.000
 5177.00    1.63930   1.58548   -1.000
 5178.00    1.64346   1.60209   -1.000
 5179.00    1.63963   1.59790   -1.000
 5180.00    1.62030   1.56843   -1.000
 5181.00    1.56447   1.50651   -1.000
 5182.00    1.46700   1.42058   -1.000
 5183.00    1.38065   1.34629   -1.000
 5184.00    1.37929   1.32554   -1.000
 5185.00    1.46336   1.37012   -1.000
 5186.00    1.55645   1.45031   -1.000
 5187.00    1.59979   1.51981   -1.000
 5188.00    1.61005   1.55682   -1.000
 5189.00    1.60787   1.57014   -1.000
 5190.00    1.59585   1.56981   -1.000
 5191.00    1.56898   1.55652  166.624
 5192.00    1.54517   1.53812  171.017
 5193.00    1.54293   1.52731  176.011
 5194.00    1.56014   1.53006   -1.000
 5195.00    1.57849   1.54126   -1.000
 5196.00    1.59667   1.55484   -1.000
 5197.00    1.61898   1.57193   -1.000
 5198.00    1.63130   1.59484   -1.000
 5199.00    1.64719   1.61827   -1.000
 5200.00    1.65583   1.63379   -1.000
 5201.00    1.64964   1.63502  160.168
 5202.00    1.63448   1.61904  161.089
 5203.00    1.60772   1.58746   -1.000
 5204.00    1.57106   1.54763   -1.000
 5205.00    1.54649   1.51025   -1.000
 5206.00    1.54594   1.48522   -1.000
 5207.00    1.54761   1.47523   -1.000
 5208.00    1.54510   1.47726   -1.000
 5209.00    1.55277   1.49085   -1.000
 5210.00    1.58128   1.51915   -1.000
 5211.00    1.62483   1.56216   -1.000
 5212.00    1.66663   1.60897   -1.000
 5213.00    1.68583   1.64234   -1.000
 5214.00    1.67111   1.64930   -1.000
 5215.00    1.64200   1.63294  157.435
 5216.00    1.62562   1.61274  160.717
 5217.00    1.62954   1.60896   -1.000
 5218.00    1.65395   1.62750   -1.000
 5219.00    1.68379   1.65770   -1.000
 5220.00    1.70099   1.68511  156.994
 5221.00    1.70536   1.70012  155.490
 5222.00    1.69799   1.69888  154.730
 5223.00    1.67358   1.67897  156.024
 5224.00    1.62987   1.63771  160.084
 5225.00    1.57632   1.57907  166.278
 5226.00    1.53467   1.52507  173.862
 5227.00    1.53621   1.50354   -1.000
 5228.00    1.58534   1.52629   -1.000
 5229.00    1.64091   1.57474   -1.000
 5230.00    1.67244   1.61711   -1.000
 5231.00    1.67887   1.63357   -1.000
 5232.00    1.66312   1.62525   -1.000
 5233.00    1.64356   1.60719   -1.000
 5234.00    1.64079   1.59950   -1.000
 5235.00    1.65751   1.61382   -1.000
 5236.00    1.68547   1.64441   -1.000
 5237.00    1.70522   1.67652   -1.000
 5238.00    1.71194   1.69854  153.996
 5239.00    1.71759   1.70830  153.457
 5240.00    1.71995   1.70963  153.803
 5241.00    1.72047   1.70712  153.750
 5242.00    1.72240   1.70468  152.998
 5243.00    1.71798   1.70657  152.907
 5244.00    1.71820   1.71142  152.767
 5245.00    1.70985   1.70966  152.491
 5246.00    1.68582   1.69477  154.636
 5247.00    1.66050   1.67152  159.076
 5248.00    1.64895   1.65116  163.179
 5249.00    1.64833   1.63973  164.504
 5250.00    1.63959   1.63618  164.774
 5251.00    1.64334   1.63841  165.627
 5252.00    1.65985   1.64511  165.367
 5253.00    1.67059   1.65173   -1.000
 5254.00    1.67542   1.65523   -1.000
 5255.00    1.68295   1.66157   -1.000
 5256.00    1.70231   1.67760   -1.000
 5257.00    1.73330   1.70109   -1.000
 5258.00    1.74998   1.72019   -1.000
 5259.00    1.74303   1.72241   -1.000
 5260.00    1.71077   1.70130  151.755
 5261.00    1.65896   1.65916  155.203
 5262.00    1.60911   1.60506  161.189
 5263.00    1.57381   1.55120   -1.000
 5264.00    1.55445   1.50952   -1.000
 5265.00    1.54622   1.49011   -1.000
 5266.00    1.55838   1.49294   -1.000
 5267.00    1.57894   1.50219   -1.000
 5268.00    1.56723   1.49936   -1.000
 5269.00    1.53218   1.48195   -1.000
 5270.00    1.52862   1.47312   -1.000
 5271.00    1.57735   1.49507   -1.000
 5272.00    1.63363   1.53890   -1.000
 5273.00    1.65810   1.57830   -1.000
 5274.00    1.65683   1.60024   -1.000
 5275.00    1.66248   1.61336   -1.000
 5276.00    1.68721   1.63313   -1.000
 5277.00    1.71843   1.66488   -1.000
 5278.00    1.74602   1.69754   -1.000
 5279.00    1.75025   1.71229   -1.000
 5280.00    1.73094   1.70147   -1.000
 5281.00    1.69960   1.67427   -1.000
 5282.00    1.67547   1.64674   -1.000
 5283.00    1.66929   1.63153   -1.000
 5284.00    1.68701   1.63871   -1.000
 5285.00    1.72276   1.66902   -1.000
 5286.00    1.75708   1.71002   -1.000
 5287.00    1.77319   1.74340   -1.000
 5288.00    1.77010   1.76073  149.120
 5289.00    1.77344   1.76722  149.443
 5290.00    1.77980   1.76975  149.691
 5291.00    1.78141   1.76943  149.035
 5292.00    1.77387   1.76693  148.542
 5293.00    1.76354   1.76242  149.089
 5294.00    1.75187   1.75202  150.375
 5295.00    1.72770   1.72990  152.221
 5296.00    1.68981   1.69484  155.758
 5297.00    1.65952   1.65805  161.292
 5298.00    1.65761   1.63798   -1.000
 5299.00    1.67947   1.64188   -1.000
 5300.00    1.70050   1.66074   -1.000
 5301.00    1.71095   1.68035   -1.000
 5302.00    1.72304   1.69708   -1.000
 5303.00    1.74345   1.71651   -1.000
 5304.00    1.76812   1.73782   -1.000
 5305.00    1.77762   1.75206   -1.000
 5306.00    1.76959   1.75451  148.760
 5307.00    1.76320   1.75043  149.733
 5308.00    1.76674   1.75047  151.123
 5309.00    1.78149   1.75963   -1.000
 5310.00    1.79502   1.77318   -1.000
 5311.00    1.79866   1.78230  148.183
 5312.00    1.79751   1.78198  148.028
 5313.00    1.78907   1.77240  148.688
 5314.00    1.78229   1.75597   -1.000
 5315.00    1.76790   1.73514   -1.000
 5316.00    1.74528   1.71682   -1.000
 5317.00    1.74025   1.71133   -1.000
 5318.00    1.75345   1.72310   -1.000
 5319.00    1.76900   1.74217   -1.000
 5320.00    1.77092   1.75252  151.925
 5321.00    1.76214   1.74679  152.145
 5322.00    1.74789   1.72744   -1.000
 5323.00    1.73097   1.70163   -1.000
 5324.00    1.71968   1.67641   -1.000
 5325.00    1.70954   1.65424   -1.000
 5326.00    1.68126   1.62709   -1.000
 5327.00    1.62567   1.58839   -1.000
 5328.00    1.58523   1.55485   -1.000
 5329.00    1.60940   1.55329   -1.000
 5330.00    1.67496   1.59181   -1.000
 5331.00    1.72603   1.64697   -1.000
 5332.00    1.74397   1.68934   -1.000
 5333.00    1.75174   1.71162   -1.000
 5334.00    1.76510   1.72452   -1.000
 5335.00    1.76903   1.73328   -1.000
 5336.00    1.76436   1.73528   -1.000
 5337.00    1.76117   1.72888   -1.000
 5338.00    1.74781   1.71389   -1.000
 5339.00    1.72675   1.69114   -1.000
 5340.00    1.70790   1.66932   -1.000
 5341.00    1.71196   1.66217   -1.000
 5342.00    1.73930   1.67736   -1.000
 5343.00    1.76597   1.70377   -1.000
 5344.00    1.77078   1.72182   -1.000
 5345.00    1.76298   1.72251   -1.000
 5346.00    1.75780   1.71201   -1.000
 5347.00    1.74812   1.70089   -1.000
 5348.00    1.73689   1.69523   -1.000
 5349.00    1.73727   1.69731   -1.000
 5350.00    1.75320   1.70817   -1.000
 5351.00    1.77547   1.72686   -1.000
 5352.00    1.78965   1.74659   -1.000
 5353.00    1.79662   1.76110   -1.000
 5354.00    1.80755   1.77226   -1.000
 5355.00    1.82064   1.78451   -1.000
 5356.00    1.83167   1.79721   -1.000
 5357.00    1.83480   1.80580   -1.000
 5358.00    1.83069   1.80822   -1.000
 5359.00    1.82681   1.80526   -1.000
 5360.00    1.81777   1.79641   -1.000
 5361.00    1.79798   1.78000  147.666
 5362.00    1.77794   1.75809   -1.000
 5363.00    1.76419   1.73623   -1.000
 5364.00    1.75237   1.71986   -1.000
 5365.00    1.74793   1.71153   -1.000
 5366.00    1.75135   1.71014   -1.000
 5367.00    1.75403   1.70941   -1.000
 5368.00    1.74961   1.70098   -1.000
 5369.00    1.72466   1.67940   -1.000
 5370.00    1.69254   1.64970   -1.000
 5371.00    1.68319   1.62883   -1.000
 5372.00    1.71579   1.63435   -1.000
 5373.00    1.76802   1.67018   -1.000
 5374.00    1.80588   1.71926   -1.000
 5375.00    1.82391   1.75981   -1.000
 5376.00    1.82696   1.78101   -1.000
 5377.00    1.82419   1.78601   -1.000
 5378.00    1.82087   1.78155   -1.000
 5379.00    1.81149   1.77272   -1.000
 5380.00    1.79750   1.76195   -1.000
 5381.00    1.78752   1.75069   -1.000
 5382.00    1.78156   1.74079   -1.000
 5383.00    1.78375   1.73632   -1.000
 5384.00    1.79530   1.74195   -1.000
 5385.00    1.80963   1.75746   -1.000
 5386.00    1.81884   1.77432   -1.000
 5387.00    1.81784   1.78298   -1.000
 5388.00    1.81113   1.77980   -1.000
 5389.00    1.79608   1.76748   -1.000
 5390.00    1.78186   1.75117   -1.000
 5391.00    1.77762   1.73526   -1.000
 5392.00    1.77199   1.72190   -1.000
 5393.00    1.76230   1.71291   -1.000
 5394.00    1.75187   1.70616   -1.000
 5395.00    1.73743   1.69496   -1.000
 5396.00    1.72080   1.67754   -1.000
 5397.00    1.71610   1.66250   -1.000
 5398.00    1.73442   1.66392   -1.000
 5399.00    1.76506   1.68465   -1.000
 5400.00    1.78691   1.71172   -1.000
 5401.00    1.79081   1.72889   -1.000
 5402.00    1.77882   1.72748   -1.000
 5403.00    1.74835   1.70483   -1.000
 5404.00    1.70655   1.66871   -1.000
 5405.00    1.68409   1.63840   -1.000
 5406.00    1.69728   1.62984   -1.000
 5407.00    1.72784   1.64311   -1.000
 5408.00    1.74208   1.66109   -1.000
 5409.00    1.73692   1.66918   -1.000
 5410.00    1.73708   1.67174   -1.000
 5411.00    1.76254   1.68230   -1.000
 5412.00    1.79454   1.70363   -1.000
 5413.00    1.80899   1.72460   -1.000
 5414.00    1.80165   1.73630   -1.000
 5415.00    1.79773   1.74358   -1.000
 5416.00    1.80351   1.75454   -1.000
 5417.00    1.81149   1.76826   -1.000
 5418.00    1.81193   1.77790   -1.000
 5419.00    1.80734   1.77996   -1.000
 5420.00    1.80402   1.77684   -1.000
 5421.00    1.80582   1.77147   -1.000
 5422.00    1.80109   1.76250   -1.000
 5423.00    1.78682   1.74992   -1.000
 5424.00    1.77839   1.73988   -1.000
 5425.00    1.78627   1.74248   -1.000
 5426.00    1.80160   1.75741   -1.000
 5427.00    1.80588   1.76616   -1.000
 5428.00    1.78237   1.75326   -1.000
 5429.00    1.75200   1.72524   -1.000
 5430.00    1.74753   1.70434   -1.000
 5431.00    1.76399   1.70252   -1.000
 5432.00    1.77136   1.70892   -1.000
 5433.00    1.75736   1.70782   -1.000
 5434.00    1.73713   1.69968   -1.000
 5435.00    1.73970   1.69875   -1.000
 5436.00    1.76777   1.71642   -1.000
 5437.00    1.80334   1.74984   -1.000
 5438.00    1.83600   1.78552   -1.000
 5439.00    1.85298   1.81038   -1.000
 5440.00    1.85909   1.82323   -1.000
 5441.00    1.86232   1.82895   -1.000
 5442.00    1.85802   1.82852   -1.000
 5443.00    1.84243   1.81648   -1.000
 5444.00    1.80843   1.78756   -1.000
 5445.00    1.76314   1.74604  152.127
 5446.00    1.72971   1.70767   -1.000
 5447.00    1.73270   1.69176   -1.000
 5448.00    1.77164   1.70681   -1.000
 5449.00    1.81591   1.74160   -1.000
 5450.00    1.84000   1.77629   -1.000
 5451.00    1.84399   1.79665   -1.000
 5452.00    1.83472   1.79753   -1.000
 5453.00    1.81116   1.77870   -1.000
 5454.00    1.77241   1.74703   -1.000
 5455.00    1.74662   1.71765   -1.000
 5456.00    1.76082   1.71123   -1.000
 5457.00    1.80286   1.73384   -1.000
 5458.00    1.83675   1.77017   -1.000
 5459.00    1.84566   1.79698   -1.000
 5460.00    1.83951   1.80224   -1.000
 5461.00    1.82287   1.78777   -1.000
 5462.00    1.80497   1.76519   -1.000
 5463.00    1.79850   1.74912   -1.000
 5464.00    1.80981   1.74871   -1.000
 5465.00    1.82523   1.76214   -1.000
 5466.00    1.83545   1.77943   -1.000
 5467.00    1.84246   1.79334   -1.000
 5468.00    1.84655   1.80270   -1.000
 5469.00    1.84668   1.80724   -1.000
 5470.00    1.84383   1.80568   -1.000
 5471.00    1.83993   1.79905   -1.000
 5472.00    1.83365   1.78928   -1.000
 5473.00    1.82303   1.77620   -1.000
 5474.00    1.80364   1.75724   -1.000
 5475.00    1.77487   1.73175   -1.000
 5476.00    1.75263   1.70798   -1.000
 5477.00    1.75510   1.69939   -1.000
 5478.00    1.78701   1.71295   -1.000
 5479.00    1.81706   1.73922   -1.000
 5480.00    1.81711   1.75929   -1.000
 5481.00    1.80693   1.76589   -1.000
 5482.00    1.80651   1.76787   -1.000
 5483.00    1.81930   1.77646   -1.000
 5484.00    1.83832   1.79213   -1.000
 5485.00    1.84831   1.80531   -1.000
 5486.00    1.84339   1.80717   -1.000
 5487.00    1.82549   1.79879   -1.000
 5488.00    1.81221   1.78995   -1.000
 5489.00    1.81536   1.78860   -1.000
 5490.00    1.82433   1.79430   -1.000
 5491.00    1.83418   1.80159   -1.000
 5492.00    1.84239   1.80640   -1.000
 5493.00    1.84658   1.80850   -1.000
 5494.00    1.84751   1.80853   -1.000
 5495.00    1.84038   1.80516   -1.000
 5496.00    1.82947   1.79747   -1.000
 5497.00    1.82263   1.78876   -1.000
 5498.00    1.82909   1.78431   -1.000
 5499.00    1.84395   1.78470   -1.000
 5500.00    1.84106   1.78263   -1.000
 5501.00    1.82537   1.77361   -1.000
 5502.00    1.82149   1.76528   -1.000
 5503.00    1.83301   1.76462   -1.000
 5504.00    1.83905   1.76715   -1.000
 5505.00    1.82935   1.76394   -1.000
 5506.00    1.81080   1.75465   -1.000
 5507.00    1.80913   1.74971   -1.000
 5508.00    1.82551   1.75663   -1.000
 5509.00    1.83787   1.77033   -1.000
 5510.00    1.83559   1.77846   -1.000
 5511.00    1.82233   1.77367   -1.000
 5512.00    1.80263   1.75920   -1.000
 5513.00    1.79283   1.74635   -1.000
 5514.00    1.80434   1.74564   -1.000
 5515.00    1.83033   1.75830   -1.000
 5516.00    1.85527   1.77843   -1.000
 5517.00    1.87549   1.79943   -1.000
 5518.00    1.89225   1.81756   -1.000
 5519.00    1.89817   1.82993   -1.000
 5520.00    1.89393   1.83558   -1.000
 5521.00    1.88524   1.83605   -1.000
 5522.00    1.87591   1.83444   -1.000
 5523.00    1.87355   1.83115   -1.000
 5524.00    1.86891   1.82222   -1.000
 5525.00    1.85103   1.80330   -1.000
 5526.00    1.82322   1.77463   -1.000
 5527.00    1.79269   1.74509   -1.000
 5528.00    1.78266   1.72857   -1.000
 5529.00    1.80419   1.73612   -1.000
 5530.00    1.83766   1.76419   -1.000
 5531.00    1.85901   1.79461   -1.000
 5532.00    1.86343   1.81044   -1.000
 5533.00    1.85609   1.80906   -1.000
 5534.00    1.84514   1.79971   -1.000
 5535.00    1.84104   1.79369   -1.000
 5536.00    1.84848   1.79717   -1.000
 5537.00    1.86237   1.80699   -1.000
 5538.00    1.87639   1.81649   -1.000
 5539.00    1.88367   1.82406   -1.000
 5540.00    1.88617   1.83156   -1.000
 5541.00    1.88675   1.83602   -1.000
 5542.00    1.88000   1.83294   -1.000
 5543.00    1.86910   1.82416   -1.000
 5544.00    1.86165   1.81724   -1.000
 5545.00    1.86223   1.81721   -1.000
 5546.00    1.87053   1.82280   -1.000
 5547.00    1.88177   1.83122   -1.000
 5548.00    1.89493   1.84167   -1.000
 5549.00    1.90544   1.85182   -1.000
 5550.00    1.91053   1.85779   -1.000
 5551.00    1.90963   1.85789   -1.000
 5552.00    1.89848   1.85271   -1.000
 5553.00    1.88395   1.84455   -1.000
 5554.00    1.87847   1.83779   -1.000
 5555.00    1.88199   1.83635   -1.000
 5556.00    1.89057   1.83944   -1.000
 5557.00    1.89677   1.84363   -1.000
 5558.00    1.89860   1.84711   -1.000
 5559.00    1.90234   1.84921   -1.000
 5560.00    1.90215   1.84790   -1.000
 5561.00    1.89312   1.84125   -1.000
 5562.00    1.87840   1.83079   -1.000
 5563.00    1.86730   1.82081   -1.000
 5564.00    1.86333   1.81406   -1.000
 5565.00    1.86114   1.81014   -1.000
 5566.00    1.86130   1.80749   -1.000
 5567.00    1.86381   1.80506   -1.000
 5568.00    1.86251   1.80242   -1.000
 5569.00    1.85683   1.79970   -1.000
 5570.00    1.85629   1.79677   -1.000
 5571.00    1.85685   1.79308   -1.000
 5572.00    1.85146   1.78892   -1.000
 5573.00    1.85224   1.78794   -1.000
 5574.00    1.86010   1.79326   -1.000
 5575.00    1.86131   1.80187   -1.000
 5576.00    1.83735   1.80991   -1.000
 5577.00    1.79076   1.81829   -1.000
 5578.00    1.76706   1.82814   -1.000
 5579.00    1.79381   1.83637   -1.000
 5580.00    1.85260   1.83978  156.226
 5581.00    1.89573   1.83913   -1.000
 5582.00    1.89349   1.83742   -1.000
 5583.00    1.88507   1.83543   -1.000
 5584.00    1.87934   1.82943   -1.000
 5585.00    1.85663   1.81140   -1.000
 5586.00    1.82173   1.77798   -1.000
 5587.00    1.78821   1.74017   -1.000
 5588.00    1.77607   1.71499   -1.000
 5589.00    1.78953   1.71193   -1.000
 5590.00    1.81606   1.72829   -1.000
 5591.00    1.84019   1.75321   -1.000
 5592.00    1.84711   1.77313   -1.000
 5593.00    1.84296   1.78230   -1.000
 5594.00    1.84185   1.78592   -1.000
 5595.00    1.85473   1.79192   -1.000
 5596.00    1.86765   1.80009   -1.000
 5597.00    1.86477   1.80185   -1.000
 5598.00    1.84972   1.79346   -1.000
 5599.00    1.84192   1.78197   -1.000
 5600.00    1.83739   1.77235   -1.000
 5601.00    1.82630   1.76350   -1.000
 5602.00    1.82244   1.76017   -1.000
 5603.00    1.83960   1.77184   -1.000
 5604.00    1.87377   1.80039   -1.000
 5605.00    1.90551   1.83650   -1.000
 5606.00    1.92759   1.86733   -1.000
 5607.00    1.93980   1.88620   -1.000
 5608.00    1.94012   1.89449   -1.000
 5609.00    1.93638   1.89708   -1.000
 5610.00    1.93392   1.89797   -1.000
 5611.00    1.93338   1.89735   -1.000
 5612.00    1.92770   1.88901   -1.000
 5613.00    1.90291   1.86540   -1.000
 5614.00    1.86371   1.82765   -1.000
 5615.00    1.83439   1.79009   -1.000
 5616.00    1.83747   1.77393   -1.000
 5617.00    1.86885   1.78587   -1.000
 5618.00    1.89742   1.81210   -1.000
 5619.00    1.90912   1.83559   -1.000
 5620.00    1.91452   1.85062   -1.000
 5621.00    1.91621   1.85760   -1.000
 5622.00    1.90575   1.85609   -1.000
 5623.00    1.88591   1.84499   -1.000
 5624.00    1.87271   1.82987   -1.000
 5625.00    1.87344   1.82196   -1.000
 5626.00    1.89153   1.82799   -1.000
 5627.00    1.91296   1.84486   -1.000
 5628.00    1.92996   1.86413   -1.000
 5629.00    1.94275   1.87974   -1.000
 5630.00    1.95059   1.88963   -1.000
 5631.00    1.95043   1.89256   -1.000
 5632.00    1.94620   1.88822   -1.000
 5633.00    1.93663   1.87968   -1.000
 5634.00    1.92977   1.87045   -1.000
 5635.00    1.92441   1.86192   -1.000
 5636.00    1.91737   1.85437   -1.000
 5637.00    1.90781   1.84873   -1.000
 5638.00    1.90354   1.84636   -1.000
 5639.00    1.90244   1.84664   -1.000
 5640.00    1.90075   1.84651   -1.000
 5641.00    1.90265   1.84552   -1.000
 5642.00    1.90773   1.84656   -1.000
 5643.00    1.91022   1.85049   -1.000
 5644.00    1.91393   1.85560   -1.000
 5645.00    1.91963   1.86098   -1.000
 5646.00    1.92617   1.86587   -1.000
 5647.00    1.93240   1.86870   -1.000
 5648.00    1.93473   1.86859   -1.000
 5649.00    1.93115   1.86666   -1.000
 5650.00    1.92970   1.86573   -1.000
 5651.00    1.93318   1.86697   -1.000
 5652.00    1.93544   1.86809   -1.000
 5653.00    1.93446   1.86576   -1.000
 5654.00    1.92214   1.85837   -1.000
 5655.00    1.90331   1.84560   -1.000
 5656.00    1.88043   1.82670   -1.000
 5657.00    1.84878   1.80315   -1.000
 5658.00    1.82728   1.78398   -1.000
 5659.00    1.83680   1.77986   -1.000
 5660.00    1.86431   1.79026   -1.000
 5661.00    1.87982   1.80509   -1.000
 5662.00    1.88216   1.81666   -1.000
 5663.00    1.88935   1.82636   -1.000
 5664.00    1.90716   1.83899   -1.000
 5665.00    1.92285   1.85237   -1.000
 5666.00    1.91921   1.85910   -1.000
 5667.00    1.90679   1.85784   -1.000
 5668.00    1.90288   1.85456   -1.000
 5669.00    1.90461   1.85509   -1.000
 5670.00    1.91316   1.86085   -1.000
 5671.00    1.92919   1.86982   -1.000
 5672.00    1.94225   1.87879   -1.000
 5673.00    1.94635   1.88569   -1.000
 5674.00    1.94658   1.88928   -1.000
 5675.00    1.94410   1.89012   -1.000
 5676.00    1.94568   1.89042   -1.000
 5677.00    1.95019   1.89131   -1.000
 5678.00    1.94868   1.89096   -1.000
 5679.00    1.94203   1.88656   -1.000
 5680.00    1.93771   1.87627   -1.000
 5681.00    1.92936   1.86062   -1.000
 5682.00    1.91756   1.84362   -1.000
 5683.00    1.90853   1.83157   -1.000
 5684.00    1.90274   1.82913   -1.000
 5685.00    1.90753   1.83413   -1.000
 5686.00    1.91063   1.83826   -1.000
 5687.00    1.90079   1.83646   -1.000
 5688.00    1.89930   1.83259   -1.000
 5689.00    1.90918   1.83460   -1.000
 5690.00    1.92536   1.84593   -1.000
 5691.00    1.94122   1.86234   -1.000
 5692.00    1.95036   1.87692   -1.000
 5693.00    1.95203   1.88644   -1.000
 5694.00    1.94825   1.89177   -1.000
 5695.00    1.94838   1.89408   -1.000
 5696.00    1.94876   1.89360   -1.000
 5697.00    1.94280   1.88955   -1.000
 5698.00    1.93281   1.88120   -1.000
 5699.00    1.92077   1.86962   -1.000
 5700.00    1.90671   1.85804   -1.000
 5701.00    1.89647   1.85032   -1.000
 5702.00    1.89714   1.84853   -1.000
 5703.00    1.90683   1.85174   -1.000
 5704.00    1.90996   1.85528   -1.000
 5705.00    1.89813   1.85344   -1.000
 5706.00    1.87973   1.84386   -1.000
 5707.00    1.85824   1.82771   -1.000
 5708.00    1.83802   1.80796   -1.000
 5709.00    1.82872   1.79078   -1.000
 5710.00    1.82956   1.78375   -1.000
 5711.00    1.84547   1.79064   -1.000
 5712.00    1.87930   1.81029   -1.000
 5713.00    1.91043   1.83717   -1.000
 5714.00    1.92956   1.86270   -1.000
 5715.00    1.94221   1.87982   -1.000
 5716.00    1.94934   1.88870   -1.000
 5717.00    1.95174   1.89428   -1.000
 5718.00    1.95619   1.90035   -1.000
 5719.00    1.96344   1.90771   -1.000
 5720.00    1.96975   1.91588   -1.000
 5721.00    1.97248   1.92343   -1.000
 5722.00    1.97476   1.92887   -1.000
 5723.00    1.97710   1.93150   -1.000
 5724.00    1.97687   1.93090   -1.000
 5725.00    1.96882   1.92593   -1.000
 5726.00    1.95772   1.91717   -1.000
 5727.00    1.95277   1.90883   -1.000
 5728.00    1.95633   1.90534   -1.000
 5729.00    1.95545   1.90684   -1.000
 5730.00    1.95015   1.90908   -1.000
 5731.00    1.95107   1.90906   -1.000
 5732.00    1.96039   1.90904   -1.000
 5733.00    1.97202   1.91304   -1.000
 5734.00    1.97820   1.92099   -1.000
 5735.00    1.97720   1.92849   -1.000
 5736.00    1.97160   1.93187   -1.000
 5737.00    1.97154   1.93159   -1.000
 5738.00    1.97588   1.93041   -1.000
 5739.00    1.97350   1.93000   -1.000
 5740.00    1.96807   1.92957   -1.000
 5741.00    1.96757   1.92769   -1.000
 5742.00    1.96344   1.92533   -1.000
 5743.00    1.96344   1.92514   -1.000
 5744.00    1.97260   1.92782   -1.000
 5745.00    1.97408   1.93037   -1.000
 5746.00    1.96670   1.92948   -1.000
 5747.00    1.95805   1.92602   -1.000
 5748.00    1.95255   1.92417   -1.000
 5749.00    1.95734   1.92553   -1.000
 5750.00    1.96489   1.92543   -1.000
 5751.00    1.95933   1.91792   -1.000
 5752.00    1.94296   1.90360   -1.000
 5753.00    1.92824   1.89019   -1.000
 5754.00    1.92710   1.88681   -1.000
 5755.00    1.94365   1.89671   -1.000
 5756.00    1.96879   1.91490   -1.000
 5757.00    1.98396   1.93216   -1.000
 5758.00    1.98370   1.94147   -1.000
 5759.00    1.98034   1.94067   -1.000
 5760.00    1.97086   1.93129   -1.000
 5761.00    1.95360   1.91689   -1.000
 5762.00    1.94445   1.90448   -1.000
 5763.00    1.95121   1.90225   -1.000
 5764.00    1.96751   1.91304   -1.000
 5765.00    1.98038   1.93110   -1.000
 5766.00    1.98507   1.94668   -1.000
 5767.00    1.98797   1.95423   -1.000
 5768.00    1.99188   1.95513   -1.000
 5769.00    1.98921   1.95307   -1.000
 5770.00    1.98206   1.94958   -1.000
 5771.00    1.97689   1.94429   -1.000
 5772.00    1.97318   1.93724   -1.000
 5773.00    1.96772   1.93047   -1.000
 5774.00    1.96142   1.92651   -1.000
 5775.00    1.96099   1.92655   -1.000
 5776.00    1.96677   1.92962   -1.000
 5777.00    1.96453   1.93126   -1.000
 5778.00    1.94933   1.92551   -1.000
 5779.00    1.91729   1.91094  152.698
 5780.00    1.87138   1.89251  154.290
 5781.00    1.83809   1.87763   -1.000
 5782.00    1.83589   1.87102   -1.000
 5783.00    1.85811   1.87227  160.627
 5784.00    1.88641   1.87723  160.013
 5785.00    1.91251   1.88313   -1.000
 5786.00    1.93652   1.89167   -1.000
 5787.00    1.95383   1.90407   -1.000
 5788.00    1.96273   1.91562   -1.000
 5789.00    1.96415   1.92033   -1.000
 5790.00    1.96070   1.91831   -1.000
 5791.00    1.95886   1.91597   -1.000
 5792.00    1.96466   1.91924   -1.000
 5793.00    1.97339   1.92829   -1.000
 5794.00    1.97880   1.93907   -1.000
 5795.00    1.97589   1.94722   -1.000
 5796.00    1.96228   1.94942  150.881
 5797.00    1.94573   1.94612  151.438
 5798.00    1.94498   1.94302  152.436
 5799.00    1.96061   1.94535  152.367
 5800.00    1.98156   1.95227   -1.000
 5801.00    1.99826   1.95915   -1.000
 5802.00    2.00245   1.96198   -1.000
 5803.00    1.99826   1.95903   -1.000
 5804.00    1.99097   1.95192   -1.000
 5805.00    1.98649   1.94533   -1.000
 5806.00    1.98997   1.94332   -1.000
 5807.00    1.99241   1.94583   -1.000
 5808.00    1.99397   1.95001   -1.000
 5809.00    2.00148   1.95413   -1.000
 5810.00    2.00550   1.95825   -1.000
 5811.00    2.00510   1.96164   -1.000
 5812.00    2.00794   1.96247   -1.000
 5813.00    2.01121   1.95993   -1.000
 5814.00    2.00770   1.95436   -1.000
 5815.00    2.00197   1.94758   -1.000
 5816.00    2.00247   1.94401   -1.000
 5817.00    2.01070   1.94777   -1.000
 5818.00    2.02435   1.95724   -1.000
 5819.00    2.03217   1.96633   -1.000
 5820.00    2.03061   1.97116   -1.000
 5821.00    2.03118   1.97271   -1.000
 5822.00    2.03282   1.97363   -1.000
 5823.00    2.03234   1.97470   -1.000
 5824.00    2.03233   1.97515   -1.000
 5825.00    2.03553   1.97505   -1.000
 5826.00    2.03402   1.97571   -1.000
 5827.00    2.03091   1.97760   -1.000
 5828.00    2.03577   1.97947   -1.000
 5829.00    2.03973   1.98016   -1.000
 5830.00    2.04075   1.97988   -1.000
 5831.00    2.04068   1.97920   -1.000
 5832.00    2.04048   1.97778   -1.000
 5833.00    2.03689   1.97514   -1.000
 5834.00    2.03105   1.97230   -1.000
 5835.00    2.02981   1.97155   -1.000
 5836.00    2.03347   1.97410   -1.000
 5837.00    2.03649   1.97813   -1.000
 5838.00    2.03422   1.98090   -1.000
 5839.00    2.03498   1.98203   -1.000
 5840.00    2.04199   1.98308   -1.000
 5841.00    2.04334   1.98436   -1.000
 5842.00    2.03815   1.98459   -1.000
 5843.00    2.03396   1.98292   -1.000
 5844.00    2.03063   1.97936   -1.000
 5845.00    2.02451   1.97392   -1.000
 5846.00    2.02001   1.96767   -1.000
 5847.00    2.01750   1.96343   -1.000
 5848.00    2.01930   1.96283   -1.000
 5849.00    2.02241   1.96341   -1.000
 5850.00    2.01596   1.96067   -1.000
 5851.00    2.00191   1.95237   -1.000
 5852.00    1.99183   1.94037   -1.000
 5853.00    1.98959   1.92863   -1.000
 5854.00    1.98723   1.91938   -1.000
 5855.00    1.98433   1.91004   -1.000
 5856.00    1.97704   1.89610   -1.000
 5857.00    1.96372   1.88037   -1.000
 5858.00    1.96557   1.87414   -1.000
 5859.00    1.98664   1.88338   -1.000
 5860.00    2.00497   1.90172   -1.000
 5861.00    2.01133   1.91920   -1.000
 5862.00    2.01446   1.93166   -1.000
 5863.00    2.01907   1.94047   -1.000
 5864.00    2.01914   1.94577   -1.000
 5865.00    2.01323   1.94513   -1.000
 5866.00    2.00585   1.93976   -1.000
 5867.00    2.01045   1.93587   -1.000
 5868.00    2.02643   1.93929   -1.000
 5869.00    2.03650   1.95023   -1.000
 5870.00    2.03924   1.96269   -1.000
 5871.00    2.03879   1.96985   -1.000
 5872.00    2.03957   1.96959   -1.000
 5873.00    2.04131   1.96457   -1.000
 5874.00    2.04194   1.95857   -1.000
 5875.00    2.03887   1.95378   -1.000
 5876.00    2.03565   1.95060   -1.000
 5877.00    2.03370   1.94823   -1.000
 5878.00    2.02575   1.94531   -1.000
 5879.00    2.02024   1.94116   -1.000
 5880.00    2.02025   1.93595   -1.000
 5881.00    2.01733   1.92959   -1.000
 5882.00    2.01142   1.92138   -1.000
 5883.00    2.00900   1.91168   -1.000
 5884.00    2.00779   1.90217   -1.000
 5885.00    2.00146   1.89167   -1.000
 5886.00    1.97495   1.86975   -1.000
 5887.00    1.90773   1.82033   -1.000
 5888.00    1.78170   1.73982   -1.000
 5889.00    1.60818   1.65391   -1.000
 5890.00    1.46321   1.60603   -1.000
 5891.00    1.44694   1.61544   -1.000
 5892.00    1.56727   1.65547   -1.000
 5893.00    1.70779   1.68331   -1.000
 5894.00    1.74095   1.67869   -1.000
 5895.00    1.65977   1.65462  172.952
 5896.00    1.56527   1.64306   -1.000
 5897.00    1.56135   1.66688   -1.000
 5898.00    1.67340   1.71991   -1.000
 5899.00    1.82435   1.77770   -1.000
 5900.00    1.92876   1.82557   -1.000
 5901.00    1.97493   1.86318   -1.000
 5902.00    1.99020   1.89128   -1.000
 5903.00    1.99701   1.90894   -1.000
 5904.00    2.00800   1.91797   -1.000
 5905.00    2.01612   1.92273   -1.000
 5906.00    2.01638   1.92699   -1.000
 5907.00    2.02085   1.93176   -1.000
 5908.00    2.02335   1.93637   -1.000
 5909.00    2.01999   1.94012   -1.000
 5910.00    2.01426   1.94242   -1.000
 5911.00    2.00862   1.94167   -1.000
 5912.00    2.00363   1.93551   -1.000
 5913.00    1.99138   1.92424   -1.000
 5914.00    1.98097   1.91287   -1.000
 5915.00    1.97766   1.90710   -1.000
 5916.00    1.98197   1.90891   -1.000
 5917.00    1.99413   1.91698   -1.000
 5918.00    2.00395   1.92797   -1.000
 5919.00    2.00734   1.93753   -1.000
 5920.00    2.00291   1.94269   -1.000
 5921.00    1.99858   1.94385   -1.000
 5922.00    2.00353   1.94343   -1.000
 5923.00    2.00800   1.94397   -1.000
 5924.00    2.00910   1.94695   -1.000
 5925.00    2.01037   1.95179   -1.000
 5926.00    2.01135   1.95517   -1.000
 5927.00    2.01202   1.95291   -1.000
 5928.00    2.00941   1.94433   -1.000
 5929.00    2.00668   1.93421   -1.000
 5930.00    2.00733   1.92948   -1.000
 5931.00    2.01212   1.93297   -1.000
 5932.00    2.01584   1.94018   -1.000
 5933.00    2.01141   1.94446   -1.000
 5934.00    2.00885   1.94543   -1.000
 5935.00    2.01175   1.94775   -1.000
 5936.00    2.01520   1.95342   -1.000
 5937.00    2.02358   1.95970   -1.000
 5938.00    2.02819   1.96236   -1.000
 5939.00    2.02337   1.95939   -1.000
 5940.00    2.01435   1.95275   -1.000
 5941.00    2.00595   1.94688   -1.000
 5942.00    2.00170   1.94524   -1.000
 5943.00    2.00156   1.94777   -1.000
 5944.00    2.00545   1.95196   -1.000
 5945.00    2.00850   1.95464   -1.000
 5946.00    2.00719   1.95329   -1.000
 5947.00    1.99703   1.94795   -1.000
 5948.00    1.98667   1.94216   -1.000
 5949.00    1.98858   1.94025   -1.000
 5950.00    1.99867   1.94247   -1.000
 5951.00    2.00036   1.94450   -1.000
 5952.00    1.99760   1.94328   -1.000
 5953.00    2.00183   1.94154   -1.000
 5954.00    2.00495   1.94185   -1.000
 5955.00    2.00787   1.94184   -1.000
 5956.00    2.00720   1.93995   -1.000
 5957.00    2.00523   1.93941   -1.000
 5958.00    2.00932   1.94386   -1.000
 5959.00    2.01651   1.95324   -1.000
 5960.00    2.02718   1.96377   -1.000
 5961.00    2.03745   1.97146   -1.000
 5962.00    2.04010   1.97499   -1.000
 5963.00    2.03416   1.97471   -1.000
 5964.00    2.03073   1.97152   -1.000
 5965.00    2.03292   1.96715   -1.000
 5966.00    2.03236   1.96405   -1.000
 5967.00    2.03011   1.96390   -1.000
 5968.00    2.02995   1.96674   -1.000
 5969.00    2.03122   1.97168   -1.000
 5970.00    2.03165   1.97749   -1.000
 5971.00    2.03312   1.98207   -1.000
 5972.00    2.03673   1.98328   -1.000
 5973.00    2.03483   1.97987   -1.000
 5974.00    2.02144   1.97160   -1.000
 5975.00    2.00751   1.96015   -1.000
 5976.00    2.00116   1.94966   -1.000
 5977.00    1.99794   1.94510   -1.000
 5978.00    1.99984   1.94869   -1.000
 5979.00    2.01093   1.95788   -1.000
 5980.00    2.02570   1.96684   -1.000
 5981.00    2.02777   1.96950   -1.000
 5982.00    2.01336   1.96319   -1.000
 5983.00    1.99812   1.95110   -1.000
 5984.00    1.99250   1.94075   -1.000
 5985.00    1.99774   1.93820   -1.000
 5986.00    2.00782   1.94367   -1.000
 5987.00    2.01906   1.95289   -1.000
 5988.00    2.02674   1.96127   -1.000
 5989.00    2.02526   1.96640   -1.000
 5990.00    2.02106   1.96827   -1.000
 5991.00    2.01900   1.96954   -1.000
 5992.00    2.02102   1.97385   -1.000
 5993.00    2.02865   1.98129   -1.000
 5994.00    2.03503   1.98676   -1.000
 5995.00    2.03311   1.98594   -1.000
 5996.00    2.02895   1.98022   -1.000
 5997.00    2.02292   1.97423   -1.000
 5998.00    2.01900   1.97140   -1.000
 5999.00    2.02401   1.97166   -1.000
 6000.00    2.02762   1.97224   -1.000
 6001.00    2.02541   1.97032   -1.000
 6002.00    2.01928   1.96590   -1.000
 6003.00    2.01258   1.96205   -1.000
 6004.00    2.01104   1.96088   -1.000
 6005.00    2.00766   1.95950   -1.000
 6006.00    1.99772   1.95323   -1.000
 6007.00    1.99012   1.94334   -1.000
 6008.00    1.98907   1.93781   -1.000
 6009.00    1.99690   1.94265   -1.000
 6010.00    2.00686   1.95470   -1.000
 6011.00    2.00801   1.96446   -1.000
 6012.00    2.00126   1.96643   -1.000
 6013.00    2.00082   1.96325   -1.000
 6014.00    2.00724   1.95976   -1.000
 6015.00    2.01270   1.95808   -1.000
 6016.00    2.01549   1.95747   -1.000
 6017.00    2.01524   1.95636   -1.000
 6018.00    2.01257   1.95338   -1.000
 6019.00    2.00600   1.94772   -1.000
 6020.00    1.99857   1.94105   -1.000
 6021.00    1.99650   1.93744   -1.000
 6022.00    1.99845   1.93864   -1.000
 6023.00    2.00356   1.94277   -1.000
 6024.00    2.01056   1.94949   -1.000
 6025.00    2.01448   1.95990   -1.000
 6026.00    2.02055   1.97164   -1.000
 6027.00    2.02549   1.98134   -1.000
 6028.00    2.02916   1.98919   -1.000
 6029.00    2.03483   1.99625   -1.000
 6030.00    2.04043   2.00154   -1.000
 6031.00    2.04572   2.00454   -1.000
 6032.00    2.04927   2.00662   -1.000
 6033.00    2.05260   2.00918   -1.000
 6034.00    2.05429   2.01187   -1.000
 6035.00    2.05290   2.01334   -1.000
 6036.00    2.05008   2.01301   -1.000
 6037.00    2.04517   2.01112   -1.000
 6038.00    2.03799   2.00762   -1.000
 6039.00    2.03478   2.00263   -1.000
 6040.00    2.03724   1.99742   -1.000
 6041.00    2.04033   1.99397   -1.000
 6042.00    2.04356   1.99376   -1.000
 6043.00    2.04736   1.99706   -1.000
 6044.00    2.05069   2.00252   -1.000
 6045.00    2.05257   2.00795   -1.000
 6046.00    2.05491   2.01259   -1.000
 6047.00    2.05582   2.01720   -1.000
 6048.00    2.05072   2.02138   -1.000
 6049.00    2.04969   2.02373   -1.000
 6050.00    2.05732   2.02397   -1.000
 6051.00    2.05957   2.02259   -1.000
 6052.00    2.05413   2.01913   -1.000
 6053.00    2.05029   2.01256   -1.000
 6054.00    2.04796   2.00381   -1.000
 6055.00    2.04335   1.99625   -1.000
 6056.00    2.04207   1.99354   -1.000
 6057.00    2.04728   1.99670   -1.000
 6058.00    2.05095   2.00332   -1.000
 6059.00    2.05144   2.00972   -1.000
 6060.00    2.04913   2.01333   -1.000
 6061.00    2.04190   2.01234   -1.000
 6062.00    2.03328   2.00498   -1.000
 6063.00    2.02499   1.99092   -1.000
 6064.00    2.02362   1.97430   -1.000
 6065.00    2.01553   1.96427   -1.000
 6066.00    2.00617   1.96786   -1.000
 6067.00    2.08203   1.98242   -1.000
 6068.00    1.89590   1.99958   -1.000
 6069.00    1.02055   2.01330   -1.000
 6070.00    0.74920   2.02173   -1.000
 6071.00    1.59476   2.02611   -1.000
 6072.00    2.05616   2.02878   -1.000
 6073.00    2.05268   2.03101   -1.000
 6074.00    2.07477   2.03198   -1.000
 6075.00    2.06887   2.03004   -1.000
 6076.00    2.04942   2.02428   -1.000
 6077.00    2.04220   2.01509   -1.000
 6078.00    2.03000   2.00524   -1.000
 6079.00    2.02366   1.99880   -1.000
 6080.00    2.02578   1.99621   -1.000
 6081.00    2.02510   1.99417   -1.000
 6082.00    2.02025   1.99089   -1.000
 6083.00    2.02132   1.98748   -1.000
 6084.00    2.02340   1.98586   -1.000
 6085.00    2.02240   1.98783   -1.000
 6086.00    2.02336   1.99360   -1.000
 6087.00    2.02548   2.00015   -1.000
 6088.00    2.02751   2.00337   -1.000
 6089.00    2.02131   2.00207   -1.000
 6090.00    2.01500   1.99858   -1.000
 6091.00    2.01661   1.99635   -1.000
 6092.00    2.02188   1.99752   -1.000
 6093.00    2.02940   2.00195   -1.000
 6094.00    2.03798   2.00809   -1.000
 6095.00    2.04019   2.01434   -1.000
 6096.00    2.03896   2.01979   -1.000
 6097.00    2.04095   2.02346   -1.000
 6098.00    2.04303   2.02319   -1.000
 6099.00    2.03911   2.01502   -1.000
 6100.00    2.01738   1.99516   -1.000
 6101.00    1.98475   1.96571   -1.000
 6102.00    1.96463   1.93869   -1.000
 6103.00    1.97176   1.92973   -1.000
 6104.00    1.99764   1.94316   -1.000
 6105.00    2.02132   1.96772   -1.000
 6106.00    2.03043   1.99008   -1.000
 6107.00    2.02650   2.00544   -1.000
 6108.00    2.02549   2.01545  157.088
 6109.00    2.03003   2.02203  157.641
 6110.00    2.03293   2.02532  157.764
 6111.00    2.03165   2.02608  157.524
 6112.00    2.03253   2.02654  156.979
 6113.00    2.03711   2.02820  156.613
 6114.00    2.03403   2.03037  156.208
 6115.00    2.02641   2.03134  155.550
 6116.00    2.02511   2.03056  155.731
 6117.00    2.02233   2.02814  156.627
 6118.00    2.01165   2.02175  157.257
 6119.00    1.99992   2.00691  157.698
 6120.00    1.98158   1.98181  159.311
 6121.00    1.96320   1.95264  161.606
 6122.00    1.95930   1.93228   -1.000
 6123.00    1.97550   1.93028   -1.000
 6124.00    1.99708   1.94524   -1.000
 6125.00    2.00477   1.96721   -1.000
 6126.00    2.00625   1.98570   -1.000
 6127.00    2.00632   1.99649  159.829
 6128.00    2.00590   2.00249  160.221
 6129.00    2.01321   2.00930  159.851
 6130.00    2.02221   2.01910  159.003
 6131.00    2.02595   2.02954  157.527
 6132.00    2.02296   2.03595  156.639
 6133.00    2.00918   2.03175  156.723
 6134.00    1.98180   2.01063   -1.000
 6135.00    1.94418   1.97355   -1.000
 6136.00    1.90957   1.93375   -1.000
 6137.00    1.90257   1.90974  169.265
 6138.00    1.92785   1.90770   -1.000
 6139.00    1.95965   1.91707   -1.000
 6140.00    1.97262   1.92902   -1.000
 6141.00    1.96855   1.94537   -1.000
 6142.00    1.97256   1.96788  160.706
 6143.00    1.98867   1.99179  161.100
 6144.00    2.00827   2.00966  160.359
 6145.00    2.02134   2.01739  158.448
 6146.00    2.01889   2.01634  157.402
 6147.00    2.01205   2.01026  157.783
 6148.00    2.00469   2.00243  158.709
 6149.00    1.99544   1.99530  159.805
 6150.00    1.99457   1.99161  160.856
 6151.00    2.00219   1.99381  161.298
 6152.00    2.00705   1.99981  160.932
 6153.00    2.00631   2.00309  160.029
 6154.00    2.00177   2.00022  159.350
 6155.00    1.99875   1.99448  160.027
 6156.00    1.99977   1.99029  161.217
 6157.00    1.99788   1.98714  161.622
 6158.00    1.98726   1.97890  161.980
 6159.00    1.96464   1.95745  163.243
 6160.00    1.92616   1.92013  165.759
 6161.00    1.89014   1.87645   -1.000
 6162.00    1.87638   1.84487   -1.000
 6163.00    1.88837   1.83895   -1.000
 6164.00    1.91678   1.85651   -1.000
 6165.00    1.94105   1.88361   -1.000
 6166.00    1.94644   1.90533   -1.000
 6167.00    1.93766   1.91209   -1.000
 6168.00    1.92148   1.90480   -1.000
 6169.00    1.90855   1.89638  169.700
 6170.00    1.91671   1.90032   -1.000
 6171.00    1.93973   1.91745   -1.000
 6172.00    1.95645   1.93928   -1.000
 6173.00    1.96101   1.95849  166.436
 6174.00    1.96224   1.97193  165.471
 6175.00    1.96618   1.97978  165.791
 6176.00    1.97091   1.98457  165.615
 6177.00    1.97703   1.98879  165.218
 6178.00    1.97887   1.99282  164.848
 6179.00    1.97834   1.99639  164.198
 6180.00    1.98615   2.00063  163.470
 6181.00    1.99557   2.00657  162.937
 6182.00    1.99871   2.01261  162.295
 6183.00    1.99996   2.01546  161.696
 6184.00    1.99868   2.01341  161.693
 6185.00    1.99311   2.00725  162.198
 6186.00    1.98327   1.99867  163.152
 6187.00    1.97454   1.98910  164.763
 6188.00    1.96231   1.97793  166.548
 6189.00    1.94566   1.96250  168.185
 6190.00    1.92682   1.94423  169.580
 6191.00    1.92210   1.93298  171.287
 6192.00    1.94028   1.93775  173.039
 6193.00    1.96683   1.95542  172.477
 6194.00    1.98889   1.97591  169.105
 6195.00    1.99737   1.99261  165.491
 6196.00    1.99321   2.00309  163.791
 6197.00    1.98585   2.00626  163.283
 6198.00    1.97482   2.00249   -1.000
 6199.00    1.96666   1.99558   -1.000
 6200.00    1.96848   1.99170   -1.000
 6201.00    1.97434   1.99471  167.568
 6202.00    1.97797   2.00344   -1.000
 6203.00    1.97910   2.01427   -1.000
 6204.00    1.98022   2.02387   -1.000
 6205.00    1.98344   2.03050   -1.000
 6206.00    1.99011   2.03425   -1.000
 6207.00    1.99741   2.03601   -1.000
 6208.00    1.99691   2.03566   -1.000
 6209.00    1.99429   2.03177   -1.000
 6210.00    1.99012   2.02253   -1.000
 6211.00    1.97841   2.00726   -1.000
 6212.00    1.96162   1.98842   -1.000
 6213.00    1.94577   1.97141   -1.000
 6214.00    1.93840   1.96111   -1.000
 6215.00    1.94497   1.95812  172.333
 6216.00    1.95254   1.95868  173.330
 6217.00    1.95709   1.95806  172.303
 6218.00    1.95932   1.95507  170.557
 6219.00    1.95708   1.95337  170.963
 6220.00    1.95657   1.95716  171.441
 6221.00    1.96505   1.96610  170.293
 6222.00    1.97565   1.97559  170.176
 6223.00    1.98270   1.98211  177.108
 6224.00    1.99862   1.98559  181.631
 6225.00    1.89146   1.98672   -1.000
 6226.00    1.74562   1.98460   -1.000
 6227.00    1.86946   1.97634   -1.000
 6228.00    1.97579   1.95972   -1.000
 6229.00    1.93891   1.93761  171.156
 6230.00    1.92557   1.91882  173.853
 6231.00    1.92461   1.91262  176.438
 6232.00    1.94234   1.92191   -1.000
 6233.00    1.96526   1.94117   -1.000
 6234.00    1.98210   1.96053   -1.000
 6235.00    1.99012   1.97214   -1.000
 6236.00    1.98811   1.97380  167.403
 6237.00    1.97727   1.96851  167.722
 6238.00    1.96528   1.96139  169.266
 6239.00    1.96023   1.95594  171.011
 6240.00    1.95685   1.95239  172.788
 6241.00    1.94845   1.94842  174.084
 6242.00    1.93939   1.94128  174.321
 6243.00    1.93608   1.93033  174.871
 6244.00    1.93427   1.91821   -1.000
 6245.00    1.93083   1.91026   -1.000
 6246.00    1.93577   1.91246   -1.000
 6247.00    1.95166   1.92684   -1.000
 6248.00    1.96928   1.94767   -1.000
 6249.00    1.97653   1.96374  170.452
 6250.00    1.96846   1.96605  169.499
 6251.00    1.94649   1.95408  170.301
 6252.00    1.92157   1.93530  172.777
 6253.00    1.90990   1.91940  175.572
 6254.00    1.90809   1.91156  177.159
 6255.00    1.90350   1.91045  177.960
 6256.00    1.90246   1.91188  178.130
 6257.00    1.91264   1.91369  178.842
 6258.00    1.92642   1.91743  180.599
 6259.00    1.93630   1.92572  181.024
 6260.00    1.95035   1.93922  179.112
 6261.00    1.96334   1.95571  176.293
 6262.00    1.97085   1.97091  173.791
 6263.00    1.97590   1.98076  171.285
 6264.00    1.97327   1.98516  169.472
 6265.00    1.96812   1.98809  169.828
 6266.00    1.96783   1.99252   -1.000
 6267.00    1.97153   1.99681   -1.000
 6268.00    1.97430   1.99721   -1.000
 6269.00    1.96881   1.99360   -1.000
 6270.00    1.96275   1.99021   -1.000
 6271.00    1.96459   1.99020   -1.000
 6272.00    1.96841   1.99141   -1.000
 6273.00    1.97522   1.98789  170.101
 6274.00    1.98029   1.97570  170.124
 6275.00    1.97944   1.95673   -1.000
 6276.00    1.96721   1.93663   -1.000
 6277.00    1.94074   1.92044   -1.000
 6278.00    1.89856   1.91021  178.107
 6279.00    1.85443   1.90678   -1.000
 6280.00    1.82907   1.91178   -1.000
 6281.00    1.82560   1.92535   -1.000
 6282.00    1.83195   1.94439   -1.000
 6283.00    1.83541   1.96424   -1.000
 6284.00    1.84139   1.98082   -1.000
 6285.00    1.85066   1.99235   -1.000
 6286.00    1.86988   1.99927   -1.000
 6287.00    1.90424   2.00228   -1.000
 6288.00    1.93184   2.00109   -1.000
 6289.00    1.94746   1.99609   -1.000
 6290.00    1.95273   1.99004   -1.000
 6291.00    1.95269   1.98588   -1.000
 6292.00    1.95492   1.98443   -1.000
 6293.00    1.95371   1.98444   -1.000
 6294.00    1.95143   1.98326   -1.000
 6295.00    1.95160   1.97807   -1.000
 6296.00    1.94386   1.96876   -1.000
 6297.00    1.93590   1.95895   -1.000
 6298.00    1.93437   1.95202  175.718
 6299.00    1.93770   1.94716  175.673
 6300.00    1.94004   1.94219  175.155
 6301.00    1.95003   1.93954  174.365
 6302.00    1.96668   1.94534   -1.000
 6303.00    1.97379   1.96116  176.538
 6304.00    1.97814   1.98103  176.939
 6305.00    1.98119   1.99774  174.579
 6306.00    1.98443   2.00819   -1.000
 6307.00    1.98555   2.01280   -1.000
 6308.00    1.98268   2.01368   -1.000
 6309.00    1.97580   2.01316   -1.000
 6310.00    1.96785   2.01204   -1.000
 6311.00    1.96176   2.00953   -1.000
 6312.00    1.95770   2.00432   -1.000
 6313.00    1.95290   1.99600   -1.000
 6314.00    1.94609   1.98612   -1.000
 6315.00    1.94193   1.97680   -1.000
 6316.00    1.93837   1.96932   -1.000
 6317.00    1.92985   1.96535   -1.000
 6318.00    1.93022   1.96777   -1.000
 6319.00    1.93827   1.97768   -1.000
 6320.00    1.95054   1.99127   -1.000
 6321.00    1.96354   2.00337   -1.000
 6322.00    1.97067   2.01337   -1.000
 6323.00    1.97927   2.02353   -1.000
 6324.00    1.98923   2.03307   -1.000
 6325.00    1.99455   2.03908   -1.000
 6326.00    1.99782   2.04074   -1.000
 6327.00    2.00156   2.03991   -1.000
 6328.00    2.00499   2.03890   -1.000
 6329.00    2.00330   2.03877   -1.000
 6330.00    1.99835   2.03957   -1.000
 6331.00    1.99557   2.04020   -1.000
 6332.00    1.99454   2.03742   -1.000
 6333.00    1.98561   2.02765   -1.000
 6334.00    1.97256   2.01139   -1.000
 6335.00    1.95575   1.99508   -1.000
 6336.00    1.95356   1.98687   -1.000
 6337.00    1.99395   1.98989  170.139
 6338.00    2.02812   2.00109   -1.000
 6339.00    2.00377   2.01572  167.763
 6340.00    1.99773   2.02940   -1.000
 6341.00    2.00345   2.03789   -1.000
 6342.00    2.00051   2.03910   -1.000
 6343.00    1.99361   2.03484   -1.000
 6344.00    1.99030   2.02903   -1.000
 6345.00    1.99134   2.02558   -1.000
 6346.00    1.99495   2.02761   -1.000
 6347.00    1.99841   2.03629   -1.000
 6348.00    2.00198   2.04901   -1.000
 6349.00    2.00360   2.06058   -1.000
 6350.00    2.00612   2.06713   -1.000
 6351.00    2.00470   2.06763   -1.000
 6352.00    2.00144   2.06273   -1.000
 6353.00    1.99161   2.05431   -1.000
 6354.00    1.97886   2.04550   -1.000
 6355.00    1.97002   2.03880   -1.000
 6356.00    1.96701   2.03375   -1.000
 6357.00    1.96634   2.02844   -1.000
 6358.00    1.96143   2.02299   -1.000
 6359.00    1.95479   2.01861   -1.000
 6360.00    1.95502   2.01474   -1.000
 6361.00    1.96195   2.01059   -1.000
 6362.00    1.96709   2.00763   -1.000
 6363.00    1.96775   2.00818   -1.000
 6364.00    1.97926   2.01279   -1.000
 6365.00    1.99387   2.02019   -1.000
 6366.00    1.99716   2.02846   -1.000
 6367.00    2.00295   2.03517   -1.000
 6368.00    2.00072   2.03804   -1.000
 6369.00    1.99226   2.03744   -1.000
 6370.00    1.99238   2.03700   -1.000
 6371.00    2.00001   2.04025   -1.000
 6372.00    2.00322   2.04708   -1.000
 6373.00    2.00420   2.05407   -1.000
 6374.00    2.00591   2.05767   -1.000
 6375.00    1.99772   2.05666   -1.000
 6376.00    1.98543   2.05220   -1.000
 6377.00    1.98107   2.04654   -1.000
 6378.00    1.97947   2.04138   -1.000
 6379.00    1.96984   2.03700   -1.000
 6380.00    1.95985   2.03313   -1.000
 6381.00    1.95948   2.03001   -1.000
 6382.00    1.96179   2.02844   -1.000
 6383.00    1.96380   2.02949   -1.000
 6384.00    1.96684   2.03370   -1.000
 6385.00    1.96782   2.03993   -1.000
 6386.00    1.96618   2.04539   -1.000
 6387.00    1.96110   2.04803   -1.000
 6388.00    1.95300   2.04804   -1.000
 6389.00    1.94338   2.04581   -1.000
 6390.00    1.93264   2.03963   -1.000
 6391.00    1.91743   2.02815   -1.000
 6392.00    1.89610   2.01496   -1.000
 6393.00    1.88131   2.00764   -1.000
 6394.00    1.88024   2.01115   -1.000
 6395.00    1.88836   2.02252   -1.000
 6396.00    1.89389   2.03242   -1.000
 6397.00    1.88240   2.03224   -1.000
 6398.00    1.85682   2.02131   -1.000
 6399.00    1.82953   2.00829   -1.000
 6400.00    1.81831   2.00401   -1.000
 6401.00    1.82893   2.01252   -1.000
 6402.00    1.84458   2.02926   -1.000
 6403.00    1.85217   2.04570   -1.000
 6404.00    1.85073   2.05458   -1.000
 6405.00    1.84050   2.05304   -1.000
 6406.00    1.82361   2.04425   -1.000
 6407.00    1.80719   2.03544   -1.000
 6408.00    1.79670   2.03160   -1.000
 6409.00    1.78565   2.03128   -1.000
 6410.00    1.77122   2.03083   -1.000
 6411.00    1.75710   2.03079   -1.000
 6412.00    1.75011   2.03386   -1.000
 6413.00    1.74736   2.03947   -1.000
 6414.00    1.74211   2.04462   -1.000
 6415.00    1.73763   2.04803   -1.000
 6416.00    1.73088   2.04966   -1.000
 6417.00    1.72039   2.04791   -1.000
 6418.00    1.69926   2.04078   -1.000
 6419.00    1.67380   2.02995   -1.000
 6420.00    1.65336   2.02180   -1.000
 6421.00    1.64137   2.02353   -1.000
 6422.00    1.64199   2.03650   -1.000
 6423.00    1.64579   2.05457   -1.000
 6424.00    1.64234   2.07083   -1.000
 6425.00    1.63182   2.08251   -1.000
 6426.00    1.61527   2.08840   -1.000
 6427.00    1.59614   2.08639   -1.000
 6428.00    1.57734   2.07486   -1.000
