###################################################################
## OUTPUT of StarlightChains_v04.for    [Cid@UFSC - 01/Apr/2007] ##
###################################################################

## Some input info
NGC6121_a_1.cxt                          [arq_obs]
Base.BC03.N                              [arq_base]
NGC6121_a_1.msk                          [arq_masks]
StCv04.C11.config                        [arq_config]
   45                                    [N_base]
    0                                    [N_YAV_components = # of components with extra extinction!]
    0                                    [i_FitPowerLaw (1/0 = Yes/No)]
-9.99                                    [alpha_PowerLaw]
CCM                                      [red_law_option]
 1.458241                                [q_norm = A(l_norm)/A(V)]

## (Re)Sampling Parameters
 3359.00                                 [l_ini (A)]
 6428.00                                 [l_fin (A)]
    1.00                                 [dl    (A)]     (OBS: dl_cushion =    50.00 A)

## Normalization info
 4020.00                                 [l_norm (A) - for base]
 4010.00                                 [llow_norm (A) - window for f_obs]
 4060.00                                 [lupp_norm (A) - window for f_obs]
2.192402E-14                             [fobs_norm (in input units)]

## S/N
 4730.00                                 [llow_SN (A) - window for S/N]
 4780.00                                 [lupp_SN (A) - window for S/N]
  81.858                                 [S/N in S/N window]
  65.062                                 [S/N in norm. window]
 104.198                                 [S/N_err in S/N window]
  82.818                                 [S/N_err in norm. window]
  1.0000                                 [fscale_chi2]

## etc...
  2147483628                             [idum_orig]
  3070                                   [NOl_eff]
  2020                                   [Nl_eff]
  1050    NSIGMA                         [Ntot_cliped & clip_method]
   926940                                [Nglobal_steps]
   7                                     [N_chains]
  12                                     [NEX0s_base = N_base in EX0s-fits]
 0   0   1      112   2.0   2.032E+02    [Clip-Bug, RC-Crash & Burn-In warning-flags, n_censored_weights, wei_nsig_threshold & wei_limit]
    10     10.137     10.137      0.000  [idt_all, wdt_TotTime, wdt_UsrTime & wdt_SysTime (sec)]

## Synthesis Results - Best model ##

 2.03035E+00                             [chi2/Nl_eff]
     1.29010                             [adev (%)]

    99.87203                             [sum-of-x (%)]
 1.14986E-13                             [Flux_tot (units of input spectrum!)]
 1.05543E-09                             [Mini_tot (???)]
 5.64233E-10                             [Mcor_tot (???)]

 -21.32                                  [v0_min  (km/s)]
  77.44                                  [vd_min  (km/s)]
 1.2348                                  [AV_min  (mag)]
 0.0000                                  [YAV_min (mag)]

# j     x_j(%)      Mini_j(%)     Mcor_j(%)     age_j(yr)     Z_j      (L/M)_j    YAV?  Mstars   component_j        a/Fe...       SSP_chi2r SSP_adev(%)   SSP_AV   SSP_x(%)
  1      0.0000     0.0000E+00    0.0000E+00    1.000000E+06  0.00400  1.114E-02    0   1.0000   age020_m42            0.0000     1.4652E+02     9.7082   4.0000    84.9213
  2      4.4371     1.1884E-02    2.2227E-02    3.160000E+06  0.00400  4.073E-02    0   0.9999   age045_m42            0.0000     2.5377E+01     4.3954   3.3194    92.2172
  3      0.5612     2.4158E-03    4.2875E-03    5.010000E+06  0.00400  2.534E-02    0   0.9488   age055_m42            0.0000     5.9864E+01     6.6470   3.6949    86.6393
  4      8.3749     7.1880E-02    1.1915E-01    1.000000E+07  0.00400  1.271E-02    0   0.8862   age070_m42            0.0000     5.1575E+01     6.4746   2.9083    90.8927
  5      1.2740     2.7412E-02    4.1913E-02    2.512000E+07  0.00400  5.070E-03    0   0.8174   age090_m42            0.0000     4.5098E+01     6.0475   2.7909    92.0881
  6      0.0000     0.0000E+00    0.0000E+00    4.000000E+07  0.00400  3.505E-03    0   0.7851   age104_m42            0.0000     2.5499E+01     4.5108   2.4967    94.4673
  7      3.9396     1.8949E-01    2.5545E-01    1.015200E+08  0.00400  2.268E-03    0   0.7207   age116_m42            0.0000     5.5357E+01     4.7574   2.5817   101.1631
  8      0.0000     0.0000E+00    0.0000E+00    2.861200E+08  0.00400  1.079E-03    0   0.6613   age125_m42            0.0000     6.0284E+01     5.1853   2.1130   102.2241
  9      9.7751     2.1003E+00    2.4347E+00    6.405400E+08  0.00400  5.077E-04    0   0.6197   age132_m42            0.0000     6.3859E+01     5.5292   1.7590   105.9379
 10     21.5183     6.6404E+00    7.4825E+00    9.047900E+08  0.00400  3.535E-04    0   0.6024   age135_m42            0.0000     3.7475E+01     4.4991   1.5146   105.3265
 11      0.0000     0.0000E+00    0.0000E+00    1.434000E+09  0.00400  1.910E-04    0   0.5716   age139_m42            0.0000     1.7679E+01     3.5941   0.9957   103.7789
 12     13.9678     1.5520E+01    1.5859E+01    2.500000E+09  0.00400  9.818E-05    0   0.5463   age150_m42            0.0000     1.2953E+01     3.0542   0.7108    99.4149
 13     32.6212     7.5425E+01    7.3760E+01    5.000000E+09  0.00400  4.718E-05    0   0.5228   age161_m42            0.0000     2.0379E+01     3.4754   0.5342    96.4055
 14      0.0000     0.0000E+00    0.0000E+00    1.100000E+10  0.00400  2.205E-05    0   0.4980   age185_m42            0.0000     4.4172E+01     4.8680   0.2843    93.9411
 15      0.0000     0.0000E+00    0.0000E+00    1.300000E+10  0.00400  1.883E-05    0   0.4927   age193_m42            0.0000     4.7896E+01     5.0551   0.2678    93.7525
 16      0.0000     0.0000E+00    0.0000E+00    1.000000E+06  0.02000  1.989E-02    0   1.0000   age020_m62            0.0000     1.4226E+02     9.4077   4.0000    84.7140
 17      0.0000     0.0000E+00    0.0000E+00    3.160000E+06  0.02000  3.772E-02    0   0.9858   age045_m62            0.0000     1.1047E+02     8.6026   4.0000    83.6329
 18      3.3607     1.1361E-02    1.9853E-02    5.010000E+06  0.02000  3.227E-02    0   0.9342   age055_m62            0.0000     4.1739E+01     5.6572   3.5661    89.3585
 19      0.0377     4.0730E-04    6.6671E-04    1.000000E+07  0.02000  1.011E-02    0   0.8751   age070_m62            0.0000     1.3822E+02    10.4898   2.9092    87.6692
 20      0.0000     0.0000E+00    0.0000E+00    2.512000E+07  0.02000  4.206E-03    0   0.8099   age090_m62            0.0000     9.5395E+01     8.6106   2.8589    88.1385
 21      0.0000     0.0000E+00    0.0000E+00    4.000000E+07  0.02000  3.373E-03    0   0.7799   age104_m62            0.0000     2.5712E+01     4.2687   2.7214    95.5998
 22      0.0000     0.0000E+00    0.0000E+00    1.015200E+08  0.02000  1.878E-03    0   0.7221   age116_m62            0.0000     4.5542E+01     4.3199   2.5995   101.8303
 23      0.0000     0.0000E+00    0.0000E+00    2.861200E+08  0.02000  8.869E-04    0   0.6700   age125_m62            0.0000     1.0638E+02     6.7353   2.1486   106.3712
 24      0.0000     0.0000E+00    0.0000E+00    6.405400E+08  0.02000  3.657E-04    0   0.6322   age132_m62            0.0000     7.3908E+01     6.3999   1.4973   108.4924
 25      0.0000     0.0000E+00    0.0000E+00    9.047900E+08  0.02000  2.312E-04    0   0.6152   age135_m62            0.0000     4.3668E+01     5.3544   1.1154   107.8129
 26      0.0000     0.0000E+00    0.0000E+00    1.434000E+09  0.02000  1.168E-04    0   0.5865   age139_m62            0.0000     2.2555E+01     4.0753   0.6783   102.6901
 27      0.0000     0.0000E+00    0.0000E+00    2.500000E+09  0.02000  5.505E-05    0   0.5610   age150_m62            0.0000     3.9256E+01     4.9286   0.3107    99.6969
 28      0.0000     0.0000E+00    0.0000E+00    5.000000E+09  0.02000  2.596E-05    0   0.5353   age161_m62            0.0000     7.7021E+01     6.6219  -0.0001    98.9837
 29      0.0000     0.0000E+00    0.0000E+00    1.100000E+10  0.02000  1.169E-05    0   0.5103   age185_m62            0.0000     1.2290E+02     8.2686  -0.3418    99.5851
 30      0.0000     0.0000E+00    0.0000E+00    1.300000E+10  0.02000  9.691E-06    0   0.5047   age193_m62            0.0000     1.3182E+02     8.5373  -0.3846    99.6866
 31      0.0000     0.0000E+00    0.0000E+00    1.000000E+06  0.05000  2.651E-02    0   0.9998   age020_m72            0.0000     1.3703E+02     9.2553   4.0000    85.6634
 32      0.0043     9.8049E-06    1.7565E-05    3.160000E+06  0.05000  4.817E-02    0   0.9577   age045_m72            0.0000     7.9455E+01     7.5109   3.9283    85.1315
 33      0.0000     0.0000E+00    0.0000E+00    5.010000E+06  0.05000  3.101E-02    0   0.9147   age055_m72            0.0000     7.1040E+01     7.1342   3.5661    87.9020
 34      0.0000     0.0000E+00    0.0000E+00    1.000000E+07  0.05000  8.954E-03    0   0.8524   age070_m72            0.0000     7.8760E+01     7.3707   3.8182    85.8895
 35      0.0000     0.0000E+00    0.0000E+00    2.512000E+07  0.05000  4.207E-03    0   0.7902   age090_m72            0.0000     3.7897E+01     5.2196   3.4103    90.9711
 36      0.0000     0.0000E+00    0.0000E+00    4.000000E+07  0.05000  3.198E-03    0   0.7618   age104_m72            0.0000     2.7847E+01     3.5451   2.9526    97.9588
 37      0.0000     0.0000E+00    0.0000E+00    1.015200E+08  0.05000  1.716E-03    0   0.7092   age116_m72            0.0000     5.7293E+01     4.8418   2.6932   101.6706
 38      0.0000     0.0000E+00    0.0000E+00    2.861200E+08  0.05000  7.047E-04    0   0.6618   age125_m72            0.0000     1.0380E+02     6.9029   1.9549   106.4000
 39      0.0000     0.0000E+00    0.0000E+00    6.405400E+08  0.05000  2.633E-04    0   0.6253   age132_m72            0.0000     5.8751E+01     5.9783   1.1236   107.8195
 40      0.0000     0.0000E+00    0.0000E+00    9.047900E+08  0.05000  1.484E-04    0   0.6088   age135_m72            0.0000     3.6906E+01     5.2032   0.6335   103.0049
 41      0.0000     0.0000E+00    0.0000E+00    1.434000E+09  0.05000  7.827E-05    0   0.5847   age139_m72            0.0000     5.5387E+01     5.9206   0.2453    99.4786
 42      0.0000     0.0000E+00    0.0000E+00    2.500000E+09  0.05000  3.759E-05    0   0.5583   age150_m72            0.0000     8.5052E+01     6.9877  -0.0722    98.4814
 43      0.0000     0.0000E+00    0.0000E+00    5.000000E+09  0.05000  1.548E-05    0   0.5320   age161_m72            0.0000     1.3052E+02     8.4415  -0.4726    97.6649
 44      0.0000     0.0000E+00    0.0000E+00    1.100000E+10  0.05000  6.532E-06    0   0.5070   age185_m72            0.0000     1.8978E+02    10.2561  -0.8216    96.6727
 45      0.0000     0.0000E+00    0.0000E+00    1.300000E+10  0.05000  5.316E-06    0   0.5018   age193_m72            0.0000     2.1471E+02    10.9533  -0.9265    96.3962


## Synthesis Results - Average & Chains ##

# j      x_j: min, <> & last-chain-values for 1 ...  7 chains
  1      0.0000      0.0581      0.0135      0.0000      0.1221      0.0000      0.0309      0.0000      0.0000
  2      4.4371      2.2201      2.1918      2.3425      2.3244      2.4735      2.4813      2.2545      2.4308
  3      0.5612      0.4516      0.4693      0.5112      0.6744      0.4631      0.4435      0.4809      0.8711
  4      8.3749      7.2515      7.2747      7.2605      7.1899      7.4752      8.0204      7.4188      7.3230
  5      1.2740      1.4187      1.4452      1.4246      1.4739      1.3307      1.2071      1.7227      1.1169
  6      0.0000      0.1310      0.1841      0.2478      0.0000      0.0433      0.0578      0.2322      0.2885
  7      3.9396      5.5091      5.5486      5.4114      5.2339      5.4160      5.4733      5.2721      5.7910
  8      0.0000      0.0491      0.0000      0.0000      0.0000      0.2672      0.0000      0.0242      0.0000
  9      9.7751      9.5238      9.5987      9.5031      9.7588      9.5679      9.5189      9.4177      9.5763
 10     21.5183     19.8565     20.1913     20.5006     20.9140     20.3032     20.1930     20.4265     19.6792
 11      0.0000      0.1984      0.0000      0.1750      0.0000      0.0076      0.4075      0.0000      0.1728
 12     13.9678     15.2574     15.0113     15.1817     14.6116     15.1661     15.1028     14.9639     15.0764
 13     32.6212     32.1608     31.9853     31.9169     31.8321     31.5177     31.7358     32.0932     32.3274
 14      0.0000      0.0333      0.0000      0.0417      0.0235      0.3013      0.0000      0.0000      0.0000
 15      0.0000      0.0296      0.0895      0.0000      0.0000      0.0000      0.0000      0.0592      0.0323
 16      0.0000      0.0364      0.0000      0.0000      0.0000      0.0000      0.0000      0.0866      0.1011
 17      0.0000      0.0867      0.0393      0.1897      0.0000      0.1144      0.0863      0.0960      0.0000
 18      3.3607      3.0464      3.3003      3.0654      3.0078      2.9761      2.9731      3.0512      3.0928
 19      0.0377      0.5302      0.7604      0.5524      0.5801      0.7912      0.5723      0.4871      0.4115
 20      0.0000      0.0262      0.0000      0.0000      0.0981      0.0000      0.0000      0.0000      0.0000
 21      0.0000      0.0350      0.1156      0.0000      0.0000      0.0198      0.0000      0.0000      0.0000
 22      0.0000      0.0281      0.1684      0.0000      0.0000      0.0042      0.0338      0.0000      0.0000
 23      0.0000      0.0213      0.0000      0.0000      0.0000      0.0000      0.0000      0.0000      0.0000
 24      0.0000      0.0102      0.0000      0.0208      0.0000      0.0000      0.0000      0.0000      0.0017
 25      0.0000      0.0131      0.0000      0.0000      0.0000      0.0000      0.0000      0.0000      0.0043
 26      0.0000      0.0194      0.0000      0.0000      0.0000      0.0000      0.0000      0.0000      0.0000
 27      0.0000      0.0225      0.0000      0.0000      0.0397      0.0000      0.0000      0.0000      0.0734
 28      0.0000      0.0186      0.0000      0.0000      0.0000      0.0000      0.0000      0.0000      0.0000
 29      0.0000      0.1920      0.1258      0.0000      0.1147      0.1376      0.1791      0.3020      0.2054
 30      0.0000      0.1295      0.1964      0.0000      0.2994      0.1573      0.1467      0.0000      0.1810
 31      0.0000      0.0396      0.0000      0.0642      0.0000      0.0808      0.0613      0.1319      0.0000
 32      0.0043      0.2221      0.1204      0.3496      0.4833      0.0692      0.1342      0.1604      0.1215
 33      0.0000      0.3443      0.3497      0.4092      0.3743      0.3452      0.3409      0.2620      0.3628
 34      0.0000      0.0642      0.0012      0.0000      0.0000      0.0767      0.0000      0.0000      0.0192
 35      0.0000      0.0179      0.0000      0.0000      0.1073      0.0000      0.0059      0.0000      0.0831
 36      0.0000      0.0267      0.0000      0.0000      0.0000      0.0041      0.0000      0.0873      0.0000
 37      0.0000      0.0831      0.0000      0.0000      0.0236      0.0000      0.0000      0.0000      0.0000
 38      0.0000      0.0125      0.0000      0.0000      0.0000      0.0000      0.0000      0.0000      0.0000
 39      0.0000      0.0103      0.0000      0.0000      0.0000      0.0428      0.0000      0.0000      0.0000
 40      0.0000      0.0169      0.0000      0.0000      0.0170      0.0000      0.0124      0.0000      0.0000
 41      0.0000      0.0084      0.0000      0.0000      0.0000      0.0000      0.0000      0.0643      0.0000
 42      0.0000      0.0147      0.0000      0.0000      0.0061      0.0000      0.0000      0.0000      0.0380
 43      0.0000      0.2541      0.2155      0.2594      0.3453      0.2816      0.1876      0.3494      0.1052
 44      0.0000      0.3318      0.3776      0.3198      0.1269      0.3557      0.4753      0.2990      0.3324
 45      0.0000      0.2266      0.2093      0.2463      0.2543      0.2569      0.1665      0.1992      0.1869

# j      m_j: min, <> & last-chain-values for 1 ...  7 chains
  1  0.0000E+00  9.2448E-04  2.1633E-04  0.0000E+00  1.9862E-03  0.0000E+00  4.9502E-04  0.0000E+00  0.0000E+00
  2  2.2227E-02  9.6657E-03  9.5830E-03  1.0534E-02  1.0343E-02  1.0739E-02  1.0873E-02  9.9330E-03  1.0688E-02
  3  4.2875E-03  2.9990E-03  3.1292E-03  3.5063E-03  4.5769E-03  3.0662E-03  2.9638E-03  3.2312E-03  5.8416E-03
  4  1.1915E-01  8.9669E-02  9.0336E-02  9.2732E-02  9.0867E-02  9.2172E-02  9.9815E-02  9.2832E-02  9.1452E-02
  5  4.1913E-02  4.0565E-02  4.1496E-02  4.2073E-02  4.3071E-02  3.7941E-02  3.4738E-02  4.9845E-02  3.2251E-02
  6  0.0000E+00  5.2031E-03  7.3460E-03  1.0167E-02  0.0000E+00  1.7166E-03  2.3122E-03  9.3324E-03  1.1573E-02
  7  2.5545E-01  3.1047E-01  3.1402E-01  3.1499E-01  3.0147E-01  3.0436E-01  3.1044E-01  3.0066E-01  3.2960E-01
  8  0.0000E+00  5.3347E-03  0.0000E+00  0.0000E+00  0.0000E+00  2.8960E-02  0.0000E+00  2.6608E-03  0.0000E+00
  9  2.4347E+00  2.0616E+00  2.0866E+00  2.1248E+00  2.1591E+00  2.0653E+00  2.0738E+00  2.0630E+00  2.0936E+00
 10  7.4825E+00  6.0010E+00  6.1280E+00  6.3993E+00  6.4600E+00  6.1186E+00  6.1420E+00  6.2470E+00  6.0065E+00
 11  0.0000E+00  1.0530E-01  0.0000E+00  9.5934E-02  0.0000E+00  4.0370E-03  2.1766E-01  0.0000E+00  9.2607E-02
 12  1.5859E+01  1.5056E+01  1.4876E+01  1.5474E+01  1.4737E+01  1.4924E+01  1.5000E+01  1.4943E+01  1.5025E+01
 13  7.3760E+01  6.3202E+01  6.3123E+01  6.4785E+01  6.3935E+01  6.1762E+01  6.2768E+01  6.3822E+01  6.4161E+01
 14  0.0000E+00  1.3350E-01  0.0000E+00  1.7268E-01  9.6174E-02  1.2034E+00  0.0000E+00  0.0000E+00  0.0000E+00
 15  0.0000E+00  1.3757E-01  4.1687E-01  0.0000E+00  0.0000E+00  0.0000E+00  0.0000E+00  2.7809E-01  1.5121E-01
 16  0.0000E+00  3.2478E-04  0.0000E+00  0.0000E+00  0.0000E+00  0.0000E+00  0.0000E+00  7.8137E-04  9.1019E-04
 17  0.0000E+00  4.0175E-04  1.8312E-04  9.0819E-04  0.0000E+00  5.2879E-04  4.0236E-04  4.5040E-04  0.0000E+00
 18  1.9853E-02  1.5641E-02  1.7016E-02  1.6256E-02  1.5783E-02  1.5236E-02  1.5362E-02  1.5852E-02  1.6037E-02
 19  6.6671E-04  8.1397E-03  1.1723E-02  8.7584E-03  9.1014E-03  1.2112E-02  8.8425E-03  7.5668E-03  6.3793E-03
 20  0.0000E+00  8.9568E-04  0.0000E+00  0.0000E+00  3.4248E-03  0.0000E+00  0.0000E+00  0.0000E+00  0.0000E+00
 21  0.0000E+00  1.4348E-03  4.7584E-03  0.0000E+00  0.0000E+00  8.0844E-04  0.0000E+00  0.0000E+00  0.0000E+00
 22  0.0000E+00  1.9131E-03  1.1529E-02  0.0000E+00  0.0000E+00  2.8458E-04  2.3229E-03  0.0000E+00  0.0000E+00
 23  0.0000E+00  2.8595E-03  0.0000E+00  0.0000E+00  0.0000E+00  0.0000E+00  0.0000E+00  0.0000E+00  0.0000E+00
 24  0.0000E+00  3.1212E-03  0.0000E+00  6.5729E-03  0.0000E+00  0.0000E+00  0.0000E+00  0.0000E+00  5.2267E-04
 25  0.0000E+00  6.1873E-03  0.0000E+00  0.0000E+00  0.0000E+00  0.0000E+00  0.0000E+00  0.0000E+00  2.0632E-03
 26  0.0000E+00  1.7262E-02  0.0000E+00  0.0000E+00  0.0000E+00  0.0000E+00  0.0000E+00  0.0000E+00  0.0000E+00
 27  0.0000E+00  4.0615E-02  0.0000E+00  0.0000E+00  7.3293E-02  0.0000E+00  0.0000E+00  0.0000E+00  1.3389E-01
 28  0.0000E+00  6.8158E-02  0.0000E+00  0.0000E+00  0.0000E+00  0.0000E+00  0.0000E+00  0.0000E+00  0.0000E+00
 29  0.0000E+00  1.4863E+00  9.7789E-01  0.0000E+00  9.0778E-01  1.0625E+00  1.3951E+00  2.3660E+00  1.6059E+00
 30  0.0000E+00  1.1957E+00  1.8218E+00  0.0000E+00  2.8265E+00  1.4486E+00  1.3632E+00  0.0000E+00  1.6881E+00
 31  0.0000E+00  2.6485E-04  0.0000E+00  4.4320E-04  0.0000E+00  5.3876E-04  4.1253E-04  8.9302E-04  0.0000E+00
 32  1.7565E-05  7.8306E-04  4.2650E-04  1.2734E-03  1.7417E-03  2.4333E-04  4.7618E-04  5.7225E-04  4.3260E-04
 33  0.0000E+00  1.8011E-03  1.8370E-03  2.2108E-03  2.0010E-03  1.8007E-03  1.7949E-03  1.3867E-03  1.9167E-03
 34  0.0000E+00  1.0834E-03  2.1083E-05  0.0000E+00  0.0000E+00  1.2919E-03  0.0000E+00  0.0000E+00  3.2741E-04
 35  0.0000E+00  5.9483E-04  0.0000E+00  0.0000E+00  3.6544E-03  0.0000E+00  1.9860E-04  0.0000E+00  2.7962E-03
 36  0.0000E+00  1.1288E-03  0.0000E+00  0.0000E+00  0.0000E+00  1.7451E-04  0.0000E+00  3.7335E-03  0.0000E+00
 37  0.0000E+00  6.0895E-03  0.0000E+00  0.0000E+00  1.7658E-03  0.0000E+00  0.0000E+00  0.0000E+00  0.0000E+00
 38  0.0000E+00  2.0817E-03  0.0000E+00  0.0000E+00  0.0000E+00  0.0000E+00  0.0000E+00  0.0000E+00  0.0000E+00
 39  0.0000E+00  4.3369E-03  0.0000E+00  0.0000E+00  0.0000E+00  1.7957E-02  0.0000E+00  0.0000E+00  0.0000E+00
 40  0.0000E+00  1.2286E-02  0.0000E+00  0.0000E+00  1.2634E-02  0.0000E+00  9.0720E-03  0.0000E+00  0.0000E+00
 41  0.0000E+00  1.1096E-02  0.0000E+00  0.0000E+00  0.0000E+00  0.0000E+00  0.0000E+00  8.6170E-02  0.0000E+00
 42  0.0000E+00  3.8655E-02  0.0000E+00  0.0000E+00  1.6326E-02  0.0000E+00  0.0000E+00  0.0000E+00  1.0114E-01
 43  0.0000E+00  1.5486E+00  1.3193E+00  1.6331E+00  2.1511E+00  1.7114E+00  1.1505E+00  2.1549E+00  6.4729E-01
 44  0.0000E+00  4.5678E+00  5.2191E+00  4.5468E+00  1.7847E+00  4.8819E+00  6.5844E+00  4.1656E+00  4.6204E+00
 45  0.0000E+00  3.7926E+00  3.5181E+00  4.2584E+00  4.3503E+00  4.2882E+00  2.8047E+00  3.3748E+00  3.1603E+00

# AV, chi2 & Mass for <> & i_chain = 1 ...  7 solutions
AV       1.2348      1.1761      1.1854      1.1932      1.1932      1.1826      1.1847      1.1836      1.1850
chi2 2.0304E+00  2.1349E+00  2.1123E+00  2.0988E+00  2.0966E+00  2.1167E+00  2.1078E+00  2.1149E+00  2.1161E+00
Mass 5.6423E-10  5.9993E-10  6.0495E-10  5.9438E-10  6.0063E-10  6.0695E-10  6.0304E-10  5.9887E-10  6.0115E-10
 -21.32                                  [v0_min (km/s) before EX0s...]
  77.44                                  [vd_min (km/s) before EX0s...]


## Synthetic spectrum (Best Model) ##l_obs f_obs f_syn wei
 3070    [Nl_obs]
 3359.00    0.17615   0.44376   -1.000
 3360.00    0.24987   0.42673   -1.000
 3361.00    0.25832   0.42692   -1.000
 3362.00    0.27183   0.44408   -1.000
 3363.00    0.28380   0.46737   -1.000
 3364.00    0.29390   0.48354   -1.000
 3365.00    0.29340   0.48475   -1.000
 3366.00    0.29742   0.47191   -1.000
 3367.00    0.30033   0.45372   -1.000
 3368.00    0.30561   0.44002   -1.000
 3369.00    0.29110   0.43431   -1.000
 3370.00    0.28464   0.43264   -1.000
 3371.00    0.29591   0.43051   -1.000
 3372.00    0.30134   0.43062   -1.000
 3373.00    0.30224   0.44010   -1.000
 3374.00    0.31023   0.46137   -1.000
 3375.00    0.31351   0.48531   -1.000
 3376.00    0.32383   0.49625   -1.000
 3377.00    0.34044   0.48865   -1.000
 3378.00    0.35220   0.47053   -1.000
 3379.00    0.34108   0.45523   -1.000
 3380.00    0.32997   0.45213   -1.000
 3381.00    0.34432   0.46134   -1.000
 3382.00    0.35437   0.47584   -1.000
 3383.00    0.35301   0.48779   -1.000
 3384.00    0.35360   0.49601   -1.000
 3385.00    0.36512   0.50189   -1.000
 3386.00    0.36827   0.50427   -1.000
 3387.00    0.36955   0.50305   -1.000
 3388.00    0.37430   0.50128   -1.000
 3389.00    0.39050   0.50058   -1.000
 3390.00    0.39431   0.49865   -1.000
 3391.00    0.38319   0.49254   -1.000
 3392.00    0.37486   0.48449   -1.000
 3393.00    0.38452   0.48178   -1.000
 3394.00    0.38318   0.48882   -1.000
 3395.00    0.38966   0.50300   -1.000
 3396.00    0.40686   0.51805   -1.000
 3397.00    0.41656   0.52875   -1.000
 3398.00    0.42817   0.53218   -1.000
 3399.00    0.44488   0.52841   -1.000
 3400.00    0.45123   0.52045   -1.000
 3401.00    0.44491   0.51072   -1.000
 3402.00    0.44237   0.50088   -1.000
 3403.00    0.43760   0.49370   -1.000
 3404.00    0.43163   0.48982   -1.000
 3405.00    0.43387   0.48626   -1.000
 3406.00    0.43146   0.48120   -1.000
 3407.00    0.43327   0.47689   -1.000
 3408.00    0.42313   0.47710   -1.000
 3409.00    0.41874   0.48276   -1.000
 3410.00    0.42277   0.48965   -1.000
 3411.00    0.42905   0.49247   -1.000
 3412.00    0.43455   0.49008   -1.000
 3413.00    0.43578   0.48588   -1.000
 3414.00    0.43113   0.48427   36.765
 3415.00    0.43060   0.48749   26.251
 3416.00    0.44047   0.49559   25.251
 3417.00    0.44466   0.50718   24.082
 3418.00    0.45624   0.52018   22.885
 3419.00    0.46617   0.53067   22.486
 3420.00    0.48161   0.53423   22.354
 3421.00    0.48593   0.53044   22.407
 3422.00    0.46984   0.52329   22.915
 3423.00    0.46597   0.51726   23.483
 3424.00    0.47050   0.51470   23.148
 3425.00    0.47165   0.51545   22.516
 3426.00    0.48161   0.51983   22.260
 3427.00    0.48373   0.52926   59.772
 3428.00    0.48793   0.54121   -1.000
 3429.00    0.50641   0.54828   -1.000
 3430.00    0.50909   0.54590   -1.000
 3431.00    0.51090   0.53617  203.161
 3432.00    0.50703   0.52598   30.517
 3433.00    0.49241   0.52127   22.210
 3434.00    0.48351   0.52303   59.808
 3435.00    0.49309   0.52704   -1.000
 3436.00    0.49568   0.52719   30.274
 3437.00    0.49607   0.51991   22.886
 3438.00    0.49031   0.50467   24.177
 3439.00    0.47744   0.48311   25.966
 3440.00    0.45428   0.46058   27.319
 3441.00    0.43011   0.44616   27.666
 3442.00    0.43687   0.44506   27.592
 3443.00    0.44347   0.45346   26.768
 3444.00    0.44970   0.46432   25.409
 3445.00    0.46325   0.47604   24.005
 3446.00    0.48120   0.49099   23.031
 3447.00    0.49260   0.50935   61.438
 3448.00    0.50623   0.52570  203.161
 3449.00    0.50500   0.53212   -1.000
 3450.00    0.51357   0.52608  203.161
 3451.00    0.52771   0.51211   -1.000
 3452.00    0.52320   0.49855   -1.000
 3453.00    0.50722   0.49326   -1.000
 3454.00    0.51214   0.49718   -1.000
 3455.00    0.51628   0.50397   -1.000
 3456.00    0.51591   0.50545   -1.000
 3457.00    0.51091   0.49936   -1.000
 3458.00    0.51142   0.48990   30.166
 3459.00    0.49460   0.48089   22.438
 3460.00    0.48164   0.47517   22.418
 3461.00    0.48992   0.47697   61.017
 3462.00    0.49726   0.48701   -1.000
 3463.00    0.50240   0.49863   -1.000
 3464.00    0.50637   0.50553  201.161
 3465.00    0.51293   0.50782   -1.000
 3466.00    0.51698   0.50962   -1.000
 3467.00    0.52240   0.51383   -1.000
 3468.00    0.53309   0.51938   -1.000
 3469.00    0.54234   0.52405   -1.000
 3470.00    0.53667   0.52574   -1.000
 3471.00    0.53559   0.52230   -1.000
 3472.00    0.54016   0.51280   -1.000
 3473.00    0.52245   0.49784   -1.000
 3474.00    0.49699   0.48140   30.298
 3475.00    0.47891   0.47118   23.007
 3476.00    0.47963   0.47248   22.885
 3477.00    0.48177   0.48313   62.007
 3478.00    0.49528   0.49650  200.547
 3479.00    0.51510   0.50714   -1.000
 3480.00    0.52693   0.51227   -1.000
 3481.00    0.53120   0.51160   -1.000
 3482.00    0.53195   0.50670   -1.000
 3483.00    0.53244   0.50183   -1.000
 3484.00    0.53676   0.50306   -1.000
 3485.00    0.53979   0.51313   -1.000
 3486.00    0.55024   0.52580   -1.000
 3487.00    0.55771   0.53024   -1.000
 3488.00    0.54290   0.52181   -1.000
 3489.00    0.52181   0.50641   -1.000
 3490.00    0.50180   0.49499   -1.000
 3491.00    0.49228   0.49272  203.161
 3492.00    0.49250   0.49551  203.161
 3493.00    0.50524   0.49604   -1.000
 3494.00    0.50767   0.49150   -1.000
 3495.00    0.49925   0.48571   -1.000
 3496.00    0.49086   0.48585   -1.000
 3497.00    0.49613   0.49616  203.161
 3498.00    0.50959   0.51075  190.628
 3499.00    0.51967   0.51973  180.097
 3500.00    0.54206   0.52213   -1.000
 3501.00    0.54311   0.52349   -1.000
 3502.00    0.54926   0.52676   -1.000
 3503.00    0.55347   0.52878   -1.000
 3504.00    0.54557   0.52521   -1.000
 3505.00    0.54204   0.51782   -1.000
 3506.00    0.53714   0.51225   -1.000
 3507.00    0.53580   0.51100   -1.000
 3508.00    0.53774   0.51167   -1.000
 3509.00    0.53273   0.51026   -1.000
 3510.00    0.52440   0.50535   -1.000
 3511.00    0.52032   0.49843   -1.000
 3512.00    0.52427   0.49087   -1.000
 3513.00    0.50939   0.48634   -1.000
 3514.00    0.50636   0.49067   -1.000
 3515.00    0.52430   0.50430   -1.000
 3516.00    0.53853   0.52170   -1.000
 3517.00    0.54826   0.53471   -1.000
 3518.00    0.55412   0.53721   -1.000
 3519.00    0.54176   0.52890   -1.000
 3520.00    0.53450   0.51495   -1.000
 3521.00    0.52905   0.50161   -1.000
 3522.00    0.51583   0.49033   -1.000
 3523.00    0.50179   0.48003   29.688
 3524.00    0.48715   0.47211   22.790
 3525.00    0.47998   0.47020   22.906
 3526.00    0.47301   0.47788   64.015
 3527.00    0.48470   0.49429  202.258
 3528.00    0.50674   0.51238  190.201
 3529.00    0.52450   0.52416  185.264
 3530.00    0.53360   0.52720   -1.000
 3531.00    0.53617   0.52548   -1.000
 3532.00    0.53874   0.52554   -1.000
 3533.00    0.54484   0.53015   -1.000
 3534.00    0.53932   0.53667  181.504
 3535.00    0.54264   0.54130  178.416
 3536.00    0.54555   0.54365  178.432
 3537.00    0.55429   0.54680  177.286
 3538.00    0.56236   0.55196   -1.000
 3539.00    0.55916   0.55581  175.592
 3540.00    0.55796   0.55565  178.471
 3541.00    0.55704   0.55467  180.517
 3542.00    0.55712   0.55671  180.072
 3543.00    0.56235   0.56108  177.741
 3544.00    0.56348   0.56453  176.621
 3545.00    0.56375   0.56447  178.891
 3546.00    0.56413   0.56171  182.817
 3547.00    0.56405   0.55900  184.468
 3548.00    0.56090   0.55831  184.355
 3549.00    0.56120   0.55973  183.280
 3550.00    0.56088   0.56127  184.783
 3551.00    0.55351   0.55979  189.715
 3552.00    0.54147   0.55416  195.351
 3553.00    0.53912   0.54714  199.194
 3554.00    0.53872   0.54308  198.681
 3555.00    0.54378   0.54342  194.787
 3556.00    0.54234   0.54490  194.250
 3557.00    0.54089   0.54394  196.585
 3558.00    0.54605   0.54115  199.201
 3559.00    0.54146   0.54081  198.404
 3560.00    0.54362   0.54653  195.059
 3561.00    0.55372   0.55593  193.494
 3562.00    0.55076   0.56003  193.623
 3563.00    0.53698   0.54889  202.517
 3564.00    0.52138   0.52455   29.637
 3565.00    0.50499   0.50185   23.107
 3566.00    0.49474   0.49150   23.159
 3567.00    0.49488   0.49030   22.990
 3568.00    0.49812   0.48734   23.532
 3569.00    0.49222   0.47822   24.068
 3570.00    0.47581   0.47012   23.619
 3571.00    0.48068   0.47068   22.637
 3572.00    0.49623   0.47848   64.501
 3573.00    0.50751   0.48657   -1.000
 3574.00    0.51459   0.49095   -1.000
 3575.00    0.50970   0.49310   -1.000
 3576.00    0.50646   0.49487   -1.000
 3577.00    0.51714   0.49419   -1.000
 3578.00    0.51846   0.48692   30.558
 3579.00    0.50983   0.47279   24.526
 3580.00    0.48764   0.45746   26.041
 3581.00    0.47383   0.44823   26.537
 3582.00    0.47227   0.44757   26.659
 3583.00    0.46336   0.44971   27.185
 3584.00    0.46281   0.44727   28.031
 3585.00    0.45992   0.44092   28.567
 3586.00    0.44354   0.43738   27.580
 3587.00    0.44915   0.44192   26.121
 3588.00    0.45624   0.45492   24.826
 3589.00    0.47540   0.47325   22.848
 3590.00    0.49848   0.49185   64.357
 3591.00    0.51434   0.50550   -1.000
 3592.00    0.52397   0.51230   -1.000
 3593.00    0.52546   0.51557   -1.000
 3594.00    0.53312   0.52130   -1.000
 3595.00    0.54786   0.53168   -1.000
 3596.00    0.55863   0.54355   -1.000
 3597.00    0.55354   0.55353  170.550
 3598.00    0.55922   0.55976  167.333
 3599.00    0.56717   0.56050  168.135
 3600.00    0.56070   0.55418  174.678
 3601.00    0.54736   0.54120  184.215
 3602.00    0.54556   0.52534   -1.000
 3603.00    0.53157   0.51248   -1.000
 3604.00    0.51784   0.50685   -1.000
 3605.00    0.52116   0.50701   -1.000
 3606.00    0.52248   0.50729   -1.000
 3607.00    0.51872   0.50365   -1.000
 3608.00    0.51064   0.49782   -1.000
 3609.00    0.50537   0.49637   -1.000
 3610.00    0.50650   0.50184   -1.000
 3611.00    0.51017   0.50963  197.813
 3612.00    0.51643   0.51596  192.528
 3613.00    0.51314   0.52178  188.779
 3614.00    0.51753   0.52871  182.723
 3615.00    0.53494   0.53283  181.339
 3616.00    0.54439   0.52540   -1.000
 3617.00    0.52652   0.50737   -1.000
 3618.00    0.50882   0.49267   28.887
 3619.00    0.49222   0.49288   65.037
 3620.00    0.49898   0.50688  193.710
 3621.00    0.51791   0.52550  181.172
 3622.00    0.54082   0.54038  175.381
 3623.00    0.55051   0.55035  172.737
 3624.00    0.55756   0.56091  167.362
 3625.00    0.57025   0.57549  160.501
 3626.00    0.58522   0.59066  157.057
 3627.00    0.59555   0.59789  158.663
 3628.00    0.58488   0.58833  166.710
 3629.00    0.56771   0.56245  184.147
 3630.00    0.54085   0.53254   -1.000
 3631.00    0.50911   0.51366  203.161
 3632.00    0.50296   0.51180  203.005
 3633.00    0.51514   0.52104  195.981
 3634.00    0.52249   0.53077  190.872
 3635.00    0.52880   0.53577  184.370
 3636.00    0.54553   0.54035  176.070
 3637.00    0.56252   0.54992   -1.000
 3638.00    0.56923   0.56366  161.935
 3639.00    0.57709   0.57474  160.470
 3640.00    0.57585   0.57625  163.494
 3641.00    0.56497   0.56752  168.700
 3642.00    0.55929   0.55329  177.034
 3643.00    0.54964   0.53989   -1.000
 3644.00    0.53742   0.53128  187.012
 3645.00    0.52534   0.52624  189.944
 3646.00    0.52415   0.52199  193.298
 3647.00    0.52583   0.51895   -1.000
 3648.00    0.52412   0.51975  190.266
 3649.00    0.52590   0.52608  183.128
 3650.00    0.53199   0.53793  174.566
 3651.00    0.54905   0.55249  166.960
 3652.00    0.56932   0.56590  162.168
 3653.00    0.57390   0.57583  159.512
 3654.00    0.57897   0.58213  158.579
 3655.00    0.58310   0.58751  157.056
 3656.00    0.58759   0.59409  155.379
 3657.00    0.59546   0.60045  152.963
 3658.00    0.59221   0.60413  152.461
 3659.00    0.60113   0.60398  152.502
 3660.00    0.59289   0.59998  153.790
 3661.00    0.58839   0.59303  155.464
 3662.00    0.58888   0.58490  157.900
 3663.00    0.58147   0.57847  159.472
 3664.00    0.57701   0.57600  158.259
 3665.00    0.58226   0.57654  157.865
 3666.00    0.57983   0.57652  160.450
 3667.00    0.57421   0.57271  162.619
 3668.00    0.57509   0.56723  166.117
 3669.00    0.57294   0.56621  166.281
 3670.00    0.56694   0.57222  161.169
 3671.00    0.57660   0.58170  157.246
 3672.00    0.58548   0.58861  156.096
 3673.00    0.58734   0.58979  155.951
 3674.00    0.59076   0.58543  156.220
 3675.00    0.58572   0.57647  160.010
 3676.00    0.58100   0.56505   -1.000
 3677.00    0.57619   0.55401   -1.000
 3678.00    0.56211   0.54614   -1.000
 3679.00    0.54845   0.54306  175.259
 3680.00    0.54856   0.54439  171.575
 3681.00    0.55984   0.54886  166.689
 3682.00    0.56942   0.55410   -1.000
 3683.00    0.56672   0.55588  167.107
 3684.00    0.56063   0.54973   -1.000
 3685.00    0.55678   0.53709   -1.000
 3686.00    0.54719   0.52646   -1.000
 3687.00    0.53751   0.52675   -1.000
 3688.00    0.54967   0.53948   -1.000
 3689.00    0.56740   0.55843  159.524
 3690.00    0.58118   0.57446  153.391
 3691.00    0.59246   0.58245  153.239
 3692.00    0.59760   0.58476  156.818
 3693.00    0.59683   0.58505  159.501
 3694.00    0.59557   0.58322  159.446
 3695.00    0.59845   0.57891   -1.000
 3696.00    0.60056   0.57667   -1.000
 3697.00    0.59899   0.58370  151.918
 3698.00    0.61008   0.60101  147.788
 3699.00    0.62384   0.61943  145.417
 3700.00    0.63814   0.62541  147.123
 3701.00    0.63611   0.60982   -1.000
 3702.00    0.60219   0.57541   -1.000
 3703.00    0.57502   0.53598   -1.000
 3704.00    0.55655   0.50845   -1.000
 3705.00    0.54013   0.50131   -1.000
 3706.00    0.54965   0.50960   -1.000
 3707.00    0.55450   0.52337   -1.000
 3708.00    0.56068   0.53449   -1.000
 3709.00    0.56309   0.53858   -1.000
 3710.00    0.56694   0.53895   -1.000
 3711.00    0.57345   0.54548   -1.000
 3712.00    0.59029   0.56450   -1.000
 3713.00    0.61268   0.59270   -1.000
 3714.00    0.62849   0.61996  143.796
 3715.00    0.65509   0.63679   -1.000
 3716.00    0.66370   0.63813   -1.000
 3717.00    0.65815   0.62136   -1.000
 3718.00    0.62718   0.58432   -1.000
 3719.00    0.56983   0.53382   -1.000
 3720.00    0.52076   0.48885   28.760
 3721.00    0.49823   0.46888   70.097
 3722.00    0.51330   0.48168   -1.000
 3723.00    0.55190   0.52023   -1.000
 3724.00    0.60181   0.56551   -1.000
 3725.00    0.64561   0.59830   -1.000
 3726.00    0.66258   0.61430   -1.000
 3727.00    0.65583   0.62220   -1.000
 3728.00    0.65538   0.62779   -1.000
 3729.00    0.65401   0.62636   -1.000
 3730.00    0.64621   0.60784   -1.000
 3731.00    0.61515   0.56802   -1.000
 3732.00    0.56719   0.51463   28.065
 3733.00    0.51730   0.46389   24.135
 3734.00    0.47174   0.43284   25.523
 3735.00    0.46434   0.43183   24.735
 3736.00    0.49102   0.46053   22.629
 3737.00    0.53285   0.51008   68.349
 3738.00    0.58056   0.56665   -1.000
 3739.00    0.62962   0.61522   -1.000
 3740.00    0.65687   0.64529   -1.000
 3741.00    0.67066   0.65380   -1.000
 3742.00    0.66594   0.64370   -1.000
 3743.00    0.64338   0.62172   -1.000
 3744.00    0.60820   0.59485   -1.000
 3745.00    0.59229   0.56607   -1.000
 3746.00    0.57024   0.53326   28.449
 3747.00    0.53463   0.49418   23.558
 3748.00    0.50311   0.45674   24.107
 3749.00    0.47921   0.43854   -1.000
 3750.00    0.48086   0.45235   -1.000
 3751.00    0.52344   0.49532   -1.000
 3752.00    0.58690   0.55323   -1.000
 3753.00    0.64359   0.60943   -1.000
 3754.00    0.67916   0.65064   -1.000
 3755.00    0.70631   0.66815   -1.000
 3756.00    0.70279   0.66119   -1.000
 3757.00    0.67429   0.64002   -1.000
 3758.00    0.64323   0.62100   -1.000
 3759.00    0.62872   0.61545   -1.000
 3760.00    0.63796   0.62243   -1.000
 3761.00    0.65517   0.63373   -1.000
 3762.00    0.67776   0.64237   -1.000
 3763.00    0.67921   0.64454   -1.000
 3764.00    0.67352   0.63806   -1.000
 3765.00    0.66385   0.62262   -1.000
 3766.00    0.63863   0.59967   -1.000
 3767.00    0.61351   0.57115   -1.000
 3768.00    0.59809   0.53987   -1.000
 3769.00    0.58079   0.51266   -1.000
 3770.00    0.55719   0.50166   -1.000
 3771.00    0.55827   0.51613   -1.000
 3772.00    0.59171   0.55089   -1.000
 3773.00    0.63229   0.59030   -1.000
 3774.00    0.65835   0.62346   -1.000
 3775.00    0.67961   0.65000   -1.000
 3776.00    0.70490   0.67431   -1.000
 3777.00    0.71779   0.69878   -1.000
 3778.00    0.73037   0.72271  146.362
 3779.00    0.76564   0.74390   -1.000
 3780.00    0.78593   0.76029   -1.000
 3781.00    0.79534   0.77144   -1.000
 3782.00    0.79329   0.77726  140.184
 3783.00    0.78801   0.77590  142.764
 3784.00    0.78727   0.76439   -1.000
 3785.00    0.77463   0.74346   -1.000
 3786.00    0.74092   0.71942   -1.000
 3787.00    0.71561   0.69949   -1.000
 3788.00    0.70475   0.68666   -1.000
 3789.00    0.69738   0.67951   -1.000
 3790.00    0.69953   0.67363   -1.000
 3791.00    0.70089   0.66292   -1.000
 3792.00    0.69528   0.64279   -1.000
 3793.00    0.66494   0.61262   -1.000
 3794.00    0.62525   0.57504   -1.000
 3795.00    0.59646   0.53344   -1.000
 3796.00    0.55639   0.49239   -1.000
 3797.00    0.52031   0.46315   -1.000
 3798.00    0.51336   0.46173   -1.000
 3799.00    0.53636   0.49378   -1.000
 3800.00    0.58884   0.54848   -1.000
 3801.00    0.64323   0.60770   -1.000
 3802.00    0.68833   0.65705   -1.000
 3803.00    0.72018   0.69047   -1.000
 3804.00    0.74093   0.70803   -1.000
 3805.00    0.74113   0.71371   -1.000
 3806.00    0.73928   0.71656   -1.000
 3807.00    0.73796   0.72647  164.122
 3808.00    0.74782   0.74572  158.087
 3809.00    0.76513   0.76845  155.420
 3810.00    0.78538   0.78425  157.511
 3811.00    0.79403   0.78295  164.948
 3812.00    0.77316   0.76275   -1.000
 3813.00    0.74689   0.73278   -1.000
 3814.00    0.72421   0.70820   -1.000
 3815.00    0.71669   0.70026   -1.000
 3816.00    0.72284   0.70621   -1.000
 3817.00    0.73834   0.71198   -1.000
 3818.00    0.74743   0.70572   -1.000
 3819.00    0.72134   0.68916   -1.000
 3820.00    0.70203   0.67586   -1.000
 3821.00    0.70471   0.67387   -1.000
 3822.00    0.72024   0.67496   -1.000
 3823.00    0.71353   0.66620   -1.000
 3824.00    0.68209   0.64559   28.871
 3825.00    0.64864   0.62235   23.598
 3826.00    0.63378   0.60514   23.535
 3827.00    0.62455   0.59462   23.185
 3828.00    0.61527   0.58563   22.804
 3829.00    0.60842   0.57217   22.956
 3830.00    0.59357   0.55022   23.854
 3831.00    0.55304   0.51858   25.609
 3832.00    0.51505   0.47968   26.659
 3833.00    0.49334   0.44122   26.388
 3834.00    0.47764   0.41448   25.415
 3835.00    0.47200   0.40725   24.763
 3836.00    0.47831   0.41870   25.081
 3837.00    0.48494   0.44226   25.682
 3838.00    0.50509   0.47294   25.435
 3839.00    0.53709   0.51035   24.159
 3840.00    0.57435   0.55437   78.790
 3841.00    0.62230   0.60164   -1.000
 3842.00    0.66849   0.64627   -1.000
 3843.00    0.70619   0.68212   -1.000
 3844.00    0.73517   0.70764   -1.000
 3845.00    0.75038   0.72686   -1.000
 3846.00    0.75640   0.74330   -1.000
 3847.00    0.75473   0.75480  183.773
 3848.00    0.75869   0.75883  190.516
 3849.00    0.76183   0.75909  194.403
 3850.00    0.76575   0.76247  191.285
 3851.00    0.76374   0.77143  186.260
 3852.00    0.77016   0.78043  186.326
 3853.00    0.77783   0.78180  190.474
 3854.00    0.77682   0.77437  196.002
 3855.00    0.76823   0.76288  199.462
 3856.00    0.75722   0.75089  203.161
 3857.00    0.74549   0.73908   27.146
 3858.00    0.73048   0.72938   23.076
 3859.00    0.71734   0.72750   22.941
 3860.00    0.71252   0.73748   76.099
 3861.00    0.74737   0.75617  187.559
 3862.00    0.78649   0.77399   -1.000
 3863.00    0.80206   0.78316   -1.000
 3864.00    0.80612   0.78439   -1.000
 3865.00    0.81069   0.78300   -1.000
 3866.00    0.80599   0.78258   -1.000
 3867.00    0.79957   0.78286   -1.000
 3868.00    0.79716   0.77966   -1.000
 3869.00    0.77775   0.76837   -1.000
 3870.00    0.75618   0.74879   27.439
 3871.00    0.72544   0.72805   76.389
 3872.00    0.72258   0.71731  199.243
 3873.00    0.73022   0.72300  181.058
 3874.00    0.75116   0.73812   -1.000
 3875.00    0.77148   0.74605   -1.000
 3876.00    0.76986   0.73698   -1.000
 3877.00    0.73159   0.71718   -1.000
 3878.00    0.69767   0.70017  203.161
 3879.00    0.68836   0.69201  203.161
 3880.00    0.69666   0.68761   -1.000
 3881.00    0.69387   0.67961   -1.000
 3882.00    0.67436   0.66550   -1.000
 3883.00    0.66648   0.64529   -1.000
 3884.00    0.65883   0.61635   -1.000
 3885.00    0.64317   0.57552   -1.000
 3886.00    0.60183   0.52791   -1.000
 3887.00    0.56724   0.48713   -1.000
 3888.00    0.55242   0.46785   -1.000
 3889.00    0.55423   0.47862   -1.000
 3890.00    0.58849   0.51641   -1.000
 3891.00    0.63767   0.56568   -1.000
 3892.00    0.67048   0.60865   -1.000
 3893.00    0.69595   0.63824   -1.000
 3894.00    0.69817   0.65986   -1.000
 3895.00    0.71408   0.68129   -1.000
 3896.00    0.74807   0.70308   -1.000
 3897.00    0.75716   0.72033   -1.000
 3898.00    0.76056   0.73129   -1.000
 3899.00    0.76559   0.74029   -1.000
 3900.00    0.77944   0.75123   -1.000
 3901.00    0.79501   0.76212   -1.000
 3902.00    0.80152   0.76750   -1.000
 3903.00    0.80272   0.76507   -1.000
 3904.00    0.78514   0.75965   -1.000
 3905.00    0.76359   0.75987  160.651
 3906.00    0.77220   0.77179  152.564
 3907.00    0.80863   0.79488  142.439
 3908.00    0.84736   0.82077   -1.000
 3909.00    0.86134   0.84022   -1.000
 3910.00    0.88100   0.85085   -1.000
 3911.00    0.88835   0.85478   -1.000
 3912.00    0.87568   0.85390   -1.000
 3913.00    0.86631   0.84993  137.964
 3914.00    0.85860   0.84488  141.159
 3915.00    0.84909   0.84018  143.231
 3916.00    0.84827   0.83550  145.121
 3917.00    0.85052   0.82880   -1.000
 3918.00    0.84265   0.81889   -1.000
 3919.00    0.82252   0.80750   -1.000
 3920.00    0.80568   0.79894  166.708
 3921.00    0.80861   0.79685  166.045
 3922.00    0.81472   0.80026   -1.000
 3923.00    0.81502   0.80312  163.728
 3924.00    0.81790   0.79821   -1.000
 3925.00    0.80895   0.78151   -1.000
 3926.00    0.77479   0.75310   -1.000
 3927.00    0.72792   0.71588   29.802
 3928.00    0.68066   0.67338   27.868
 3929.00    0.60416   0.62587   32.619
 3930.00    0.52621   0.57153   38.516
 3931.00    0.45333   0.51257   45.169
 3932.00    0.37782   0.46111   -1.000
 3933.00    0.33382   0.43592   -1.000
 3934.00    0.32731   0.44902   -1.000
 3935.00    0.37620   0.49537   -1.000
 3936.00    0.45782   0.55865   29.676
 3937.00    0.54197   0.62236   24.850
 3938.00    0.62481   0.67680   -1.000
 3939.00    0.68982   0.71916   -1.000
 3940.00    0.72216   0.74822  191.519
 3941.00    0.74542   0.76358  188.809
 3942.00    0.76093   0.76836  188.446
 3943.00    0.75772   0.76937  180.543
 3944.00    0.76885   0.77429  165.141
 3945.00    0.80500   0.78504   -1.000
 3946.00    0.82632   0.79648   -1.000
 3947.00    0.83385   0.80428   -1.000
 3948.00    0.83459   0.80946   -1.000
 3949.00    0.83643   0.81350   -1.000
 3950.00    0.84026   0.81500   -1.000
 3951.00    0.83838   0.81388   -1.000
 3952.00    0.83577   0.81334   -1.000
 3953.00    0.84418   0.81437   -1.000
 3954.00    0.84885   0.81235   -1.000
 3955.00    0.84475   0.80373   -1.000
 3956.00    0.83112   0.79269   -1.000
 3957.00    0.81039   0.78460   -1.000
 3958.00    0.80359   0.77603   -1.000
 3959.00    0.79965   0.75730   -1.000
 3960.00    0.76133   0.72408   -1.000
 3961.00    0.70470   0.68319   -1.000
 3962.00    0.66339   0.64375   -1.000
 3963.00    0.63105   0.60593   27.864
 3964.00    0.59739   0.56152   26.284
 3965.00    0.53112   0.50271   32.113
 3966.00    0.44758   0.43261   39.368
 3967.00    0.37157   0.36734   44.393
 3968.00    0.32322   0.32608   42.515
 3969.00    0.31756   0.32076   35.694
 3970.00    0.36523   0.35181   29.327
 3971.00    0.42869   0.40858   24.466
 3972.00    0.49716   0.47657   83.733
 3973.00    0.57080   0.54438   -1.000
 3974.00    0.63392   0.60555   -1.000
 3975.00    0.68590   0.65807   -1.000
 3976.00    0.73564   0.70305   -1.000
 3977.00    0.77026   0.74282   -1.000
 3978.00    0.80175   0.77778   -1.000
 3979.00    0.83176   0.80448   -1.000
 3980.00    0.85391   0.81968   -1.000
 3981.00    0.85774   0.82586   -1.000
 3982.00    0.85783   0.83023   -1.000
 3983.00    0.86273   0.83827   -1.000
 3984.00    0.88261   0.84966   -1.000
 3985.00    0.89596   0.86167   -1.000
 3986.00    0.90785   0.87353   -1.000
 3987.00    0.91227   0.88572  117.399
 3988.00    0.91350   0.89740  117.587
 3989.00    0.92883   0.90748  117.038
 3990.00    0.94284   0.91674  114.620
 3991.00    0.95231   0.92603  111.837
 3992.00    0.95529   0.93316  112.525
 3993.00    0.96339   0.93418  115.056
 3994.00    0.95186   0.92780  117.740
 3995.00    0.93850   0.91725  120.074
 3996.00    0.92402   0.90884  121.291
 3997.00    0.91665   0.90831  119.134
 3998.00    0.91953   0.91660  114.042
 3999.00    0.94020   0.93017  109.943
 4000.00    0.96343   0.94372  107.885
 4001.00    0.97468   0.95150  106.322
 4002.00    0.98731   0.94896   -1.000
 4003.00    0.98341   0.93537   -1.000
 4004.00    0.95344   0.91629   -1.000
 4005.00    0.93009   0.90398  120.855
 4006.00    0.92869   0.90846  114.696
 4007.00    0.95852   0.92708   -1.000
 4008.00    0.97630   0.94830  107.918
 4009.00    0.98657   0.96330  106.725
 4010.00    0.99589   0.97040  106.246
 4011.00    0.99213   0.97261  106.843
 4012.00    0.97326   0.97361  107.461
 4013.00    0.99461   0.97529  106.869
 4014.00    0.99114   0.97742  105.443
 4015.00    1.00000   0.97911  105.978
 4016.00    1.00309   0.98074  107.250
 4017.00    0.99787   0.98372  107.020
 4018.00    1.00835   0.98850  105.514
 4019.00    1.01329   0.99337  105.470
 4020.00    1.01560   0.99573  106.839
 4021.00    1.00756   0.99421  107.619
 4022.00    1.00397   0.98898  108.308
 4023.00    0.99614   0.98216  109.139
 4024.00    0.99597   0.97839  106.958
 4025.00    1.00039   0.98221  103.277
 4026.00    1.01858   0.99222  100.938
 4027.00    1.02692   0.99932  101.409
 4028.00    1.02164   0.99428  105.121
 4029.00    0.99711   0.97711  111.937
 4030.00    0.96808   0.95648  117.155
 4031.00    0.95898   0.94203  119.088
 4032.00    0.94870   0.93870  117.994
 4033.00    0.94762   0.94616  114.455
 4034.00    0.96550   0.96158  109.039
 4035.00    0.98894   0.98259  103.637
 4036.00    1.01722   1.00579   99.774
 4037.00    1.02953   1.02396   98.934
 4038.00    1.05148   1.03007  100.689
 4039.00    1.05109   1.02533  103.080
 4040.00    1.03378   1.01712  104.408
 4041.00    1.02185   1.00844  104.999
 4042.00    1.02004   0.99349  109.385
 4043.00    0.99808   0.96659   -1.000
 4044.00    0.95612   0.93574  129.027
 4045.00    0.92289   0.91995  125.917
 4046.00    0.93007   0.93010  114.517
 4047.00    0.96367   0.95929  106.930
 4048.00    1.00039   0.99109  103.393
 4049.00    1.02813   1.01216  101.955
 4050.00    1.03472   1.01883  102.391
 4051.00    1.02467   1.01424  104.918
 4052.00    1.01816   1.00350  107.682
 4053.00    1.00707   0.99238  109.522
 4054.00    0.99804   0.98482  110.510
 4055.00    0.99462   0.98021  111.273
 4056.00    0.99546   0.97701  112.384
 4057.00    0.98084   0.97732  111.418
 4058.00    0.98408   0.98367  107.723
 4059.00    1.00634   0.99217  105.315
 4060.00    1.02125   0.99237  106.569
 4061.00    1.00463   0.97732  113.546
 4062.00    0.97245   0.95223  121.567
 4063.00    0.94610   0.93036  121.149
 4064.00    0.95017   0.92158  115.652
 4065.00    0.96526   0.92597   -1.000
 4066.00    0.97726   0.93768   -1.000
 4067.00    0.99793   0.95105   -1.000
 4068.00    1.00608   0.96014   -1.000
 4069.00    1.01467   0.95861   -1.000
 4070.00    1.00936   0.94658   -1.000
 4071.00    0.98291   0.93416   -1.000
 4072.00    0.96850   0.93125   -1.000
 4073.00    0.97787   0.93509   -1.000
 4074.00    0.98503   0.93314   -1.000
 4075.00    0.96158   0.91879   -1.000
 4076.00    0.92690   0.89935   -1.000
 4077.00    0.89969   0.88883  122.823
 4078.00    0.90157   0.89616  114.890
 4079.00    0.93780   0.91839  106.938
 4080.00    0.98104   0.94235   -1.000
 4081.00    1.00280   0.95418   -1.000
 4082.00    0.99357   0.94997   -1.000
 4083.00    0.98194   0.93774   -1.000
 4084.00    0.97077   0.92965   -1.000
 4085.00    0.96823   0.93296   -1.000
 4086.00    0.98160   0.94551  100.918
 4087.00    0.99826   0.95846   -1.000
 4088.00    1.00397   0.96310   -1.000
 4089.00    1.00246   0.95698   -1.000
 4090.00    0.99022   0.94441   -1.000
 4091.00    0.97605   0.93088   -1.000
 4092.00    0.97636   0.91741   -1.000
 4093.00    0.95361   0.90057   -1.000
 4094.00    0.93876   0.87729   -1.000
 4095.00    0.91301   0.84826   -1.000
 4096.00    0.88703   0.81607   -1.000
 4097.00    0.87130   0.78009   -1.000
 4098.00    0.85172   0.73541   -1.000
 4099.00    0.82260   0.68058   -1.000
 4100.00    0.75202   0.62695   -1.000
 4101.00    0.68949   0.59651   -1.000
 4102.00    0.68153   0.60590   -1.000
 4103.00    0.73415   0.65226   -1.000
 4104.00    0.79799   0.71492   -1.000
 4105.00    0.85928   0.77144   -1.000
 4106.00    0.89317   0.81185   -1.000
 4107.00    0.90142   0.83780   -1.000
 4108.00    0.90518   0.85464   -1.000
 4109.00    0.90158   0.86798   -1.000
 4110.00    0.91277   0.88203  111.543
 4111.00    0.93088   0.89802   -1.000
 4112.00    0.94829   0.91538  107.179
 4113.00    0.96314   0.93343  105.507
 4114.00    0.98263   0.95022  104.401
 4115.00    0.99238   0.96173  104.721
 4116.00    0.99214   0.96490  106.746
 4117.00    0.98649   0.96092  110.215
 4118.00    0.98009   0.95486  111.838
 4119.00    0.97346   0.95211  110.766
 4120.00    0.96993   0.95454  109.571
 4121.00    0.97848   0.96037  109.527
 4122.00    0.98467   0.96750  108.518
 4123.00    0.99103   0.97536  106.670
 4124.00    0.99376   0.98229  106.109
 4125.00    1.00650   0.98463  107.324
 4126.00    1.00526   0.98089  109.554
 4127.00    0.99518   0.97468  110.655
 4128.00    0.99393   0.97052  111.250
 4129.00    0.98712   0.96761  112.547
 4130.00    0.97964   0.96141  115.846
 4131.00    0.96977   0.95154  119.534
 4132.00    0.95661   0.94482  120.292
 4133.00    0.95215   0.94899  116.826
 4134.00    0.96581   0.96557  111.122
 4135.00    0.98998   0.98914  107.244
 4136.00    1.01697   1.01231  105.305
 4137.00    1.03398   1.03031  103.658
 4138.00    1.04492   1.04081  103.098
 4139.00    1.04896   1.04093  104.908
 4140.00    1.04039   1.02772  110.041
 4141.00    1.01250   1.00333  118.966
 4142.00    0.96637   0.97729  125.798
 4143.00    0.93671   0.96270   -1.000
 4144.00    0.94256   0.96718   -1.000
 4145.00    0.97661   0.98539  110.755
 4146.00    1.01387   1.00335  109.252
 4147.00    1.01919   1.01184  110.957
 4148.00    1.00450   1.01250  113.979
 4149.00    0.99525   1.01203  115.626
 4150.00    0.99261   1.01311   -1.000
 4151.00    1.00137   1.01254  114.351
 4152.00    1.00164   1.00704  115.216
 4153.00    0.99255   0.99841  117.037
 4154.00    0.99051   0.99238  114.673
 4155.00    0.96393   0.99341   -1.000
 4156.00    1.06902   1.00148   -1.000
 4157.00    1.27655   1.01353   -1.000
 4158.00    1.05902   1.02580  110.722
 4159.00    0.77141   1.03541   -1.000
 4160.00    0.94646   1.04179   -1.000
 4161.00    1.07266   1.04680  105.729
 4162.00    1.04010   1.05201  106.159
 4163.00    1.02908   1.05628   -1.000
 4164.00    1.02920   1.05641   -1.000
 4165.00    1.03048   1.05055   -1.000
 4166.00    1.02386   1.04108  113.635
 4167.00    1.01854   1.03300  113.069
 4168.00    1.02171   1.02746  111.203
 4169.00    1.02547   1.01886  111.998
 4170.00    1.00494   1.00123  118.069
 4171.00    0.97418   0.97757  125.322
 4172.00    0.95400   0.95983  126.540
 4173.00    0.94366   0.95815  122.481
 4174.00    0.94706   0.97050   -1.000
 4175.00    0.96223   0.98530   -1.000
 4176.00    0.96430   0.99451   -1.000
 4177.00    0.96216   0.99995   -1.000
 4178.00    0.97091   1.00668   -1.000
 4179.00    0.98486   1.01419   -1.000
 4180.00    0.99882   1.01792  114.745
 4181.00    1.00268   1.01708  113.663
 4182.00    1.00377   1.01650  111.478
 4183.00    0.99480   1.01953   -1.000
 4184.00    0.99593   1.02264   -1.000
 4185.00    1.00297   1.02011  112.731
 4186.00    0.99650   1.01226  116.060
 4187.00    0.98007   1.00547   -1.000
 4188.00    0.98382   1.00509   -1.000
 4189.00    0.99995   1.01092  112.122
 4190.00    1.00642   1.01974  110.722
 4191.00    1.00649   1.02927   -1.000
 4192.00    1.01812   1.03698  106.861
 4193.00    1.02784   1.03832  109.498
 4194.00    1.02660   1.02981  115.046
 4195.00    1.00751   1.01264  119.127
 4196.00    0.98025   0.99227  121.415
 4197.00    0.96618   0.97484  121.868
 4198.00    0.95176   0.96388  120.686
 4199.00    0.95201   0.96008  118.793
 4200.00    0.96137   0.96225  118.304
 4201.00    0.96715   0.96836  117.594
 4202.00    0.97454   0.97742  115.842
 4203.00    0.98380   0.98976  114.905
 4204.00    0.98930   1.00500  112.808
 4205.00    0.99161   1.02115   -1.000
 4206.00    1.00089   1.03533   -1.000
 4207.00    1.01972   1.04456   -1.000
 4208.00    1.03046   1.04780  107.491
 4209.00    1.02761   1.04786   -1.000
 4210.00    1.02498   1.04930   -1.000
 4211.00    1.02697   1.05281   -1.000
 4212.00    1.03206   1.05283   -1.000
 4213.00    1.01975   1.04351   -1.000
 4214.00    0.99305   1.02691   -1.000
 4215.00    0.96921   1.01290   -1.000
 4216.00    0.96468   1.01101   -1.000
 4217.00    0.98999   1.02270   -1.000
 4218.00    1.02508   1.04041  100.244
 4219.00    1.04517   1.05408   99.004
 4220.00    1.04564   1.05776   99.714
 4221.00    1.04949   1.04877  103.527
 4222.00    1.03715   1.02517  110.539
 4223.00    1.01177   0.98800  121.214
 4224.00    0.96485   0.94434  137.148
 4225.00    0.90839   0.90794  149.162
 4226.00    0.86223   0.89532   -1.000
 4227.00    0.87133   0.91517   -1.000
 4228.00    0.93453   0.95772  110.380
 4229.00    1.00684   1.00024  104.120
 4230.00    1.03237   1.02456  102.886
 4231.00    1.03312   1.02780  104.937
 4232.00    1.01758   1.01823  107.689
 4233.00    0.99945   1.00636  108.923
 4234.00    1.00100   0.99789  111.345
 4235.00    0.99439   0.99359  113.436
 4236.00    0.98712   0.99331  112.858
 4237.00    0.98795   0.99799  110.349
 4238.00    0.99733   1.00742  108.683
 4239.00    1.00773   1.01886  106.635
 4240.00    1.01022   1.02905  105.139
 4241.00    1.02205   1.03694  104.599
 4242.00    1.02582   1.04342  102.917
 4243.00    1.03817   1.04844  100.765
 4244.00    1.03808   1.04870  101.531
 4245.00    1.03351   1.04033  105.935
 4246.00    1.01686   1.02430  110.084
 4247.00    0.98729   1.00768  113.018
 4248.00    0.97770   0.99810  114.208
 4249.00    0.97538   0.99840   -1.000
 4250.00    0.97768   1.00605   -1.000
 4251.00    0.99401   1.01523  107.968
 4252.00    1.01602   1.01931  108.264
 4253.00    1.01225   1.01641  111.061
 4254.00    0.99942   1.01267  110.024
 4255.00    1.00024   1.01507  105.905
 4256.00    1.01847   1.02061  104.742
 4257.00    1.03239   1.01906  108.372
 4258.00    1.01981   1.00628  114.274
 4259.00    0.99228   0.99117  117.593
 4260.00    0.97270   0.98807  113.782
 4261.00    0.97549   1.00304   -1.000
 4262.00    1.01028   1.02879  101.623
 4263.00    1.03647   1.05262   99.052
 4264.00    1.05147   1.06632   98.647
 4265.00    1.05837   1.06877  100.121
 4266.00    1.05504   1.06214  103.334
 4267.00    1.04280   1.04810  106.512
 4268.00    1.02401   1.02678  110.547
 4269.00    1.00212   0.99967  117.620
 4270.00    0.95960   0.97184  124.977
 4271.00    0.93035   0.95094  126.835
 4272.00    0.92944   0.94317  124.284
 4273.00    0.94338   0.94932  121.163
 4274.00    0.95353   0.96621  115.905
 4275.00    0.96750   0.99071  108.513
 4276.00    0.99931   1.01765  103.291
 4277.00    1.03093   1.03742  102.850
 4278.00    1.03501   1.04250  107.116
 4279.00    1.01641   1.03537  110.976
 4280.00    1.00044   1.02575   -1.000
 4281.00    0.98496   1.02094   -1.000
 4282.00    0.98709   1.02010   -1.000
 4283.00    0.99710   1.01790  110.260
 4284.00    0.99210   1.01136  113.403
 4285.00    0.98405   1.00099  116.316
 4286.00    0.97043   0.98711  118.067
 4287.00    0.96011   0.96905  122.392
 4288.00    0.94471   0.94864  128.458
 4289.00    0.92281   0.93368  129.223
 4290.00    0.90989   0.93328  123.171
 4291.00    0.92254   0.94720   -1.000
 4292.00    0.95322   0.96460  112.783
 4293.00    0.97118   0.97402  113.611
 4294.00    0.97170   0.97168  115.449
 4295.00    0.96064   0.95980  118.044
 4296.00    0.94157   0.94036  123.790
 4297.00    0.92617   0.91363  134.256
 4298.00    0.88379   0.88330  144.465
 4299.00    0.84518   0.85774  146.967
 4300.00    0.82171   0.84429  142.984
 4301.00    0.82681   0.84408  140.629
 4302.00    0.84633   0.85328  138.503
 4303.00    0.85187   0.86609  136.794
 4304.00    0.85702   0.87557  137.219
 4305.00    0.86829   0.87514  141.707
 4306.00    0.86191   0.86385  149.225
 4307.00    0.84331   0.84938  153.298
 4308.00    0.82045   0.84342  150.707
 4309.00    0.82448   0.85208   -1.000
 4310.00    0.84270   0.87118   -1.000
 4311.00    0.86755   0.89280  126.691
 4312.00    0.88691   0.91524   -1.000
 4313.00    0.90413   0.94312   -1.000
 4314.00    0.93556   0.98015   -1.000
 4315.00    0.97424   1.02262   -1.000
 4316.00    1.02729   1.06006   -1.000
 4317.00    1.06699   1.08237   92.911
 4318.00    1.08216   1.08681   94.289
 4319.00    1.07489   1.07701   96.398
 4320.00    1.05157   1.05712   99.608
 4321.00    1.03303   1.02808  104.435
 4322.00    1.00304   0.99094  112.016
 4323.00    0.95704   0.95192  122.039
 4324.00    0.91758   0.92310  127.418
 4325.00    0.89455   0.91666  120.016
 4326.00    0.90703   0.93567   -1.000
 4327.00    0.95334   0.96845   99.505
 4328.00    0.99707   0.99654   97.279
 4329.00    1.01192   1.00963   97.581
 4330.00    1.00455   1.01045   97.107
 4331.00    1.00471   1.00666   95.460
 4332.00    1.00313   1.00133   94.437
 4333.00    0.99256   0.99065   94.190
 4334.00    0.98895   0.96781   95.706
 4335.00    0.98080   0.92684   -1.000
 4336.00    0.94688   0.86612   -1.000
 4337.00    0.89303   0.79311   -1.000
 4338.00    0.83051   0.72438   -1.000
 4339.00    0.76265   0.67991   -1.000
 4340.00    0.72787   0.67474   -1.000
 4341.00    0.75690   0.70992   -1.000
 4342.00    0.81113   0.76961   -1.000
 4343.00    0.87481   0.83223   -1.000
 4344.00    0.91662   0.88508  100.335
 4345.00    0.94570   0.92702   98.578
 4346.00    0.96805   0.96082   97.511
 4347.00    0.98208   0.98664   95.934
 4348.00    0.99917   1.00022   96.098
 4349.00    1.00625   0.99722  101.173
 4350.00    0.98799   0.98135  108.734
 4351.00    0.95409   0.96666  110.652
 4352.00    0.94203   0.96740   -1.000
 4353.00    0.96439   0.98617  101.560
 4354.00    0.99886   1.01321   98.354
 4355.00    1.02212   1.03676   96.261
 4356.00    1.04460   1.05156   96.201
 4357.00    1.05452   1.05877   98.217
 4358.00    1.04558   1.06260   99.486
 4359.00    1.03884   1.06825   -1.000
 4360.00    1.04721   1.07867   -1.000
 4361.00    1.06905   1.09194   93.615
 4362.00    1.08231   1.10431   93.211
 4363.00    1.08601   1.11373   -1.000
 4364.00    1.08482   1.11795   -1.000
 4365.00    1.08515   1.11356   -1.000
 4366.00    1.07264   1.10071   -1.000
 4367.00    1.05304   1.08489   -1.000
 4368.00    1.05090   1.07202   98.581
 4369.00    1.05150   1.06396   97.946
 4370.00    1.05188   1.05838   97.837
 4371.00    1.05606   1.05079   98.770
 4372.00    1.05162   1.03818  102.689
 4373.00    1.03020   1.02299  106.809
 4374.00    1.00724   1.01353  107.075
 4375.00    1.00486   1.01793  102.821
 4376.00    1.02697   1.03588   97.660
 4377.00    1.06494   1.05797   95.785
 4378.00    1.08230   1.07284   96.268
 4379.00    1.08557   1.07252   97.953
 4380.00    1.07740   1.05270  102.473
 4381.00    1.05134   1.01453   -1.000
 4382.00    1.00855   0.96894   -1.000
 4383.00    0.94534   0.93630  128.496
 4384.00    0.91945   0.93354  117.124
 4385.00    0.95500   0.95826  106.003
 4386.00    1.00248   0.99123  102.266
 4387.00    1.03231   1.01513  102.209
 4388.00    1.04174   1.02636  103.300
 4389.00    1.04250   1.03125  103.667
 4390.00    1.04063   1.03657  101.744
 4391.00    1.05146   1.04373   99.447
 4392.00    1.06547   1.04891  100.003
 4393.00    1.05872   1.04919  102.192
 4394.00    1.04085   1.04881  101.926
 4395.00    1.03922   1.05496   97.389
 4396.00    1.06228   1.06679   94.476
 4397.00    1.08288   1.07469   95.650
 4398.00    1.07975   1.07190   99.143
 4399.00    1.05960   1.06237  102.135
 4400.00    1.03798   1.05478  101.095
 4401.00    1.04378   1.05169   99.267
 4402.00    1.06812   1.04737  102.562
 4403.00    1.05480   1.03746  108.542
 4404.00    1.02719   1.02668  109.656
 4405.00    1.02562   1.02329  106.099
 4406.00    1.04117   1.02938  104.467
 4407.00    1.04946   1.04123  103.524
 4408.00    1.04829   1.05706   99.653
 4409.00    1.05799   1.07790   95.377
 4410.00    1.08919   1.10015   92.107
 4411.00    1.10505   1.11411   90.953
 4412.00    1.12237   1.11171   93.303
 4413.00    1.09607   1.09292   98.636
 4414.00    1.07127   1.06691  102.294
 4415.00    1.03879   1.04852  101.850
 4416.00    1.03161   1.04917   98.357
 4417.00    1.05025   1.06868   94.271
 4418.00    1.05879   1.09659   -1.000
 4419.00    1.09587   1.11923   -1.000
 4420.00    1.10269   1.12768   -1.000
 4421.00    1.08713   1.12346   -1.000
 4422.00    1.07597   1.11527   -1.000
 4423.00    1.07976   1.10981   -1.000
 4424.00    1.07845   1.10744   -1.000
 4425.00    1.07751   1.10592   -1.000
 4426.00    1.06604   1.10542   -1.000
 4427.00    1.06433   1.10760   -1.000
 4428.00    1.07158   1.11192   -1.000
 4429.00    1.07903   1.11610   -1.000
 4430.00    1.08140   1.11807   -1.000
 4431.00    1.08181   1.11586   -1.000
 4432.00    1.09534   1.10753   97.388
 4433.00    1.08511   1.09382  102.158
 4434.00    1.05269   1.08191   -1.000
 4435.00    1.04104   1.08250   -1.000
 4436.00    1.06465   1.09962   -1.000
 4437.00    1.10295   1.12513   89.328
 4438.00    1.13567   1.14465   88.980
 4439.00    1.13899   1.14756   91.741
 4440.00    1.12238   1.13271   96.144
 4441.00    1.09515   1.10946  100.238
 4442.00    1.06409   1.09272   -1.000
 4443.00    1.04853   1.09330   -1.000
 4444.00    1.06578   1.11031   -1.000
 4445.00    1.10052   1.13272   -1.000
 4446.00    1.11615   1.14912   -1.000
 4447.00    1.12044   1.15580   -1.000
 4448.00    1.12644   1.15592   -1.000
 4449.00    1.11774   1.15349   -1.000
 4450.00    1.11318   1.14976   -1.000
 4451.00    1.12268   1.14277   93.050
 4452.00    1.12103   1.12885   96.435
 4453.00    1.10368   1.10771  100.901
 4454.00    1.07569   1.08637  103.063
 4455.00    1.05501   1.07434  101.406
 4456.00    1.06689   1.07493   99.586
 4457.00    1.08091   1.08333   99.605
 4458.00    1.08501   1.09267  100.118
 4459.00    1.08810   1.09964  101.161
 4460.00    1.08046   1.10450  102.070
 4461.00    1.08184   1.10911   -1.000
 4462.00    1.09035   1.11569   -1.000
 4463.00    1.10420   1.12463   93.885
 4464.00    1.11037   1.13260   93.705
 4465.00    1.11592   1.13501   93.771
 4466.00    1.12128   1.13036   94.822
 4467.00    1.10956   1.12180   96.652
 4468.00    1.08923   1.11555   -1.000
 4469.00    1.09111   1.11739   -1.000
 4470.00    1.09680   1.12903   -1.000
 4471.00    1.11661   1.14760   -1.000
 4472.00    1.14211   1.16774   -1.000
 4473.00    1.16841   1.18397   86.498
 4474.00    1.17370   1.19337   86.646
 4475.00    1.16550   1.19682   -1.000
 4476.00    1.17211   1.19637   -1.000
 4477.00    1.17961   1.19112   86.142
 4478.00    1.17536   1.17723   89.303
 4479.00    1.15536   1.15416   93.372
 4480.00    1.12457   1.13006   96.053
 4481.00    1.09623   1.11805   -1.000
 4482.00    1.09992   1.12550   -1.000
 4483.00    1.12368   1.14856   -1.000
 4484.00    1.15529   1.17568   85.705
 4485.00    1.18239   1.19453   85.797
 4486.00    1.18763   1.19829   87.733
 4487.00    1.17508   1.18856   91.102
 4488.00    1.14653   1.17352   -1.000
 4489.00    1.13196   1.16290   -1.000
 4490.00    1.12979   1.16229   -1.000
 4491.00    1.15925   1.16961   88.361
 4492.00    1.16515   1.17733   89.642
 4493.00    1.16164   1.17931   92.392
 4494.00    1.14473   1.17659   -1.000
 4495.00    1.12846   1.17531   -1.000
 4496.00    1.13802   1.17892   -1.000
 4497.00    1.15125   1.18530   -1.000
 4498.00    1.16738   1.19006   86.751
 4499.00    1.17517   1.19090   87.754
 4500.00    1.16495   1.19016   -1.000
 4501.00    1.15989   1.19380   -1.000
 4502.00    1.16504   1.20538   -1.000
 4503.00    1.18641   1.22173   -1.000
 4504.00    1.21133   1.23557   -1.000
 4505.00    1.21560   1.24134   -1.000
 4506.00    1.21550   1.23895   -1.000
 4507.00    1.20356   1.23308   -1.000
 4508.00    1.19403   1.22925   -1.000
 4509.00    1.19260   1.22928   -1.000
 4510.00    1.20183   1.23016   -1.000
 4511.00    1.20234   1.22766   -1.000
 4512.00    1.19080   1.22055   -1.000
 4513.00    1.18592   1.21110   -1.000
 4514.00    1.18449   1.20260   87.467
 4515.00    1.18023   1.19733   87.396
 4516.00    1.17728   1.19511   88.454
 4517.00    1.16911   1.19385   -1.000
 4518.00    1.16571   1.19277   -1.000
 4519.00    1.17635   1.19287   85.759
 4520.00    1.18072   1.19385   85.994
 4521.00    1.17052   1.19320   -1.000
 4522.00    1.16445   1.18878   -1.000
 4523.00    1.15425   1.18097   -1.000
 4524.00    1.15255   1.17116   92.116
 4525.00    1.15227   1.15920   94.937
 4526.00    1.13522   1.14434   97.628
 4527.00    1.11922   1.12854   98.820
 4528.00    1.10703   1.11719   98.121
 4529.00    1.10644   1.11457   96.398
 4530.00    1.11772   1.11897   94.634
 4531.00    1.13085   1.12339   94.154
 4532.00    1.12737   1.12163   96.768
 4533.00    1.10724   1.11496  100.073
 4534.00    1.08705   1.11227   -1.000
 4535.00    1.08664   1.12267   -1.000
 4536.00    1.11959   1.14720   -1.000
 4537.00    1.16665   1.17718   85.306
 4538.00    1.19741   1.20030   86.100
 4539.00    1.19297   1.20962   88.185
 4540.00    1.18087   1.20792   -1.000
 4541.00    1.17786   1.20325   -1.000
 4542.00    1.17990   1.20064   87.147
 4543.00    1.17084   1.19887   -1.000
 4544.00    1.21884   1.19472   41.351
 4545.00    0.88040   1.18755   -1.000
 4546.00    0.15006   1.17821   -1.000
 4547.00    0.00535   1.16659   -1.000
 4548.00    0.38275   1.15411   -1.000
 4549.00    0.79988   1.14615   -1.000
 4550.00    0.35800   1.14765   -1.000
 4551.00    1.09301   1.15591   -1.000
 4552.00    1.14504   1.16229   92.778
 4553.00    1.12905   1.16195   -1.000
 4554.00    1.11780   1.15898   -1.000
 4555.00    1.12163   1.16153   -1.000
 4556.00    1.14571   1.17384   -1.000
 4557.00    1.17834   1.19285   83.786
 4558.00    1.18941   1.21179   84.236
 4559.00    1.20291   1.22580   84.193
 4560.00    1.20567   1.23286   -1.000
 4561.00    1.20713   1.23210   -1.000
 4562.00    1.19579   1.22381   -1.000
 4563.00    1.18150   1.21136   -1.000
 4564.00    1.16326   1.20136   -1.000
 4565.00    1.17699   1.19989   86.632
 4566.00    1.20051   1.20784   84.333
 4567.00    1.21345   1.21958   83.474
 4568.00    1.21691   1.22665   84.382
 4569.00    1.20716   1.22394   86.526
 4570.00    1.18858   1.21334   -1.000
 4571.00    1.16476   1.20272   -1.000
 4572.00    1.16565   1.20036   -1.000
 4573.00    1.17969   1.20806   -1.000
 4574.00    1.20168   1.21983   84.335
 4575.00    1.20920   1.22829   84.724
 4576.00    1.21152   1.23014   85.216
 4577.00    1.20425   1.22515   86.673
 4578.00    1.19638   1.21390   89.276
 4579.00    1.17397   1.19825   -1.000
 4580.00    1.17012   1.18227   90.894
 4581.00    1.16591   1.17059   89.610
 4582.00    1.15974   1.16563   88.941
 4583.00    1.16353   1.16657   89.202
 4584.00    1.16360   1.17116   89.766
 4585.00    1.16913   1.17816   88.536
 4586.00    1.17287   1.18746   86.208
 4587.00    1.18955   1.19821   84.370
 4588.00    1.20434   1.20779   84.234
 4589.00    1.20911   1.21277   85.466
 4590.00    1.19949   1.21137   87.067
 4591.00    1.18087   1.20552   -1.000
 4592.00    1.16955   1.20007   -1.000
 4593.00    1.17350   1.19913   -1.000
 4594.00    1.17986   1.20309   87.242
 4595.00    1.18915   1.20937   87.007
 4596.00    1.19963   1.21526   86.824
 4597.00    1.20791   1.21900   86.629
 4598.00    1.21017   1.21942   87.390
 4599.00    1.20524   1.21639   88.179
 4600.00    1.19559   1.21135   88.429
 4601.00    1.18371   1.20688   87.493
 4602.00    1.18107   1.20529   86.506
 4603.00    1.19491   1.20709   86.646
 4604.00    1.20718   1.21128   86.504
 4605.00    1.20240   1.21710   85.563
 4606.00    1.20178   1.22454   83.868
 4607.00    1.21858   1.23350   82.067
 4608.00    1.23322   1.24263   81.098
 4609.00    1.22936   1.24905   81.459
 4610.00    1.22974   1.24999   82.587
 4611.00    1.23646   1.24602   83.507
 4612.00    1.22761   1.24083   84.049
 4613.00    1.21551   1.23755   83.633
 4614.00    1.21810   1.23646   82.884
 4615.00    1.21928   1.23563   82.552
 4616.00    1.22063   1.23320   83.107
 4617.00    1.21953   1.22941   83.727
 4618.00    1.22181   1.22669   83.648
 4619.00    1.21496   1.22798   82.845
 4620.00    1.22108   1.23431   81.521
 4621.00    1.23150   1.24348   81.498
 4622.00    1.24357   1.25114   81.706
 4623.00    1.24242   1.25432   81.867
 4624.00    1.23282   1.25352   82.625
 4625.00    1.23226   1.25067   82.826
 4626.00    1.23355   1.24724   82.781
 4627.00    1.23782   1.24417   83.320
 4628.00    1.23152   1.24207   83.498
 4629.00    1.22449   1.24173   83.076
 4630.00    1.21930   1.24388   82.109
 4631.00    1.21564   1.24732   -1.000
 4632.00    1.23408   1.24852   83.699
 4633.00    1.23165   1.24535   84.624
 4634.00    1.22592   1.23982   84.542
 4635.00    1.22737   1.23509   85.232
 4636.00    1.22265   1.23221   86.371
 4637.00    1.22021   1.23103   86.721
 4638.00    1.21795   1.23214   86.595
 4639.00    1.21306   1.23657   85.114
 4640.00    1.22435   1.24423   83.016
 4641.00    1.23848   1.25288   81.882
 4642.00    1.24948   1.25837   82.226
 4643.00    1.24382   1.25684   83.776
 4644.00    1.23911   1.24738   86.155
 4645.00    1.22679   1.23261   88.545
 4646.00    1.21840   1.21778   88.908
 4647.00    1.19918   1.20952   87.313
 4648.00    1.20521   1.21188   85.259
 4649.00    1.22068   1.22253   84.096
 4650.00    1.22487   1.23452   83.959
 4651.00    1.22041   1.24188   83.785
 4652.00    1.22806   1.24286   84.797
 4653.00    1.22423   1.23883   86.785
 4654.00    1.21737   1.23275   87.775
 4655.00    1.20537   1.22922   87.005
 4656.00    1.20241   1.23307   -1.000
 4657.00    1.22384   1.24613   80.960
 4658.00    1.24431   1.26474   79.156
 4659.00    1.26520   1.28091   79.094
 4660.00    1.27613   1.28773   80.095
 4661.00    1.26413   1.28411   82.083
 4662.00    1.25234   1.27353   83.700
 4663.00    1.24653   1.25969   83.877
 4664.00    1.23849   1.24379   85.273
 4665.00    1.22638   1.22518   88.988
 4666.00    1.20859   1.20511   92.702
 4667.00    1.18717   1.18952   92.754
 4668.00    1.17091   1.18568   89.860
 4669.00    1.17894   1.19554   86.069
 4670.00    1.20873   1.21379   83.758
 4671.00    1.23404   1.23228   83.286
 4672.00    1.24513   1.24571   83.360
 4673.00    1.24116   1.25395   83.271
 4674.00    1.24287   1.25968   82.169
 4675.00    1.25583   1.26393   80.925
 4676.00    1.25514   1.26405   81.359
 4677.00    1.25883   1.25719   83.158
 4678.00    1.24626   1.24486   84.804
 4679.00    1.23049   1.23231   86.201
 4680.00    1.22499   1.22425   87.026
 4681.00    1.21867   1.22213   85.909
 4682.00    1.22289   1.22499   83.712
 4683.00    1.23881   1.23092   82.631
 4684.00    1.23933   1.23749   82.938
 4685.00    1.24810   1.24258   82.967
 4686.00    1.25530   1.24554   83.451
 4687.00    1.25469   1.24692   83.447
 4688.00    1.24309   1.24737   83.455
 4689.00    1.24891   1.24721   84.071
 4690.00    1.24591   1.24666   84.237
 4691.00    1.23567   1.24665   83.213
 4692.00    1.25194   1.24864   81.966
 4693.00    1.26659   1.25271   80.122
 4694.00    1.27473   1.25695   79.114
 4695.00    1.28450   1.25906   79.534
 4696.00    1.28205   1.25728   81.879
 4697.00    1.26502   1.25069   84.365
 4698.00    1.23910   1.24027   85.316
 4699.00    1.23348   1.22849   84.593
 4700.00    1.23878   1.21714   85.256
 4701.00    1.23312   1.20708   86.792
 4702.00    1.21503   1.20022   87.221
 4703.00    1.20811   1.19966   85.517
 4704.00    1.22286   1.20553   84.261
 4705.00    1.23544   1.21244   85.494
 4706.00    1.22994   1.21443   87.231
 4707.00    1.21805   1.21156   88.054
 4708.00    1.20975   1.20957   87.562
 4709.00    1.21357   1.21339   84.929
 4710.00    1.22504   1.22277   82.600
 4711.00    1.24992   1.23353   81.815
 4712.00    1.26405   1.24087   82.640
 4713.00    1.25862   1.24269   84.232
 4714.00    1.24449   1.24185   84.196
 4715.00    1.23908   1.24378   82.480
 4716.00    1.24594   1.25103   80.893
 4717.00    1.26152   1.26112   80.419
 4718.00    1.27556   1.26965   80.140
 4719.00    1.27892   1.27428   79.865
 4720.00    1.27768   1.27564   80.574
 4721.00    1.26826   1.27584   81.144
 4722.00    1.26295   1.27660   80.641
 4723.00    1.27103   1.27809   79.753
 4724.00    1.27537   1.27855   79.903
 4725.00    1.26917   1.27493   81.900
 4726.00    1.25266   1.26515   85.063
 4727.00    1.23768   1.25087   86.935
 4728.00    1.22981   1.23740   86.554
 4729.00    1.23220   1.22949   85.651
 4730.00    1.23736   1.22802   84.983
 4731.00    1.23533   1.23132   83.946
 4732.00    1.24914   1.23721   83.226
 4733.00    1.25444   1.24303   82.760
 4734.00    1.25679   1.24628   82.299
 4735.00    1.25898   1.24643   83.227
 4736.00    1.24732   1.24524   83.310
 4737.00    1.25306   1.24540   82.193
 4738.00    1.25735   1.24850   82.263
 4739.00    1.25141   1.25351   82.757
 4740.00    1.25379   1.25806   82.855
 4741.00    1.26362   1.26148   82.166
 4742.00    1.26535   1.26494   81.259
 4743.00    1.27075   1.26909   81.456
 4744.00    1.27774   1.27312   81.525
 4745.00    1.27300   1.27640   80.893
 4746.00    1.27490   1.27977   80.066
 4747.00    1.27726   1.28439   79.918
 4748.00    1.27686   1.28981   80.049
 4749.00    1.27488   1.29458   80.100
 4750.00    1.28134   1.29733   80.702
 4751.00    1.27363   1.29641   81.632
 4752.00    1.26728   1.29079   82.309
 4753.00    1.25440   1.28200   82.870
 4754.00    1.25029   1.27397   82.700
 4755.00    1.26209   1.27036   83.039
 4756.00    1.25679   1.27211   83.667
 4757.00    1.24992   1.27764   83.741
 4758.00    1.24901   1.28415   -1.000
 4759.00    1.25919   1.28809   -1.000
 4760.00    1.25883   1.28580   84.234
 4761.00    1.25113   1.27575   86.378
 4762.00    1.22951   1.26066   -1.000
 4763.00    1.21568   1.24655   -1.000
 4764.00    1.21964   1.23829   87.362
 4765.00    1.22934   1.23708   86.732
 4766.00    1.23610   1.24223   85.509
 4767.00    1.24121   1.25288   83.536
 4768.00    1.25355   1.26678   82.402
 4769.00    1.26822   1.27934   82.585
 4770.00    1.27160   1.28626   83.307
 4771.00    1.26190   1.28762   84.047
 4772.00    1.26273   1.28795   83.014
 4773.00    1.26370   1.29184   81.203
 4774.00    1.26513   1.29967   -1.000
 4775.00    1.27296   1.30757   -1.000
 4776.00    1.27593   1.31140   -1.000
 4777.00    1.27718   1.31003   -1.000
 4778.00    1.27193   1.30535   -1.000
 4779.00    1.26533   1.30033   -1.000
 4780.00    1.26117   1.29659   -1.000
 4781.00    1.26000   1.29348   -1.000
 4782.00    1.25531   1.28961   -1.000
 4783.00    1.25700   1.28479   84.205
 4784.00    1.26277   1.27987   84.502
 4785.00    1.25705   1.27556   85.368
 4786.00    1.24814   1.27255   85.847
 4787.00    1.24704   1.27191   85.739
 4788.00    1.24054   1.27429   -1.000
 4789.00    1.23731   1.27943   -1.000
 4790.00    1.25225   1.28695   -1.000
 4791.00    1.26831   1.29687   82.477
 4792.00    1.27353   1.30882   -1.000
 4793.00    1.27508   1.32126   -1.000
 4794.00    1.28843   1.33154   -1.000
 4795.00    1.29355   1.33667   -1.000
 4796.00    1.29195   1.33504   -1.000
 4797.00    1.28442   1.32796   -1.000
 4798.00    1.26246   1.31932   -1.000
 4799.00    1.25977   1.31375   -1.000
 4800.00    1.26397   1.31410   -1.000
 4801.00    1.27664   1.31905   -1.000
 4802.00    1.28413   1.32387   -1.000
 4803.00    1.27808   1.32451   -1.000
 4804.00    1.27300   1.32067   -1.000
 4805.00    1.27026   1.31517   -1.000
 4806.00    1.26934   1.31120   -1.000
 4807.00    1.26696   1.31003   -1.000
 4808.00    1.27032   1.31135   -1.000
 4809.00    1.27706   1.31418   -1.000
 4810.00    1.27709   1.31713   -1.000
 4811.00    1.28443   1.31941   -1.000
 4812.00    1.28188   1.32187   -1.000
 4813.00    1.28019   1.32582   -1.000
 4814.00    1.28495   1.33148   -1.000
 4815.00    1.28724   1.33791   -1.000
 4816.00    1.28767   1.34352   -1.000
 4817.00    1.29248   1.34700   -1.000
 4818.00    1.29498   1.34813   -1.000
 4819.00    1.29142   1.34729   -1.000
 4820.00    1.30030   1.34342   -1.000
 4821.00    1.29243   1.33423   -1.000
 4822.00    1.27770   1.31955   -1.000
 4823.00    1.25969   1.30415   -1.000
 4824.00    1.24363   1.29561   -1.000
 4825.00    1.26003   1.29754   -1.000
 4826.00    1.27711   1.30575   80.888
 4827.00    1.28339   1.31280   81.875
 4828.00    1.28139   1.31482   -1.000
 4829.00    1.27123   1.31259   -1.000
 4830.00    1.27388   1.30803   -1.000
 4831.00    1.27426   1.30251   83.233
 4832.00    1.26906   1.29813   81.834
 4833.00    1.27379   1.29712   80.758
 4834.00    1.28643   1.29953   80.492
 4835.00    1.28367   1.30300   80.643
 4836.00    1.27495   1.30445   81.040
 4837.00    1.27867   1.30190   82.185
 4838.00    1.26933   1.29525   83.677
 4839.00    1.25249   1.28629   -1.000
 4840.00    1.24689   1.27803   -1.000
 4841.00    1.24381   1.27312   83.046
 4842.00    1.25378   1.27204   82.416
 4843.00    1.25802   1.27359   81.583
 4844.00    1.25722   1.27678   80.277
 4845.00    1.26294   1.28026   79.902
 4846.00    1.26195   1.28074   81.622
 4847.00    1.25476   1.27577   82.821
 4848.00    1.24887   1.26779   82.760
 4849.00    1.23837   1.26153   81.545
 4850.00    1.23604   1.25811   81.398
 4851.00    1.23572   1.25365   81.892
 4852.00    1.24199   1.24285   82.601
 4853.00    1.22177   1.22294   85.161
 4854.00    1.18801   1.19550   87.574
 4855.00    1.16329   1.16565   87.262
 4856.00    1.15884   1.13688   86.344
 4857.00    1.14761   1.10492   -1.000
 4858.00    1.13475   1.05897   -1.000
 4859.00    1.07578   0.99481   -1.000
 4860.00    0.98514   0.92728   -1.000
 4861.00    0.92517   0.88473   -1.000
 4862.00    0.92095   0.88776   96.363
 4863.00    1.00270   0.93326   -1.000
 4864.00    1.07915   0.99935   -1.000
 4865.00    1.11534   1.06393   -1.000
 4866.00    1.15150   1.11577   85.111
 4867.00    1.17749   1.15254   84.762
 4868.00    1.19328   1.17443   85.547
 4869.00    1.19701   1.18188   88.048
 4870.00    1.17606   1.17800   90.194
 4871.00    1.15721   1.17132   89.299
 4872.00    1.15261   1.17301   86.670
 4873.00    1.17004   1.18789   85.208
 4874.00    1.20442   1.20982   84.580
 4875.00    1.22143   1.22860   84.126
 4876.00    1.22885   1.24021   83.853
 4877.00    1.22572   1.24894   82.585
 4878.00    1.22390   1.26029   -1.000
 4879.00    1.24271   1.27403   -1.000
 4880.00    1.25214   1.28497   -1.000
 4881.00    1.24794   1.28903   -1.000
 4882.00    1.23689   1.28697   -1.000
 4883.00    1.23618   1.28212   -1.000
 4884.00    1.23109   1.27644   -1.000
 4885.00    1.23525   1.27060   -1.000
 4886.00    1.23210   1.26548   -1.000
 4887.00    1.22876   1.26121   -1.000
 4888.00    1.23667   1.25589   87.047
 4889.00    1.22668   1.24782   89.019
 4890.00    1.20862   1.24037   -1.000
 4891.00    1.20938   1.24229   -1.000
 4892.00    1.23560   1.26072   80.675
 4893.00    1.27559   1.29305   78.350
 4894.00    1.29451   1.32730   76.912
 4895.00    1.31496   1.35216   -1.000
 4896.00    1.31329   1.36426   -1.000
 4897.00    1.31789   1.36592   -1.000
 4898.00    1.30858   1.36082   -1.000
 4899.00    1.29235   1.35280   -1.000
 4900.00    1.27118   1.34519   -1.000
 4901.00    1.28304   1.33919   -1.000
 4902.00    1.28768   1.33420   -1.000
 4903.00    1.27881   1.33100   -1.000
 4904.00    1.28375   1.33289   -1.000
 4905.00    1.29788   1.34077   -1.000
 4906.00    1.31652   1.34910   79.425
 4907.00    1.31321   1.34996   -1.000
 4908.00    1.29754   1.34013   -1.000
 4909.00    1.27799   1.32362   -1.000
 4910.00    1.26762   1.30892   -1.000
 4911.00    1.26218   1.30366   -1.000
 4912.00    1.27614   1.30998   -1.000
 4913.00    1.29473   1.32378   79.889
 4914.00    1.29664   1.33801   -1.000
 4915.00    1.31328   1.34510   79.625
 4916.00    1.31908   1.33818   82.527
 4917.00    1.28982   1.31427   87.141
 4918.00    1.25425   1.27836   91.273
 4919.00    1.21088   1.24278   -1.000
 4920.00    1.19252   1.22089   89.035
 4921.00    1.20794   1.21861   85.789
 4922.00    1.22592   1.23126   84.590
 4923.00    1.24808   1.24927   84.548
 4924.00    1.25810   1.26730   83.425
 4925.00    1.26503   1.28632   81.196
 4926.00    1.28586   1.30787   79.773
 4927.00    1.30796   1.32993   79.049
 4928.00    1.31872   1.34825   78.515
 4929.00    1.32011   1.35932   -1.000
 4930.00    1.32886   1.36102   78.878
 4931.00    1.31707   1.35231   -1.000
 4932.00    1.29671   1.33505   -1.000
 4933.00    1.27030   1.31611   -1.000
 4934.00    1.25098   1.30354   -1.000
 4935.00    1.26325   1.29929   -1.000
 4936.00    1.28486   1.29717   85.154
 4937.00    1.27297   1.29091   87.481
 4938.00    1.25360   1.28327   86.593
 4939.00    1.25300   1.28357   83.554
 4940.00    1.26579   1.29721   80.885
 4941.00    1.28995   1.32005   79.435
 4942.00    1.30850   1.34220   78.740
 4943.00    1.32583   1.35614   78.830
 4944.00    1.33205   1.36081   79.410
 4945.00    1.32737   1.36009   79.559
 4946.00    1.31687   1.35937   -1.000
 4947.00    1.32063   1.36241   -1.000
 4948.00    1.33041   1.36898   -1.000
 4949.00    1.33259   1.37525   -1.000
 4950.00    1.33264   1.37748   -1.000
 4951.00    1.33542   1.37514   -1.000
 4952.00    1.33439   1.37018   -1.000
 4953.00    1.32546   1.36330   -1.000
 4954.00    1.32786   1.35114   82.453
 4955.00    1.31626   1.32881   86.798
 4956.00    1.27108   1.29824   90.213
 4957.00    1.22906   1.27291   -1.000
 4958.00    1.23551   1.26859   83.024
 4959.00    1.27347   1.28843   80.251
 4960.00    1.31643   1.31976   79.714
 4961.00    1.32796   1.34592   80.124
 4962.00    1.32365   1.35880   -1.000
 4963.00    1.32341   1.35946   -1.000
 4964.00    1.31977   1.35216   83.520
 4965.00    1.31077   1.34134   84.568
 4966.00    1.29618   1.33119   -1.000
 4967.00    1.29770   1.32452   84.288
 4968.00    1.30615   1.32226   83.647
 4969.00    1.30256   1.32433   82.741
 4970.00    1.30197   1.33030   81.852
 4971.00    1.30940   1.33911   80.871
 4972.00    1.32064   1.34908   80.121
 4973.00    1.33268   1.35813   79.822
 4974.00    1.33524   1.36406   80.413
 4975.00    1.33022   1.36530   -1.000
 4976.00    1.32345   1.36162   -1.000
 4977.00    1.31624   1.35383   -1.000
 4978.00    1.30946   1.34273   84.769
 4979.00    1.30036   1.32801   86.002
 4980.00    1.28879   1.30800   88.900
 4981.00    1.26195   1.28242   91.743
 4982.00    1.23669   1.25624   91.622
 4983.00    1.22255   1.23943   89.827
 4984.00    1.23021   1.24026   87.269
 4985.00    1.25683   1.25836   84.495
 4986.00    1.27977   1.28499   82.455
 4987.00    1.29798   1.30911   82.613
 4988.00    1.31262   1.32296   83.867
 4989.00    1.30197   1.32485   84.704
 4990.00    1.29016   1.31930   84.701
 4991.00    1.28626   1.31362   83.925
 4992.00    1.29860   1.31269   83.589
 4993.00    1.29469   1.31674   83.553
 4994.00    1.29681   1.32314   83.108
 4995.00    1.30775   1.32908   82.713
 4996.00    1.32067   1.33216   83.257
 4997.00    1.31985   1.32987   84.407
 4998.00    1.30492   1.32052   86.125
 4999.00    1.28481   1.30550   87.164
 5000.00    1.26750   1.29013   87.175
 5001.00    1.26352   1.28057   86.324
 5002.00    1.27871   1.27867   85.800
 5003.00    1.28265   1.27956   87.111
 5004.00    1.27231   1.27614   89.338
 5005.00    1.26103   1.26718   89.725
 5006.00    1.25363   1.26014   87.429
 5007.00    1.25357   1.26363   84.779
 5008.00    1.28370   1.27770   83.971
 5009.00    1.30439   1.29279   85.167
 5010.00    1.29782   1.29742   87.797
 5011.00    1.28262   1.28709   91.096
 5012.00    1.25577   1.26713   93.122
 5013.00    1.23154   1.24828   92.555
 5014.00    1.22299   1.23860   90.455
 5015.00    1.23724   1.23832   88.599
 5016.00    1.25562   1.24210   88.280
 5017.00    1.25301   1.24570   88.286
 5018.00    1.24853   1.24995   87.254
 5019.00    1.26068   1.25746   86.576
 5020.00    1.27911   1.26741   86.992
 5021.00    1.28353   1.27635   87.160
 5022.00    1.27976   1.28310   86.627
 5023.00    1.28505   1.29010   85.704
 5024.00    1.29505   1.29869   85.164
 5025.00    1.29978   1.30568   85.604
 5026.00    1.29882   1.30779   85.983
 5027.00    1.29032   1.30689   85.134
 5028.00    1.28609   1.30776   83.510
 5029.00    1.30639   1.31320   82.326
 5030.00    1.31411   1.32276   80.992
 5031.00    1.31815   1.33383   80.100
 5032.00    1.33357   1.34247   80.332
 5033.00    1.33045   1.34403   83.017
 5034.00    1.31791   1.33575   86.298
 5035.00    1.29201   1.32013   87.632
 5036.00    1.27892   1.30329   87.927
 5037.00    1.27411   1.28845   89.110
 5038.00    1.27154   1.27242   92.714
 5039.00    1.24500   1.25164   96.398
 5040.00    1.22261   1.23152   96.167
 5041.00    1.20891   1.22490   91.320
 5042.00    1.22407   1.24034   85.681
 5043.00    1.27015   1.27376   82.298
 5044.00    1.30766   1.31159   80.573
 5045.00    1.32941   1.34063   77.596
 5046.00    1.34400   1.35399   74.409
 5047.00    1.39578   1.35097   23.260
 5048.00    0.75427   1.33563   -1.000
 5049.00    0.07835   1.31575   -1.000
 5050.00    0.85352   1.30028   -1.000
 5051.00    1.35363   1.29578   -1.000
 5052.00    1.29090   1.30380   82.304
 5053.00    1.31563   1.32005   80.847
 5054.00    1.33374   1.33715   80.119
 5055.00    1.34571   1.35022   79.891
 5056.00    1.34835   1.35927   80.053
 5057.00    1.34854   1.36627   80.195
 5058.00    1.34401   1.37208   80.139
 5059.00    1.34829   1.37639   79.593
 5060.00    1.35271   1.37850   79.695
 5061.00    1.35301   1.37699   80.852
 5062.00    1.34981   1.36926   83.283
 5063.00    1.33277   1.35416   86.215
 5064.00    1.30531   1.33569   87.059
 5065.00    1.28285   1.32109   -1.000
 5066.00    1.29600   1.31478   84.639
 5067.00    1.31055   1.31534   84.405
 5068.00    1.31131   1.31841   83.992
 5069.00    1.32205   1.32110   83.475
 5070.00    1.32709   1.32218   84.200
 5071.00    1.32511   1.32079   84.804
 5072.00    1.32722   1.31777   83.705
 5073.00    1.32156   1.31622   83.085
 5074.00    1.32332   1.31831   82.997
 5075.00    1.32379   1.32213   82.965
 5076.00    1.32535   1.32257   83.886
 5077.00    1.31369   1.31498   86.949
 5078.00    1.29724   1.29902   91.038
 5079.00    1.27352   1.28063   91.844
 5080.00    1.25379   1.26856   89.790
 5081.00    1.26445   1.26753   87.899
 5082.00    1.28089   1.27579   86.726
 5083.00    1.29335   1.28896   85.071
 5084.00    1.30755   1.30416   83.651
 5085.00    1.32268   1.31973   83.107
 5086.00    1.33895   1.33349   82.999
 5087.00    1.33548   1.34372   82.560
 5088.00    1.33566   1.35069   81.960
 5089.00    1.34299   1.35581   81.515
 5090.00    1.34906   1.36023   81.072
 5091.00    1.34745   1.36473   80.121
 5092.00    1.35833   1.36944   79.469
 5093.00    1.36010   1.37240   80.296
 5094.00    1.35531   1.36956   82.021
 5095.00    1.34959   1.35777   83.806
 5096.00    1.33688   1.33826   85.840
 5097.00    1.32211   1.31705   87.565
 5098.00    1.30564   1.30182   87.672
 5099.00    1.30228   1.29804   85.399
 5100.00    1.31533   1.30625   82.979
 5101.00    1.32906   1.32133   82.375
 5102.00    1.34335   1.33517   82.937
 5103.00    1.34402   1.34175   84.059
 5104.00    1.33759   1.33969   85.119
 5105.00    1.32740   1.33088   86.161
 5106.00    1.30955   1.31873   87.192
 5107.00    1.29526   1.30745   86.986
 5108.00    1.28954   1.30099   86.407
 5109.00    1.29905   1.30168   85.755
 5110.00    1.30574   1.30957   84.501
 5111.00    1.32226   1.32247   83.474
 5112.00    1.33439   1.33685   82.468
 5113.00    1.34095   1.34976   81.749
 5114.00    1.35045   1.36024   81.305
 5115.00    1.35187   1.36869   80.433
 5116.00    1.35714   1.37527   79.811
 5117.00    1.36387   1.37924   80.126
 5118.00    1.37321   1.37933   81.221
 5119.00    1.37046   1.37445   82.459
 5120.00    1.35488   1.36455   83.864
 5121.00    1.33530   1.35081   86.082
 5122.00    1.32321   1.33505   88.609
 5123.00    1.30434   1.31943   89.062
 5124.00    1.29547   1.30678   88.224
 5125.00    1.28781   1.29942   87.806
 5126.00    1.29747   1.29722   87.308
 5127.00    1.30443   1.29794   87.455
 5128.00    1.30232   1.29981   87.313
 5129.00    1.30407   1.30294   86.106
 5130.00    1.31001   1.30813   84.656
 5131.00    1.32872   1.31517   83.998
 5132.00    1.33622   1.32273   83.193
 5133.00    1.33527   1.32944   82.489
 5134.00    1.34278   1.33426   82.385
 5135.00    1.34839   1.33563   83.982
 5136.00    1.34099   1.33167   86.022
 5137.00    1.33146   1.32226   87.296
 5138.00    1.30468   1.31045   87.309
 5139.00    1.29058   1.30080   86.554
 5140.00    1.29640   1.29595   87.310
 5141.00    1.29963   1.29531   88.674
 5142.00    1.29203   1.29726   88.009
 5143.00    1.29557   1.30105   86.539
 5144.00    1.31292   1.30572   86.356
 5145.00    1.31826   1.30884   87.189
 5146.00    1.31889   1.30875   87.304
 5147.00    1.32424   1.30736   86.198
 5148.00    1.32372   1.30765   85.825
 5149.00    1.32325   1.30902   86.996
 5150.00    1.32323   1.30826   88.561
 5151.00    1.31028   1.30420   89.035
 5152.00    1.29569   1.29937   88.463
 5153.00    1.30426   1.29794   86.678
 5154.00    1.32366   1.30331   84.446
 5155.00    1.32609   1.31615   82.330
 5156.00    1.34264   1.33375   80.868
 5157.00    1.36267   1.35129   80.349
 5158.00    1.36891   1.36446   80.380
 5159.00    1.37302   1.37106   80.674
 5160.00    1.37640   1.37084   81.173
 5161.00    1.36177   1.36444   82.133
 5162.00    1.35642   1.35196   83.529
 5163.00    1.34346   1.33115   87.025
 5164.00    1.32797   1.29715   -1.000
 5165.00    1.27812   1.24798   -1.000
 5166.00    1.21020   1.19207  110.681
 5167.00    1.15353   1.14789  107.720
 5168.00    1.14682   1.13021  101.588
 5169.00    1.17749   1.13456   -1.000
 5170.00    1.21392   1.14110   -1.000
 5171.00    1.19352   1.13698   -1.000
 5172.00    1.14105   1.13172  108.711
 5173.00    1.14834   1.14621   96.733
 5174.00    1.21383   1.18864   89.142
 5175.00    1.29342   1.24544   -1.000
 5176.00    1.34429   1.29539   -1.000
 5177.00    1.36130   1.32632   -1.000
 5178.00    1.35959   1.33692   86.261
 5179.00    1.35497   1.32824   89.591
 5180.00    1.34688   1.29887   -1.000
 5181.00    1.30763   1.24960   -1.000
 5182.00    1.22321   1.19252   -1.000
 5183.00    1.14323   1.15102  108.595
 5184.00    1.13173   1.14574   96.250
 5185.00    1.20066   1.17826   88.416
 5186.00    1.27953   1.22915   -1.000
 5187.00    1.31906   1.27421   -1.000
 5188.00    1.32948   1.30139   85.116
 5189.00    1.32706   1.31192   86.216
 5190.00    1.32269   1.31065   89.047
 5191.00    1.30551   1.30209   91.288
 5192.00    1.27991   1.29222   90.360
 5193.00    1.27725   1.28728   88.773
 5194.00    1.29726   1.28955   87.475
 5195.00    1.31320   1.29707   86.166
 5196.00    1.32403   1.30770   84.420
 5197.00    1.34311   1.32130   83.049
 5198.00    1.35529   1.33724   82.448
 5199.00    1.36576   1.35205   82.448
 5200.00    1.36432   1.36051   83.211
 5201.00    1.36067   1.35844   84.798
 5202.00    1.35621   1.34455   86.812
 5203.00    1.33630   1.32120   89.594
 5204.00    1.31680   1.29392   92.187
 5205.00    1.29659   1.26948   -1.000
 5206.00    1.28979   1.25294   -1.000
 5207.00    1.29105   1.24608   -1.000
 5208.00    1.29560   1.24894   -1.000
 5209.00    1.30994   1.26201   -1.000
 5210.00    1.32522   1.28555   -1.000
 5211.00    1.34616   1.31609   81.793
 5212.00    1.36697   1.34533   80.361
 5213.00    1.37932   1.36357   81.474
 5214.00    1.37972   1.36610   83.402
 5215.00    1.36314   1.35747   84.241
 5216.00    1.34452   1.34890   83.361
 5217.00    1.35152   1.35019   81.530
 5218.00    1.37166   1.36302   80.371
 5219.00    1.39239   1.38156   79.808
 5220.00    1.40094   1.39771   79.597
 5221.00    1.40580   1.40545   80.809
 5222.00    1.40713   1.40128   83.432
 5223.00    1.38984   1.38304   86.971
 5224.00    1.35264   1.35107   90.970
 5225.00    1.30772   1.31258   93.061
 5226.00    1.27631   1.28197   90.575
 5227.00    1.27383   1.27335   85.443
 5228.00    1.31117   1.28907   82.175
 5229.00    1.35337   1.31741   -1.000
 5230.00    1.37550   1.34133   -1.000
 5231.00    1.38389   1.35053   -1.000
 5232.00    1.37338   1.34629   84.076
 5233.00    1.34616   1.33849   83.657
 5234.00    1.34118   1.33814   81.627
 5235.00    1.36622   1.34991   79.750
 5236.00    1.39081   1.36999   78.977
 5237.00    1.40271   1.39029   78.978
 5238.00    1.39936   1.40469   79.220
 5239.00    1.40634   1.41175   79.028
 5240.00    1.41277   1.41341   78.584
 5241.00    1.40713   1.41266   78.722
 5242.00    1.40757   1.41236   78.542
 5243.00    1.41006   1.41357   78.547
 5244.00    1.40791   1.41392   80.306
 5245.00    1.40672   1.40920   82.840
 5246.00    1.38796   1.39791   84.593
 5247.00    1.36928   1.38339   84.693
 5248.00    1.36261   1.37078   84.881
 5249.00    1.35721   1.36311   85.381
 5250.00    1.35911   1.36066   84.851
 5251.00    1.35438   1.36239   83.650
 5252.00    1.36761   1.36631   82.911
 5253.00    1.37423   1.37030   82.931
 5254.00    1.37068   1.37466   82.184
 5255.00    1.37230   1.38217   80.151
 5256.00    1.39317   1.39438   78.082
 5257.00    1.41039   1.40806   77.597
 5258.00    1.42047   1.41624   78.522
 5259.00    1.42050   1.41231   80.865
 5260.00    1.39956   1.39360   84.414
 5261.00    1.36077   1.36245   88.383
 5262.00    1.32531   1.32503   91.270
 5263.00    1.30895   1.28924   92.942
 5264.00    1.29214   1.26288   -1.000
 5265.00    1.28069   1.25032   -1.000
 5266.00    1.29050   1.24891   -1.000
 5267.00    1.29981   1.24993   -1.000
 5268.00    1.29101   1.24597   -1.000
 5269.00    1.26932   1.23969   -1.000
 5270.00    1.26408   1.24206   87.598
 5271.00    1.29094   1.25949   -1.000
 5272.00    1.33500   1.28617   -1.000
 5273.00    1.36334   1.31071   -1.000
 5274.00    1.36522   1.32789   -1.000
 5275.00    1.36144   1.34173   81.514
 5276.00    1.37023   1.35870   78.752
 5277.00    1.39704   1.37958   77.530
 5278.00    1.42167   1.39736   78.240
 5279.00    1.42653   1.40337   80.235
 5280.00    1.41270   1.39518   82.284
 5281.00    1.39027   1.37851   83.653
 5282.00    1.37067   1.36287   83.813
 5283.00    1.36279   1.35700   81.903
 5284.00    1.36643   1.36553   79.336
 5285.00    1.37480   1.38643   76.996
 5286.00    1.37557   1.41170   76.623
 5287.00    1.43566   1.43257   77.055
 5288.00    1.43581   1.44540   76.974
 5289.00    1.42972   1.45171   76.518
 5290.00    1.43751   1.45405   76.430
 5291.00    1.43611   1.45383   76.944
 5292.00    1.43545   1.45126   77.716
 5293.00    1.43142   1.44534   78.861
 5294.00    1.42489   1.43383   81.160
 5295.00    1.41378   1.41506   84.269
 5296.00    1.39294   1.39139   86.215
 5297.00    1.35965   1.37051   85.339
 5298.00    1.35485   1.36044   83.121
 5299.00    1.37523   1.36322   81.707
 5300.00    1.38898   1.37413   81.209
 5301.00    1.38462   1.38736   80.064
 5302.00    1.39737   1.40111   77.884
 5303.00    1.41206   1.41555   76.612
 5304.00    1.43134   1.42863   76.579
 5305.00    1.43904   1.43681   77.383
 5306.00    1.43658   1.43906   77.940
 5307.00    1.42529   1.43876   77.321
 5308.00    1.42911   1.44073   76.519
 5309.00    1.44983   1.44665   76.105
 5310.00    1.45182   1.45384   76.250
 5311.00    1.44621   1.45790   76.695
 5312.00    1.44608   1.45601   77.038
 5313.00    1.44651   1.44797   77.634
 5314.00    1.44217   1.43537   78.411
 5315.00    1.42445   1.42152   79.039
 5316.00    1.40205   1.41168   78.960
 5317.00    1.40300   1.41060   78.356
 5318.00    1.41941   1.41803   78.100
 5319.00    1.42910   1.42757   78.455
 5320.00    1.43038   1.43146   79.059
 5321.00    1.42083   1.42586   80.060
 5322.00    1.41458   1.41204   81.437
 5323.00    1.39993   1.39422   82.068
 5324.00    1.38612   1.37587   82.191
 5325.00    1.38715   1.35673   -1.000
 5326.00    1.36381   1.33388   -1.000
 5327.00    1.32742   1.30961   92.416
 5328.00    1.30193   1.29483   88.212
 5329.00    1.32200   1.30047   83.057
 5330.00    1.36694   1.32622   -1.000
 5331.00    1.39903   1.35933   -1.000
 5332.00    1.41138   1.38669   79.209
 5333.00    1.41933   1.40424   78.331
 5334.00    1.43226   1.41439   78.116
 5335.00    1.44181   1.41931   78.678
 5336.00    1.42777   1.41895   79.218
 5337.00    1.42184   1.41262   80.223
 5338.00    1.41847   1.40055   82.283
 5339.00    1.40463   1.38577   83.468
 5340.00    1.38049   1.37470   82.470
 5341.00    1.38179   1.37386   80.208
 5342.00    1.41173   1.38401   78.969
 5343.00    1.43041   1.39795   -1.000
 5344.00    1.43921   1.40673   -1.000
 5345.00    1.42612   1.40681   80.163
 5346.00    1.42221   1.40111   80.579
 5347.00    1.41149   1.39495   81.282
 5348.00    1.40697   1.39229   81.288
 5349.00    1.41098   1.39508   79.862
 5350.00    1.41326   1.40358   78.049
 5351.00    1.43145   1.41581   77.215
 5352.00    1.43660   1.42816   76.980
 5353.00    1.44077   1.43853   76.304
 5354.00    1.45508   1.44767   75.341
 5355.00    1.46711   1.45666   74.871
 5356.00    1.46937   1.46474   74.988
 5357.00    1.47514   1.46989   75.120
 5358.00    1.47536   1.47085   75.468
 5359.00    1.47184   1.46726   76.440
 5360.00    1.46431   1.45883   77.737
 5361.00    1.44379   1.44592   78.802
 5362.00    1.42813   1.43059   79.302
 5363.00    1.41839   1.41612   79.760
 5364.00    1.41358   1.40545   80.167
 5365.00    1.41126   1.39960   79.889
 5366.00    1.41763   1.39686   79.993
 5367.00    1.41531   1.39314   80.991
 5368.00    1.41184   1.38413   83.151
 5369.00    1.39871   1.36876   -1.000
 5370.00    1.37724   1.35229   85.196
 5371.00    1.36446   1.34462   81.744
 5372.00    1.37744   1.35346   78.113
 5373.00    1.41745   1.37783   -1.000
 5374.00    1.45117   1.40791   -1.000
 5375.00    1.46809   1.43283   -1.000
 5376.00    1.47241   1.44697   76.367
 5377.00    1.46226   1.45093   76.560
 5378.00    1.46201   1.44813   77.061
 5379.00    1.45295   1.44177   77.849
 5380.00    1.44253   1.43393   78.574
 5381.00    1.43679   1.42604   78.880
 5382.00    1.42211   1.42003   78.761
 5383.00    1.42728   1.41860   78.312
 5384.00    1.43968   1.42353   77.507
 5385.00    1.44883   1.43314   77.467
 5386.00    1.45857   1.44240   77.897
 5387.00    1.45549   1.44646   78.732
 5388.00    1.44963   1.44345   79.940
 5389.00    1.44086   1.43487   80.748
 5390.00    1.42816   1.42379   81.032
 5391.00    1.42511   1.41280   81.071
 5392.00    1.41854   1.40352   81.378
 5393.00    1.41105   1.39630   82.063
 5394.00    1.40440   1.38921   83.251
 5395.00    1.40104   1.38001   84.810
 5396.00    1.39804   1.36985   -1.000
 5397.00    1.38900   1.36400   81.735
 5398.00    1.39966   1.36796   -1.000
 5399.00    1.41346   1.38085   -1.000
 5400.00    1.42448   1.39542   79.595
 5401.00    1.43304   1.40319   80.463
 5402.00    1.42407   1.39875   83.091
 5403.00    1.40344   1.38228   85.644
 5404.00    1.37588   1.36099   86.555
 5405.00    1.36347   1.34530   85.342
 5406.00    1.37606   1.34172   -1.000
 5407.00    1.39869   1.34839   -1.000
 5408.00    1.40987   1.35723   -1.000
 5409.00    1.39855   1.36346   -1.000
 5410.00    1.39085   1.36938   80.806
 5411.00    1.39724   1.37909   79.080
 5412.00    1.41772   1.39229   78.438
 5413.00    1.43552   1.40434   78.551
 5414.00    1.44202   1.41277   78.508
 5415.00    1.43437   1.41977   77.875
 5416.00    1.43856   1.42768   77.487
 5417.00    1.44714   1.43575   77.928
 5418.00    1.44814   1.44119   78.704
 5419.00    1.44742   1.44239   79.052
 5420.00    1.43716   1.43999   78.667
 5421.00    1.44310   1.43484   78.522
 5422.00    1.44160   1.42753   79.706
 5423.00    1.43559   1.42019   80.203
 5424.00    1.42841   1.41665   79.155
 5425.00    1.42840   1.41984   77.965
 5426.00    1.43987   1.42607   78.576
 5427.00    1.44483   1.42654   80.960
 5428.00    1.42460   1.41711   83.291
 5429.00    1.39825   1.40249   83.019
 5430.00    1.38998   1.39204   81.575
 5431.00    1.40795   1.38925   81.818
 5432.00    1.42393   1.38945   -1.000
 5433.00    1.41035   1.38811   83.839
 5434.00    1.39299   1.38670   83.255
 5435.00    1.39374   1.39132   81.409
 5436.00    1.41313   1.40589   79.179
 5437.00    1.43505   1.42752   77.639
 5438.00    1.45275   1.44919   76.650
 5439.00    1.46925   1.46502   76.110
 5440.00    1.47801   1.47399   76.038
 5441.00    1.47920   1.47691   76.139
 5442.00    1.47677   1.47320   77.167
 5443.00    1.46416   1.46070   79.475
 5444.00    1.44243   1.43878   82.789
 5445.00    1.41070   1.41258   85.042
 5446.00    1.38270   1.39185   83.859
 5447.00    1.38463   1.38588   81.035
 5448.00    1.41046   1.39668   79.001
 5449.00    1.44239   1.41717   78.468
 5450.00    1.46418   1.43708   78.618
 5451.00    1.46972   1.44799   79.490
 5452.00    1.46601   1.44608   81.508
 5453.00    1.45516   1.43244   83.821
 5454.00    1.42127   1.41343   85.200
 5455.00    1.39213   1.39935   83.477
 5456.00    1.40073   1.39962   80.526
 5457.00    1.43629   1.41425   78.612
 5458.00    1.46449   1.43421   78.488
 5459.00    1.46873   1.44802   79.596
 5460.00    1.47131   1.44958   81.090
 5461.00    1.45878   1.44051   82.061
 5462.00    1.43606   1.42805   82.266
 5463.00    1.43153   1.42033   81.121
 5464.00    1.44105   1.42132   80.264
 5465.00    1.44702   1.42934   79.868
 5466.00    1.45962   1.43957   78.996
 5467.00    1.46769   1.44839   78.859
 5468.00    1.47094   1.45420   79.709
 5469.00    1.46634   1.45620   80.471
 5470.00    1.46576   1.45436   80.721
 5471.00    1.45760   1.44928   81.206
 5472.00    1.45959   1.44137   82.118
 5473.00    1.45071   1.43032   83.391
 5474.00    1.43368   1.41570   85.174
 5475.00    1.41685   1.39954   86.177
 5476.00    1.39608   1.38766   84.951
 5477.00    1.39938   1.38585   82.326
 5478.00    1.42177   1.39512   81.147
 5479.00    1.44134   1.40923   -1.000
 5480.00    1.43966   1.42025   82.900
 5481.00    1.43741   1.42638   82.455
 5482.00    1.43553   1.43111   80.868
 5483.00    1.43916   1.43826   79.323
 5484.00    1.45159   1.44700   78.914
 5485.00    1.45928   1.45283   79.861
 5486.00    1.45594   1.45299   80.947
 5487.00    1.44417   1.44909   81.289
 5488.00    1.44161   1.44568   81.189
 5489.00    1.44927   1.44576   80.560
 5490.00    1.45679   1.44888   80.014
 5491.00    1.46061   1.45287   79.809
 5492.00    1.45711   1.45574   80.010
 5493.00    1.45752   1.45700   80.016
 5494.00    1.46338   1.45640   80.082
 5495.00    1.46739   1.45339   80.726
 5496.00    1.45887   1.44841   81.150
 5497.00    1.43999   1.44337   80.551
 5498.00    1.44406   1.44018   79.809
 5499.00    1.45550   1.43834   80.690
 5500.00    1.45742   1.43506   81.888
 5501.00    1.44909   1.43004   81.797
 5502.00    1.44701   1.42612   81.123
 5503.00    1.44993   1.42434   81.181
 5504.00    1.45631   1.42298   -1.000
 5505.00    1.45227   1.41978   -1.000
 5506.00    1.44117   1.41595   81.936
 5507.00    1.43845   1.41569   80.705
 5508.00    1.44514   1.42019   80.576
 5509.00    1.45475   1.42621   -1.000
 5510.00    1.45459   1.42840   82.996
 5511.00    1.44637   1.42430   84.246
 5512.00    1.42443   1.41678   84.691
 5513.00    1.42385   1.41167   83.455
 5514.00    1.43686   1.41356   81.986
 5515.00    1.45220   1.42250   -1.000
 5516.00    1.46687   1.43568   -1.000
 5517.00    1.47084   1.44957   78.061
 5518.00    1.48538   1.46147   78.016
 5519.00    1.49272   1.46950   78.161
 5520.00    1.48521   1.47333   78.335
 5521.00    1.49381   1.47371   78.600
 5522.00    1.48987   1.47178   78.767
 5523.00    1.47862   1.46717   79.361
 5524.00    1.47784   1.45793   80.604
 5525.00    1.47252   1.44286   -1.000
 5526.00    1.45235   1.42370   -1.000
 5527.00    1.41498   1.40686   84.471
 5528.00    1.40318   1.39982   82.380
 5529.00    1.42696   1.40674   80.333
 5530.00    1.45602   1.42341   -1.000
 5531.00    1.46823   1.44000   79.921
 5532.00    1.46708   1.44896   80.671
 5533.00    1.46344   1.44921   80.929
 5534.00    1.45261   1.44549   80.535
 5535.00    1.44860   1.44354   79.906
 5536.00    1.45542   1.44612   79.736
 5537.00    1.46834   1.45180   79.304
 5538.00    1.47890   1.45806   78.510
 5539.00    1.48393   1.46380   78.000
 5540.00    1.49151   1.46824   78.211
 5541.00    1.48740   1.46957   79.090
 5542.00    1.47827   1.46714   79.796
 5543.00    1.46861   1.46272   79.882
 5544.00    1.46350   1.45967   79.628
 5545.00    1.47393   1.46003   79.409
 5546.00    1.47971   1.46348   78.832
 5547.00    1.48479   1.46903   78.041
 5548.00    1.49245   1.47565   77.472
 5549.00    1.50252   1.48145   77.425
 5550.00    1.49864   1.48480   77.932
 5551.00    1.49287   1.48475   78.668
 5552.00    1.49586   1.48159   79.516
 5553.00    1.48902   1.47703   79.770
 5554.00    1.48012   1.47352   79.588
 5555.00    1.48462   1.47275   79.343
 5556.00    1.48482   1.47422   79.226
 5557.00    1.48668   1.47651   79.131
 5558.00    1.49018   1.47837   79.085
 5559.00    1.50086   1.47867   79.316
 5560.00    1.49826   1.47649   79.806
 5561.00    1.49227   1.47160   80.623
 5562.00    1.48793   1.46524   81.107
 5563.00    1.46913   1.45929   81.297
 5564.00    1.45979   1.45480   81.447
 5565.00    1.46961   1.45176   81.485
 5566.00    1.46914   1.44945   81.289
 5567.00    1.47008   1.44727   81.181
 5568.00    1.46913   1.44493   81.414
 5569.00    1.45298   1.44241   81.331
 5570.00    1.44943   1.43969   81.385
 5571.00    1.44366   1.43699   81.557
 5572.00    1.41214   1.43512   81.065
 5573.00    1.29053   1.43586   -1.000
 5574.00    1.01555   1.43965   -1.000
 5575.00    1.02249   1.44493   -1.000
 5576.00    1.19492   1.45083   -1.000
 5577.00    1.48084   1.45721   79.094
 5578.00    1.95636   1.46337   -1.000
 5579.00    1.95222   1.46785   -1.000
 5580.00    1.61544   1.46957   -1.000
 5581.00    1.49717   1.46902   -1.000
 5582.00    1.48756   1.46727   80.206
 5583.00    1.47792   1.46378   80.932
 5584.00    1.48657   1.45599   -1.000
 5585.00    1.46860   1.44053   -1.000
 5586.00    1.43225   1.41850   86.683
 5587.00    1.41257   1.39712   86.951
 5588.00    1.40869   1.38410   -1.000
 5589.00    1.41405   1.38378   -1.000
 5590.00    1.42646   1.39391   -1.000
 5591.00    1.44116   1.40807   -1.000
 5592.00    1.44525   1.41956   -1.000
 5593.00    1.44833   1.42641   82.629
 5594.00    1.44771   1.43078   81.451
 5595.00    1.45114   1.43495   81.060
 5596.00    1.46410   1.43819   -1.000
 5597.00    1.46609   1.43736   -1.000
 5598.00    1.45419   1.43228   84.157
 5599.00    1.44662   1.42564   84.098
 5600.00    1.44591   1.41898   -1.000
 5601.00    1.44253   1.41431   -1.000
 5602.00    1.42718   1.41579   83.009
 5603.00    1.43696   1.42647   80.713
 5604.00    1.46564   1.44580   79.053
 5605.00    1.49177   1.46848   78.318
 5606.00    1.50504   1.48788   78.266
 5607.00    1.51194   1.50081   78.414
 5608.00    1.51428   1.50740   78.539
 5609.00    1.51437   1.50995   78.407
 5610.00    1.51215   1.51008   78.246
 5611.00    1.50911   1.50690   78.885
 5612.00    1.50525   1.49699   80.827
 5613.00    1.49360   1.47849   83.615
 5614.00    1.46638   1.45495   85.013
 5615.00    1.44163   1.43502   83.834
 5616.00    1.44289   1.42857   81.845
 5617.00    1.46480   1.43598   -1.000
 5618.00    1.48364   1.45071   -1.000
 5619.00    1.48953   1.46513   80.434
 5620.00    1.49192   1.47470   80.154
 5621.00    1.49682   1.47820   80.782
 5622.00    1.49522   1.47572   82.500
 5623.00    1.48185   1.46841   83.693
 5624.00    1.46708   1.46092   82.960
 5625.00    1.46496   1.45839   81.497
 5626.00    1.47476   1.46320   80.388
 5627.00    1.48973   1.47370   79.534
 5628.00    1.50778   1.48552   79.041
 5629.00    1.51981   1.49530   78.837
 5630.00    1.52316   1.50099   78.572
 5631.00    1.51978   1.50179   78.789
 5632.00    1.51708   1.49849   79.455
 5633.00    1.50815   1.49299   80.003
 5634.00    1.50935   1.48683   80.515
 5635.00    1.49639   1.48108   81.112
 5636.00    1.48245   1.47626   81.564
 5637.00    1.48962   1.47282   81.498
 5638.00    1.49461   1.47107   81.468
 5639.00    1.49093   1.47028   81.747
 5640.00    1.48668   1.46951   81.698
 5641.00    1.48709   1.46934   81.324
 5642.00    1.49090   1.47054   80.986
 5643.00    1.48563   1.47301   80.809
 5644.00    1.48928   1.47626   80.250
 5645.00    1.49116   1.47971   80.070
 5646.00    1.49897   1.48256   79.874
 5647.00    1.50282   1.48417   79.820
 5648.00    1.51163   1.48432   -1.000
 5649.00    1.50453   1.48351   79.874
 5650.00    1.49876   1.48307   79.244
 5651.00    1.50536   1.48310   79.175
 5652.00    1.51037   1.48251   -1.000
 5653.00    1.50307   1.47973   80.286
 5654.00    1.50195   1.47340   -1.000
 5655.00    1.49565   1.46313   -1.000
 5656.00    1.47710   1.44940   -1.000
 5657.00    1.45118   1.43492   86.259
 5658.00    1.43781   1.42524   84.632
 5659.00    1.44100   1.42404   83.000
 5660.00    1.45712   1.42978   -1.000
 5661.00    1.46603   1.43855   -1.000
 5662.00    1.46864   1.44702   81.817
 5663.00    1.47330   1.45521   80.786
 5664.00    1.48498   1.46382   80.689
 5665.00    1.49607   1.47075   81.204
 5666.00    1.48818   1.47408   81.621
 5667.00    1.48370   1.47434   81.623
 5668.00    1.49465   1.47390   81.327
 5669.00    1.50043   1.47542   80.733
 5670.00    1.49790   1.47953   79.994
 5671.00    1.49926   1.48524   79.185
 5672.00    1.50766   1.49078   78.567
 5673.00    1.51459   1.49499   78.717
 5674.00    1.52110   1.49712   78.907
 5675.00    1.51934   1.49781   78.620
 5676.00    1.51063   1.49797   78.611
 5677.00    1.51504   1.49770   79.057
 5678.00    1.51747   1.49601   79.389
 5679.00    1.51233   1.49151   79.961
 5680.00    1.50526   1.48342   80.954
 5681.00    1.49772   1.47274   -1.000
 5682.00    1.48561   1.46243   81.745
 5683.00    1.47458   1.45567   81.225
 5684.00    1.47730   1.45403   81.018
 5685.00    1.48463   1.45551   -1.000
 5686.00    1.48306   1.45642   -1.000
 5687.00    1.46887   1.45586   82.452
 5688.00    1.46998   1.45582   81.290
 5689.00    1.48123   1.45941   79.866
 5690.00    1.49207   1.46743   79.245
 5691.00    1.50812   1.47743   -1.000
 5692.00    1.51696   1.48654   -1.000
 5693.00    1.51974   1.49296   -1.000
 5694.00    1.52048   1.49665   78.963
 5695.00    1.51648   1.49769   79.313
 5696.00    1.50880   1.49648   80.189
 5697.00    1.50479   1.49284   81.089
 5698.00    1.49403   1.48672   81.805
 5699.00    1.49143   1.47929   82.616
 5700.00    1.48237   1.47227   82.743
 5701.00    1.47146   1.46796   81.971
 5702.00    1.46636   1.46692   81.218
 5703.00    1.47910   1.46805   81.238
 5704.00    1.48045   1.46827   81.978
 5705.00    1.47523   1.46473   83.277
 5706.00    1.46686   1.45669   84.825
 5707.00    1.45752   1.44507   85.956
 5708.00    1.44492   1.43246   86.227
 5709.00    1.42769   1.42320   85.821
 5710.00    1.42795   1.42106   84.695
 5711.00    1.43874   1.42751   82.784
 5712.00    1.45527   1.44152   80.852
 5713.00    1.47996   1.45878   79.889
 5714.00    1.50005   1.47459   -1.000
 5715.00    1.51088   1.48576   79.536
 5716.00    1.51214   1.49284   79.249
 5717.00    1.51275   1.49770   78.819
 5718.00    1.51653   1.50222   78.323
 5719.00    1.51825   1.50729   78.010
 5720.00    1.52137   1.51256   77.855
 5721.00    1.52663   1.51712   77.745
 5722.00    1.53132   1.52024   77.708
 5723.00    1.53224   1.52135   78.018
 5724.00    1.52870   1.52019   78.764
 5725.00    1.52477   1.51648   79.574
 5726.00    1.51813   1.51136   79.973
 5727.00    1.51090   1.50706   79.409
 5728.00    1.51460   1.50495   79.076
 5729.00    1.52377   1.50503   79.413
 5730.00    1.52018   1.50551   79.694
 5731.00    1.51212   1.50584   79.214
 5732.00    1.51972   1.50704   78.446
 5733.00    1.52293   1.51008   78.099
 5734.00    1.52751   1.51467   78.236
 5735.00    1.53414   1.51880   78.352
 5736.00    1.52872   1.52120   78.574
 5737.00    1.52293   1.52169   78.629
 5738.00    1.51839   1.52109   78.808
 5739.00    1.52149   1.52027   78.928
 5740.00    1.52262   1.51929   79.044
 5741.00    1.52151   1.51806   78.832
 5742.00    1.51504   1.51735   78.677
 5743.00    1.51546   1.51765   78.061
 5744.00    1.51860   1.51887   77.836
 5745.00    1.52261   1.51954   78.432
 5746.00    1.52917   1.51877   79.151
 5747.00    1.52100   1.51733   79.235
 5748.00    1.51619   1.51638   78.728
 5749.00    1.52047   1.51581   78.696
 5750.00    1.52705   1.51311   79.485
 5751.00    1.52435   1.50671   80.451
 5752.00    1.50515   1.49834   81.067
 5753.00    1.49328   1.49208   80.748
 5754.00    1.49122   1.49236   79.511
 5755.00    1.50414   1.49942   78.099
 5756.00    1.51981   1.51013   77.478
 5757.00    1.52813   1.51945   77.972
 5758.00    1.53152   1.52375   78.940
 5759.00    1.52827   1.52199   79.997
 5760.00    1.52048   1.51546   80.957
 5761.00    1.51081   1.50705   81.015
 5762.00    1.50756   1.50146   79.884
 5763.00    1.50535   1.50209   78.496
 5764.00    1.51107   1.50928   77.741
 5765.00    1.52645   1.51965   77.608
 5766.00    1.54094   1.52842   77.527
 5767.00    1.54105   1.53331   77.446
 5768.00    1.53249   1.53451   77.661
 5769.00    1.52538   1.53327   77.961
 5770.00    1.52319   1.53035   78.427
 5771.00    1.52622   1.52609   78.858
 5772.00    1.51787   1.52114   78.999
 5773.00    1.51191   1.51699   79.036
 5774.00    1.51062   1.51471   78.792
 5775.00    1.49749   1.51438   78.438
 5776.00    1.48999   1.51488   78.471
 5777.00    1.48228   1.51335   78.934
 5778.00    1.46051   1.50752   80.319
 5779.00    1.45148   1.49794   82.047
 5780.00    1.45312   1.48722   82.765
 5781.00    1.46599   1.47909   82.457
 5782.00    1.48021   1.47542   82.137
 5783.00    1.48470   1.47593   81.845
 5784.00    1.48602   1.47907   81.416
 5785.00    1.49310   1.48374   80.400
 5786.00    1.50371   1.49037   79.414
 5787.00    1.51300   1.49791   79.001
 5788.00    1.52006   1.50376   79.215
 5789.00    1.52409   1.50643   79.497
 5790.00    1.52188   1.50641   79.208
 5791.00    1.51860   1.50681   78.524
 5792.00    1.51916   1.50979   78.019
 5793.00    1.51764   1.51518   77.639
 5794.00    1.52940   1.52120   77.739
 5795.00    1.53167   1.52546   78.265
 5796.00    1.52100   1.52664   78.580
 5797.00    1.52226   1.52572   77.977
 5798.00    1.52219   1.52551   76.908
 5799.00    1.53635   1.52748   76.032
 5800.00    1.54866   1.53106   76.120
 5801.00    1.54991   1.53431   76.829
 5802.00    1.55058   1.53516   77.419
 5803.00    1.53962   1.53309   77.998
 5804.00    1.53507   1.52935   78.202
 5805.00    1.53303   1.52629   77.945
 5806.00    1.53167   1.52545   77.658
 5807.00    1.53373   1.52681   77.482
 5808.00    1.53789   1.52929   77.487
 5809.00    1.54431   1.53206   77.354
 5810.00    1.54526   1.53448   77.053
 5811.00    1.55140   1.53578   76.917
 5812.00    1.55696   1.53534   77.214
 5813.00    1.55615   1.53312   77.848
 5814.00    1.55089   1.52957   78.006
 5815.00    1.55313   1.52626   -1.000
 5816.00    1.55317   1.52541   -1.000
 5817.00    1.55008   1.52830   76.585
 5818.00    1.55625   1.53354   76.236
 5819.00    1.56270   1.53876   76.076
 5820.00    1.56425   1.54231   76.270
 5821.00    1.56509   1.54411   76.465
 5822.00    1.57044   1.54506   76.286
 5823.00    1.57053   1.54572   76.177
 5824.00    1.56683   1.54608   76.044
 5825.00    1.57028   1.54643   76.000
 5826.00    1.57204   1.54698   76.059
 5827.00    1.57325   1.54778   76.161
 5828.00    1.57244   1.54847   76.010
 5829.00    1.57063   1.54866   76.028
 5830.00    1.57125   1.54839   75.960
 5831.00    1.56757   1.54767   76.223
 5832.00    1.56567   1.54655   76.688
 5833.00    1.57629   1.54519   -1.000
 5834.00    1.57070   1.54420   -1.000
 5835.00    1.57059   1.54428   -1.000
 5836.00    1.57193   1.54568   -1.000
 5837.00    1.56514   1.54746   76.709
 5838.00    1.56533   1.54880   76.348
 5839.00    1.56674   1.54965   75.790
 5840.00    1.56903   1.55030   75.508
 5841.00    1.56892   1.55052   75.619
 5842.00    1.56903   1.54981   75.902
 5843.00    1.56945   1.54786   76.246
 5844.00    1.56673   1.54468   76.754
 5845.00    1.56393   1.54070   77.117
 5846.00    1.55377   1.53704   77.398
 5847.00    1.55340   1.53477   77.304
 5848.00    1.55391   1.53382   77.532
 5849.00    1.55893   1.53243   -1.000
 5850.00    1.56327   1.52900   -1.000
 5851.00    1.55087   1.52282   -1.000
 5852.00    1.54114   1.51513   -1.000
 5853.00    1.53642   1.50740   -1.000
 5854.00    1.52805   1.49982   -1.000
 5855.00    1.52636   1.49162   -1.000
 5856.00    1.52371   1.48210   -1.000
 5857.00    1.52316   1.47455   -1.000
 5858.00    1.52775   1.47362   -1.000
 5859.00    1.53403   1.47988   -1.000
 5860.00    1.54463   1.49067   -1.000
 5861.00    1.54641   1.50163   -1.000
 5862.00    1.54919   1.51006   -1.000
 5863.00    1.55169   1.51581   -1.000
 5864.00    1.55256   1.51815   -1.000
 5865.00    1.54980   1.51727   -1.000
 5866.00    1.54554   1.51515   -1.000
 5867.00    1.55051   1.51450   -1.000
 5868.00    1.56062   1.51771   -1.000
 5869.00    1.56311   1.52405   -1.000
 5870.00    1.56586   1.53052   -1.000
 5871.00    1.56764   1.53423   -1.000
 5872.00    1.56655   1.53411   -1.000
 5873.00    1.56385   1.53116   -1.000
 5874.00    1.56293   1.52714   -1.000
 5875.00    1.56461   1.52349   -1.000
 5876.00    1.56587   1.52076   -1.000
 5877.00    1.56329   1.51850   -1.000
 5878.00    1.55437   1.51606   -1.000
 5879.00    1.54964   1.51295   -1.000
 5880.00    1.54528   1.50903   -1.000
 5881.00    1.54174   1.50401   -1.000
 5882.00    1.54102   1.49783   -1.000
 5883.00    1.53394   1.49073   -1.000
 5884.00    1.52424   1.48205   -1.000
 5885.00    1.49070   1.46897   -1.000
 5886.00    1.42084   1.44500   85.188
 5887.00    1.31605   1.40509   -1.000
 5888.00    1.22358   1.35430   -1.000
 5889.00    1.22311   1.30773   -1.000
 5890.00    1.29343   1.28525   92.839
 5891.00    1.37045   1.28910   -1.000
 5892.00    1.38377   1.30570   -1.000
 5893.00    1.34131   1.31729   -1.000
 5894.00    1.29310   1.31547   92.297
 5895.00    1.29985   1.30837   91.063
 5896.00    1.35463   1.30978   -1.000
 5897.00    1.42271   1.32920   -1.000
 5898.00    1.47681   1.36196   -1.000
 5899.00    1.49980   1.39807   -1.000
 5900.00    1.51715   1.43066   -1.000
 5901.00    1.52946   1.45638   -1.000
 5902.00    1.53505   1.47487   -1.000
 5903.00    1.54281   1.48693   -1.000
 5904.00    1.54381   1.49389   -1.000
 5905.00    1.54517   1.49812   -1.000
 5906.00    1.54796   1.50137   -1.000
 5907.00    1.54924   1.50439   -1.000
 5908.00    1.54685   1.50703   -1.000
 5909.00    1.54341   1.50899   -1.000
 5910.00    1.54536   1.50952   -1.000
 5911.00    1.54299   1.50770   -1.000
 5912.00    1.53894   1.50270   -1.000
 5913.00    1.52654   1.49571   -1.000
 5914.00    1.51491   1.48965   -1.000
 5915.00    1.51412   1.48687   -1.000
 5916.00    1.51408   1.48844   -1.000
 5917.00    1.51678   1.49335   -1.000
 5918.00    1.53001   1.49964   -1.000
 5919.00    1.52787   1.50489   -1.000
 5920.00    1.53581   1.50813   -1.000
 5921.00    1.53551   1.50945   -1.000
 5922.00    1.53638   1.51012   -1.000
 5923.00    1.53859   1.51134   -1.000
 5924.00    1.54550   1.51345   -1.000
 5925.00    1.55568   1.51557   -1.000
 5926.00    1.55885   1.51584   -1.000
 5927.00    1.55959   1.51292   -1.000
 5928.00    1.55035   1.50755   -1.000
 5929.00    1.53918   1.50264   -1.000
 5930.00    1.53584   1.50095   -1.000
 5931.00    1.53795   1.50313   -1.000
 5932.00    1.54379   1.50669   -1.000
 5933.00    1.54729   1.50940   -1.000
 5934.00    1.54226   1.51158   -1.000
 5935.00    1.53823   1.51425   -1.000
 5936.00    1.54201   1.51775   -1.000
 5937.00    1.54245   1.52089   79.430
 5938.00    1.54155   1.52161   79.919
 5939.00    1.53673   1.51958   80.713
 5940.00    1.52525   1.51584   80.971
 5941.00    1.52533   1.51279   80.757
 5942.00    1.52842   1.51180   80.237
 5943.00    1.52694   1.51280   79.813
 5944.00    1.53270   1.51437   79.652
 5945.00    1.53419   1.51494   80.068
 5946.00    1.53943   1.51357   -1.000
 5947.00    1.53293   1.51063   -1.000
 5948.00    1.51997   1.50810   81.511
 5949.00    1.52152   1.50722   81.063
 5950.00    1.52977   1.50792   -1.000
 5951.00    1.53210   1.50847   -1.000
 5952.00    1.52721   1.50804   80.981
 5953.00    1.53254   1.50750   -1.000
 5954.00    1.53900   1.50698   -1.000
 5955.00    1.53646   1.50611   -1.000
 5956.00    1.52747   1.50564   -1.000
 5957.00    1.53087   1.50675   -1.000
 5958.00    1.53784   1.51054   -1.000
 5959.00    1.54674   1.51652   -1.000
 5960.00    1.55894   1.52253   -1.000
 5961.00    1.55411   1.52687   -1.000
 5962.00    1.55669   1.52863   -1.000
 5963.00    1.55583   1.52791   -1.000
 5964.00    1.55185   1.52552   -1.000
 5965.00    1.54414   1.52281   80.096
 5966.00    1.53978   1.52120   79.736
 5967.00    1.54498   1.52163   -1.000
 5968.00    1.55449   1.52396   -1.000
 5969.00    1.55717   1.52757   -1.000
 5970.00    1.55539   1.53119   -1.000
 5971.00    1.56193   1.53329   -1.000
 5972.00    1.56087   1.53282   -1.000
 5973.00    1.55401   1.52925   -1.000
 5974.00    1.54195   1.52322   80.726
 5975.00    1.52881   1.51652   81.243
 5976.00    1.53039   1.51156   81.391
 5977.00    1.53257   1.51048   -1.000
 5978.00    1.53439   1.51331   80.229
 5979.00    1.54263   1.51820   -1.000
 5980.00    1.54944   1.52183   -1.000
 5981.00    1.55251   1.52156   -1.000
 5982.00    1.54472   1.51697   -1.000
 5983.00    1.53338   1.51037   -1.000
 5984.00    1.52505   1.50546   81.488
 5985.00    1.52439   1.50454   80.670
 5986.00    1.53456   1.50755   -1.000
 5987.00    1.53905   1.51247   -1.000
 5988.00    1.54693   1.51734   -1.000
 5989.00    1.54623   1.52076   -1.000
 5990.00    1.54729   1.52298   -1.000
 5991.00    1.54786   1.52502   -1.000
 5992.00    1.54765   1.52796   78.865
 5993.00    1.55675   1.53123   -1.000
 5994.00    1.55499   1.53262   -1.000
 5995.00    1.54940   1.53134   80.030
 5996.00    1.55309   1.52812   -1.000
 5997.00    1.55206   1.52507   -1.000
 5998.00    1.54799   1.52349   -1.000
 5999.00    1.54918   1.52312   -1.000
 6000.00    1.54757   1.52269   -1.000
 6001.00    1.54745   1.52129   -1.000
 6002.00    1.54481   1.51922   -1.000
 6003.00    1.53770   1.51742   80.816
 6004.00    1.53895   1.51599   -1.000
 6005.00    1.53399   1.51362   -1.000
 6006.00    1.52499   1.50931   82.386
 6007.00    1.51905   1.50487   82.015
 6008.00    1.51485   1.50333   80.998
 6009.00    1.52079   1.50636   80.420
 6010.00    1.53771   1.51216   -1.000
 6011.00    1.54579   1.51655   -1.000
 6012.00    1.54252   1.51793   -1.000
 6013.00    1.53705   1.51676   -1.000
 6014.00    1.54357   1.51496   -1.000
 6015.00    1.54631   1.51359   -1.000
 6016.00    1.54087   1.51245   -1.000
 6017.00    1.54259   1.51093   -1.000
 6018.00    1.54251   1.50834   -1.000
 6019.00    1.54150   1.50489   -1.000
 6020.00    1.53057   1.50155   -1.000
 6021.00    1.52713   1.50005   -1.000
 6022.00    1.52446   1.50090   -1.000
 6023.00    1.52284   1.50388   80.948
 6024.00    1.53297   1.50903   -1.000
 6025.00    1.54631   1.51586   -1.000
 6026.00    1.55196   1.52289   -1.000
 6027.00    1.55094   1.52922   -1.000
 6028.00    1.55658   1.53460   -1.000
 6029.00    1.56243   1.53894   -1.000
 6030.00    1.56361   1.54223   -1.000
 6031.00    1.55709   1.54466   79.341
 6032.00    1.55458   1.54658   79.009
 6033.00    1.56574   1.54829   78.876
 6034.00    1.56722   1.54966   78.828
 6035.00    1.57135   1.55019   78.726
 6036.00    1.56423   1.54972   78.945
 6037.00    1.56530   1.54815   79.359
 6038.00    1.56559   1.54549   79.500
 6039.00    1.56046   1.54222   79.657
 6040.00    1.55795   1.53914   79.447
 6041.00    1.55844   1.53737   -1.000
 6042.00    1.56119   1.53763   -1.000
 6043.00    1.56156   1.53984   -1.000
 6044.00    1.56132   1.54334   78.424
 6045.00    1.56856   1.54704   -1.000
 6046.00    1.57397   1.55064   -1.000
 6047.00    1.57256   1.55390   78.456
 6048.00    1.57787   1.55639   -1.000
 6049.00    1.57255   1.55770   78.856
 6050.00    1.57101   1.55747   78.939
 6051.00    1.57182   1.55574   79.149
 6052.00    1.56398   1.55222   79.471
 6053.00    1.56058   1.54720   79.755
 6054.00    1.56460   1.54170   -1.000
 6055.00    1.56405   1.53766   -1.000
 6056.00    1.56017   1.53644   -1.000
 6057.00    1.55524   1.53827   79.571
 6058.00    1.55961   1.54173   79.308
 6059.00    1.56473   1.54494   79.486
 6060.00    1.56654   1.54625   -1.000
 6061.00    1.56035   1.54423   81.316
 6062.00    1.53491   1.53832   81.724
 6063.00    1.48747   1.52961   88.154
 6064.00    1.52829   1.52118   64.115
 6065.00    1.76228   1.51742   -1.000
 6066.00    1.83384   1.52061   -1.000
 6067.00    1.53113   1.52895   79.489
 6068.00    1.44139   1.53912   -1.000
 6069.00    1.51561   1.54773   76.957
 6070.00    1.52707   1.55360   76.814
 6071.00    1.61369   1.55715   -1.000
 6072.00    1.60006   1.55925   -1.000
 6073.00    1.57567   1.56032   78.804
 6074.00    1.57592   1.56004   79.136
 6075.00    1.56859   1.55770   79.573
 6076.00    1.56954   1.55336   80.077
 6077.00    1.56472   1.54763   80.683
 6078.00    1.55649   1.54208   81.032
 6079.00    1.55051   1.53815   81.036
 6080.00    1.54847   1.53554   81.166
 6081.00    1.54883   1.53337   81.350
 6082.00    1.54853   1.53122   81.298
 6083.00    1.54426   1.52947   81.230
 6084.00    1.54559   1.52915   81.099
 6085.00    1.54677   1.53089   80.820
 6086.00    1.54527   1.53411   80.622
 6087.00    1.54909   1.53716   80.930
 6088.00    1.55315   1.53853   81.411
 6089.00    1.54861   1.53811   81.625
 6090.00    1.54528   1.53685   81.407
 6091.00    1.54414   1.53637   80.868
 6092.00    1.54606   1.53752   80.470
 6093.00    1.54891   1.54033   80.034
 6094.00    1.55819   1.54408   79.807
 6095.00    1.56245   1.54784   79.924
 6096.00    1.56165   1.55086   80.096
 6097.00    1.56011   1.55185   80.115
 6098.00    1.55747   1.54912   80.387
 6099.00    1.55251   1.54061   81.741
 6100.00    1.54349   1.52605   -1.000
 6101.00    1.52955   1.50903   -1.000
 6102.00    1.50594   1.49618   83.264
 6103.00    1.50918   1.49387   81.687
 6104.00    1.52488   1.50212   -1.000
 6105.00    1.53952   1.51592   -1.000
 6106.00    1.54415   1.52957   81.082
 6107.00    1.54469   1.53988   81.196
 6108.00    1.54665   1.54684   81.099
 6109.00    1.55009   1.55119   80.859
 6110.00    1.54241   1.55361   80.581
 6111.00    1.54781   1.55498   80.487
 6112.00    1.55156   1.55605   80.073
 6113.00    1.55004   1.55715   80.057
 6114.00    1.55598   1.55801   80.480
 6115.00    1.55118   1.55799   80.912
 6116.00    1.54873   1.55665   81.056
 6117.00    1.54823   1.55319   81.711
 6118.00    1.55070   1.54578   82.945
 6119.00    1.53885   1.53317   83.915
 6120.00    1.52040   1.51621   84.478
 6121.00    1.50275   1.49933   84.053
 6122.00    1.49548   1.48899   82.630
 6123.00    1.50206   1.48857   81.914
 6124.00    1.52095   1.49745   -1.000
 6125.00    1.53006   1.51040   -1.000
 6126.00    1.53195   1.52260   82.292
 6127.00    1.53277   1.53148   81.971
 6128.00    1.53353   1.53784   81.217
 6129.00    1.54201   1.54362   80.619
 6130.00    1.54024   1.54953   80.608
 6131.00    1.54054   1.55432   80.965
 6132.00    1.54122   1.55506   82.102
 6133.00    1.53901   1.54813   84.239
 6134.00    1.51553   1.53200   86.684
 6135.00    1.48941   1.50972   88.259
 6136.00    1.46754   1.48843   87.589
 6137.00    1.45971   1.47542   85.083
 6138.00    1.47320   1.47272   83.103
 6139.00    1.49468   1.47696   -1.000
 6140.00    1.50257   1.48598   82.876
 6141.00    1.49857   1.49839   82.711
 6142.00    1.49828   1.51308   81.728
 6143.00    1.51403   1.52743   80.995
 6144.00    1.53718   1.53782   81.108
 6145.00    1.54130   1.54265   81.565
 6146.00    1.53522   1.54235   82.116
 6147.00    1.53612   1.53874   82.684
 6148.00    1.53555   1.53391   83.013
 6149.00    1.53358   1.52980   82.878
 6150.00    1.52560   1.52787   82.466
 6151.00    1.51813   1.52868   82.003
 6152.00    1.52370   1.53061   82.192
 6153.00    1.52757   1.53118   82.889
 6154.00    1.52603   1.52950   83.165
 6155.00    1.52210   1.52631   83.276
 6156.00    1.52069   1.52263   83.819
 6157.00    1.52342   1.51716   84.974
 6158.00    1.51608   1.50694   86.950
 6159.00    1.50370   1.48914   -1.000
 6160.00    1.48745   1.46524   -1.000
 6161.00    1.46029   1.44153   -1.000
 6162.00    1.43898   1.42635   89.823
 6163.00    1.44293   1.42472   -1.000
 6164.00    1.46379   1.43423   -1.000
 6165.00    1.48437   1.44810   -1.000
 6166.00    1.49320   1.45845   -1.000
 6167.00    1.48690   1.46195   -1.000
 6168.00    1.47085   1.46019   88.633
 6169.00    1.45867   1.45944   87.495
 6170.00    1.46905   1.46428   85.848
 6171.00    1.48569   1.47482   85.099
 6172.00    1.49799   1.48792   85.306
 6173.00    1.50617   1.49977   85.267
 6174.00    1.50866   1.50858   85.044
 6175.00    1.51173   1.51427   84.872
 6176.00    1.51627   1.51809   84.574
 6177.00    1.51632   1.52107   84.169
 6178.00    1.51883   1.52381   83.891
 6179.00    1.51773   1.52669   83.587
 6180.00    1.51924   1.52994   83.237
 6181.00    1.52460   1.53341   83.164
 6182.00    1.52726   1.53606   83.409
 6183.00    1.53067   1.53662   83.826
 6184.00    1.52843   1.53450   84.615
 6185.00    1.52373   1.53002   85.550
 6186.00    1.52355   1.52387   86.402
 6187.00    1.51505   1.51637   87.158
 6188.00    1.50833   1.50722   87.923
 6189.00    1.49740   1.49692   88.964
 6190.00    1.48565   1.48784   88.968
 6191.00    1.47562   1.48422   87.431
 6192.00    1.47985   1.48838   85.375
 6193.00    1.49963   1.49829   84.353
 6194.00    1.51036   1.51012   84.035
 6195.00    1.51733   1.52006   84.151
 6196.00    1.52044   1.52624   84.908
 6197.00    1.51561   1.52814   85.846
 6198.00    1.51233   1.52676   86.261
 6199.00    1.50887   1.52435   85.849
 6200.00    1.49645   1.52382   84.834
 6201.00    1.49327   1.52643   84.013
 6202.00    1.51081   1.53178   83.952
 6203.00    1.51602   1.53804   83.924
 6204.00    1.52249   1.54362   83.804
 6205.00    1.53625   1.54763   83.925
 6206.00    1.53654   1.55002   84.183
 6207.00    1.54027   1.55078   84.247
 6208.00    1.53813   1.54952   84.800
 6209.00    1.52823   1.54543   85.582
 6210.00    1.51947   1.53797   86.282
 6211.00    1.51448   1.52756   87.302
 6212.00    1.50862   1.51609   88.549
 6213.00    1.49462   1.50617   89.170
 6214.00    1.48899   1.49981   88.892
 6215.00    1.49013   1.49686   87.807
 6216.00    1.49819   1.49590   87.840
 6217.00    1.50790   1.49503   88.305
 6218.00    1.50067   1.49431   87.738
 6219.00    1.49245   1.49490   87.448
 6220.00    1.49283   1.49795   89.941
 6221.00    1.49961   1.50302   94.269
 6222.00    1.48809   1.50816   89.532
 6223.00    1.42174   1.51208   -1.000
 6224.00    1.49249   1.51396   86.947
 6225.00    1.52284   1.51352   87.098
 6226.00    1.51247   1.50993   87.869
 6227.00    1.51212   1.50226   89.226
 6228.00    1.50123   1.49087   90.621
 6229.00    1.48640   1.47848   91.245
 6230.00    1.47404   1.46959   90.395
 6231.00    1.47586   1.46793   88.885
 6232.00    1.48369   1.47382   87.243
 6233.00    1.49170   1.48426   86.179
 6234.00    1.50834   1.49431   86.196
 6235.00    1.52382   1.50053   -1.000
 6236.00    1.52283   1.50170   -1.000
 6237.00    1.51744   1.49932   -1.000
 6238.00    1.51094   1.49556   -1.000
 6239.00    1.49549   1.49196   89.715
 6240.00    1.48764   1.48852   89.867
 6241.00    1.48722   1.48436   90.590
 6242.00    1.48921   1.47855   90.956
 6243.00    1.48538   1.47153   -1.000
 6244.00    1.47743   1.46525   89.936
 6245.00    1.47941   1.46262   -1.000
 6246.00    1.48621   1.46603   -1.000
 6247.00    1.49492   1.47489   -1.000
 6248.00    1.50513   1.48553   -1.000
 6249.00    1.50963   1.49236   -1.000
 6250.00    1.50743   1.49204   -1.000
 6251.00    1.49564   1.48493   91.081
 6252.00    1.47811   1.47485   91.545
 6253.00    1.46511   1.46621   91.673
 6254.00    1.46167   1.46123   91.887
 6255.00    1.46291   1.45982   92.817
 6256.00    1.46664   1.46048   93.235
 6257.00    1.46839   1.46262   92.387
 6258.00    1.47102   1.46648   90.911
 6259.00    1.47619   1.47293   89.601
 6260.00    1.48413   1.48173   88.340
 6261.00    1.49242   1.49155   87.248
 6262.00    1.49795   1.50035   87.271
 6263.00    1.50066   1.50663   88.032
 6264.00    1.50144   1.51070   88.275
 6265.00    1.50381   1.51369   87.704
 6266.00    1.50547   1.51625   87.357
 6267.00    1.50226   1.51774   87.808
 6268.00    1.50028   1.51734   88.073
 6269.00    1.50524   1.51553   87.840
 6270.00    1.50743   1.51372   87.556
 6271.00    1.50362   1.51221   87.502
 6272.00    1.50202   1.50976   87.906
 6273.00    1.49989   1.50387   88.604
 6274.00    1.47991   1.49382   89.548
 6275.00    1.45041   1.48101   91.327
 6276.00    1.42704   1.46847   93.512
 6277.00    1.41493   1.45897   94.770
 6278.00    1.40921   1.45401   94.957
 6279.00    1.40134   1.45431   -1.000
 6280.00    1.39724   1.46003   -1.000
 6281.00    1.39283   1.47009   -1.000
 6282.00    1.40069   1.48259   -1.000
 6283.00    1.42017   1.49489   -1.000
 6284.00    1.44149   1.50515   -1.000
 6285.00    1.46274   1.51236   87.260
 6286.00    1.47792   1.51640   86.813
 6287.00    1.48840   1.51747   86.885
 6288.00    1.49235   1.51589   87.495
 6289.00    1.49799   1.51263   88.230
 6290.00    1.50291   1.50914   88.718
 6291.00    1.49829   1.50652   88.820
 6292.00    1.50006   1.50504   88.935
 6293.00    1.49259   1.50380   89.273
 6294.00    1.47310   1.50153   89.984
 6295.00    1.45245   1.49736   90.411
 6296.00    1.42145   1.49180   -1.000
 6297.00    1.37943   1.48623   -1.000
 6298.00    1.34567   1.48161   -1.000
 6299.00    1.39708   1.47805   -1.000
 6300.00    1.51700   1.47589   -1.000
 6301.00    1.59719   1.47669   -1.000
 6302.00    1.57830   1.48219   -1.000
 6303.00    1.51041   1.49194   -1.000
 6304.00    1.50326   1.50333   87.711
 6305.00    1.50424   1.51327   86.971
 6306.00    1.50078   1.52002   86.383
 6307.00    1.50409   1.52351   86.474
 6308.00    1.51076   1.52461   86.964
 6309.00    1.51541   1.52433   87.487
 6310.00    1.50942   1.52294   87.806
 6311.00    1.49976   1.52031   88.082
 6312.00    1.49373   1.51607   88.376
 6313.00    1.48440   1.51045   89.104
 6314.00    1.47720   1.50427   89.243
 6315.00    1.47435   1.49854   89.147
 6316.00    1.46891   1.49451   89.132
 6317.00    1.46425   1.49343   89.127
 6318.00    1.46482   1.49629   88.507
 6319.00    1.47552   1.50268   87.441
 6320.00    1.48877   1.51084   86.783
 6321.00    1.49646   1.51891   86.506
 6322.00    1.49836   1.52632   86.155
 6323.00    1.49946   1.53298   85.736
 6324.00    1.50509   1.53832   85.560
 6325.00    1.51339   1.54167   85.404
 6326.00    1.51271   1.54289   85.106
 6327.00    1.51393   1.54286   85.230
 6328.00    1.51372   1.54249   85.282
 6329.00    1.52177   1.54225   85.219
 6330.00    1.52252   1.54189   84.932
 6331.00    1.52209   1.54042   84.933
 6332.00    1.51771   1.53634   85.189
 6333.00    1.50580   1.52899   85.979
 6334.00    1.44638   1.51968   -1.000
 6335.00    1.39785   1.51170   -1.000
 6336.00    1.46354   1.50837   86.423
 6337.00    1.48119   1.51081   85.511
 6338.00    1.49706   1.51764   84.737
 6339.00    1.50645   1.52615   84.368
 6340.00    1.50970   1.53352   84.107
 6341.00    1.51043   1.53772   84.445
 6342.00    1.50683   1.53831   85.054
 6343.00    1.50266   1.53627   84.995
 6344.00    1.49964   1.53368   84.662
 6345.00    1.50141   1.53271   84.141
 6346.00    1.49815   1.53486   83.630
 6347.00    1.49753   1.54031   83.448
 6348.00    1.50252   1.54743   83.424
 6349.00    1.50725   1.55384   83.308
 6350.00    1.51128   1.55752   83.504
 6351.00    1.51041   1.55765   83.893
 6352.00    1.50894   1.55462   84.472
 6353.00    1.50237   1.54965   85.416
 6354.00    1.49372   1.54425   85.895
 6355.00    1.48671   1.53944   85.950
 6356.00    1.48004   1.53529   86.468
 6357.00    1.47550   1.53152   87.311
 6358.00    1.47072   1.52810   -1.000
 6359.00    1.47016   1.52510   87.004
 6360.00    1.45637   1.52244   -1.000
 6361.00    1.44530   1.52026   -1.000
 6362.00    1.45122   1.51913   -1.000
 6363.00    1.49002   1.51981   85.667
 6364.00    1.52780   1.52255   85.153
 6365.00    1.53097   1.52673   84.674
 6366.00    1.52115   1.53124   84.118
 6367.00    1.50848   1.53472   83.670
 6368.00    1.50615   1.53656   83.574
 6369.00    1.49933   1.53732   83.538
 6370.00    1.49939   1.53846   83.210
 6371.00    1.50473   1.54101   83.064
 6372.00    1.50592   1.54469   83.275
 6373.00    1.49707   1.54802   83.362
 6374.00    1.48881   1.54943   -1.000
 6375.00    1.48983   1.54839   83.956
 6376.00    1.48500   1.54538   -1.000
 6377.00    1.48009   1.54157   -1.000
 6378.00    1.48292   1.53781   85.157
 6379.00    1.47865   1.53461   85.232
 6380.00    1.47442   1.53210   85.344
 6381.00    1.46728   1.53056   -1.000
 6382.00    1.46895   1.53034   -1.000
 6383.00    1.47408   1.53177   85.583
 6384.00    1.46510   1.53461   -1.000
 6385.00    1.46227   1.53803   -1.000
 6386.00    1.47004   1.54080   -1.000
 6387.00    1.46663   1.54218   -1.000
 6388.00    1.45817   1.54176   -1.000
 6389.00    1.45172   1.53924   -1.000
 6390.00    1.44038   1.53417   -1.000
 6391.00    1.42912   1.52722   -1.000
 6392.00    1.41628   1.52087   -1.000
 6393.00    1.40876   1.51819   -1.000
 6394.00    1.40241   1.52041   -1.000
 6395.00    1.40268   1.52526   -1.000
 6396.00    1.40727   1.52853   -1.000
 6397.00    1.40663   1.52719   -1.000
 6398.00    1.38824   1.52203   -1.000
 6399.00    1.36651   1.51722   -1.000
 6400.00    1.36278   1.51690   -1.000
 6401.00    1.36597   1.52235   -1.000
 6402.00    1.37198   1.53110   -1.000
 6403.00    1.37836   1.53901   -1.000
 6404.00    1.37883   1.54277   -1.000
 6405.00    1.37105   1.54158   -1.000
 6406.00    1.35559   1.53732   -1.000
 6407.00    1.34195   1.53282   -1.000
 6408.00    1.32679   1.52998   -1.000
 6409.00    1.31934   1.52870   -1.000
 6410.00    1.31441   1.52858   -1.000
 6411.00    1.30214   1.52966   -1.000
 6412.00    1.29623   1.53222   -1.000
 6413.00    1.30091   1.53571   -1.000
 6414.00    1.29535   1.53900   -1.000
 6415.00    1.28518   1.54108   -1.000
 6416.00    1.28375   1.54118   -1.000
 6417.00    1.27401   1.53868   -1.000
 6418.00    1.25525   1.53384   -1.000
 6419.00    1.23996   1.52855   -1.000
 6420.00    1.22217   1.52594   -1.000
 6421.00    1.21171   1.52855   -1.000
 6422.00    1.20789   1.53622   -1.000
 6423.00    1.20725   1.54634   -1.000
 6424.00    1.19929   1.55587   -1.000
 6425.00    1.19606   1.56233   -1.000
 6426.00    1.19590   1.56439   -1.000
 6427.00    1.18079   1.56120   -1.000
 6428.00    1.16056   1.55336   -1.000
