###################################################################
## OUTPUT of StarlightChains_v04.for    [Cid@UFSC - 01/Apr/2007] ##
###################################################################

## Some input info
NGC6624_a_2.cxt                          [arq_obs]
Base.BC03.N                              [arq_base]
NGC6624_a_2.msk                          [arq_masks]
StCv04.C11.config                        [arq_config]
   45                                    [N_base]
    0                                    [N_YAV_components = # of components with extra extinction!]
    0                                    [i_FitPowerLaw (1/0 = Yes/No)]
-9.99                                    [alpha_PowerLaw]
CCM                                      [red_law_option]
 1.458241                                [q_norm = A(l_norm)/A(V)]

## (Re)Sampling Parameters
 3359.00                                 [l_ini (A)]
 6428.00                                 [l_fin (A)]
    1.00                                 [dl    (A)]     (OBS: dl_cushion =    50.00 A)

## Normalization info
 4020.00                                 [l_norm (A) - for base]
 4010.00                                 [llow_norm (A) - window for f_obs]
 4060.00                                 [lupp_norm (A) - window for f_obs]
2.206219E-14                             [fobs_norm (in input units)]

## S/N
 4730.00                                 [llow_SN (A) - window for S/N]
 4780.00                                 [lupp_SN (A) - window for S/N]
  40.676                                 [S/N in S/N window]
  27.417                                 [S/N in norm. window]
 123.712                                 [S/N_err in S/N window]
  83.385                                 [S/N_err in norm. window]
  1.0000                                 [fscale_chi2]

## etc...
  2147483596                             [idum_orig]
  3068                                   [NOl_eff]
  1074                                   [Nl_eff]
  1994    NSIGMA                         [Ntot_cliped & clip_method]
   912800                                [Nglobal_steps]
   7                                     [N_chains]
  13                                     [NEX0s_base = N_base in EX0s-fits]
 0   0   1      121   2.0   9.130E+02    [Clip-Bug, RC-Crash & Burn-In warning-flags, n_censored_weights, wei_nsig_threshold & wei_limit]
    10     10.285     10.281      0.004  [idt_all, wdt_TotTime, wdt_UsrTime & wdt_SysTime (sec)]

## Synthesis Results - Best model ##

 2.73665E+00                             [chi2/Nl_eff]
     1.33088                             [adev (%)]

    97.89046                             [sum-of-x (%)]
 5.37688E-14                             [Flux_tot (units of input spectrum!)]
 1.92805E-09                             [Mini_tot (???)]
 9.80643E-10                             [Mcor_tot (???)]

  24.26                                  [v0_min  (km/s)]
  58.55                                  [vd_min  (km/s)]
 0.6791                                  [AV_min  (mag)]
 0.0000                                  [YAV_min (mag)]

# j     x_j(%)      Mini_j(%)     Mcor_j(%)     age_j(yr)     Z_j      (L/M)_j    YAV?  Mstars   component_j        a/Fe...       SSP_chi2r SSP_adev(%)   SSP_AV   SSP_x(%)
  1      0.0000     0.0000E+00    0.0000E+00    1.000000E+06  0.00400  1.114E-02    0   1.0000   age020_m42            0.0000     1.0948E+03    24.1967   4.0000    86.0530
  2      0.0000     0.0000E+00    0.0000E+00    3.160000E+06  0.00400  4.073E-02    0   0.9999   age045_m42            0.0000     2.0366E+02    11.9005   3.8278    90.1387
  3      0.0000     0.0000E+00    0.0000E+00    5.010000E+06  0.00400  2.534E-02    0   0.9488   age055_m42            0.0000     3.5097E+02    14.5418   4.0000    87.8076
  4      0.0000     0.0000E+00    0.0000E+00    1.000000E+07  0.00400  1.271E-02    0   0.8862   age070_m42            0.0000     2.8466E+02    14.4820   3.4560    87.2499
  5      0.0000     0.0000E+00    0.0000E+00    2.512000E+07  0.00400  5.070E-03    0   0.8174   age090_m42            0.0000     2.6511E+02    13.9268   3.3244    88.8231
  6      0.0000     0.0000E+00    0.0000E+00    4.000000E+07  0.00400  3.505E-03    0   0.7851   age104_m42            0.0000     2.0979E+02    12.2131   3.0074    91.8148
  7      0.0000     0.0000E+00    0.0000E+00    1.015200E+08  0.00400  2.268E-03    0   0.7207   age116_m42            0.0000     3.0391E+02    11.8016   2.8914   105.3646
  8      0.0000     0.0000E+00    0.0000E+00    2.861200E+08  0.00400  1.079E-03    0   0.6613   age125_m42            0.0000     3.0494E+02    11.4034   2.3917   107.8360
  9      0.0000     0.0000E+00    0.0000E+00    6.405400E+08  0.00400  5.077E-04    0   0.6197   age132_m42            0.0000     3.2230E+02    11.3220   2.0015   113.0526
 10      0.0000     0.0000E+00    0.0000E+00    9.047900E+08  0.00400  3.535E-04    0   0.6024   age135_m42            0.0000     2.2347E+02     9.6058   1.7745   111.7292
 11      0.0007     1.1033E-04    1.2400E-04    1.434000E+09  0.00400  1.910E-04    0   0.5716   age139_m42            0.0000     1.0499E+02     6.3565   1.2780   109.1605
 12      1.0226     2.9674E-01    3.1872E-01    2.500000E+09  0.00400  9.818E-05    0   0.5463   age150_m42            0.0000     2.7454E+01     3.3086   1.0383   102.9542
 13     29.7200     1.7946E+01    1.8446E+01    5.000000E+09  0.00400  4.718E-05    0   0.5228   age161_m42            0.0000     8.3710E+00     2.0112   0.8903    98.9184
 14     51.6104     6.6681E+01    6.5288E+01    1.100000E+10  0.00400  2.205E-05    0   0.4980   age185_m42            0.0000     3.8462E+00     1.6386   0.6368    96.4635
 15      0.7057     1.0677E+00    1.0343E+00    1.300000E+10  0.00400  1.883E-05    0   0.4927   age193_m42            0.0000     5.0055E+00     1.8646   0.6211    96.2686
 16      0.0000     0.0000E+00    0.0000E+00    1.000000E+06  0.02000  1.989E-02    0   1.0000   age020_m62            0.0000     1.0309E+03    23.4290   4.0000    86.5502
 17      0.0000     0.0000E+00    0.0000E+00    3.160000E+06  0.02000  3.772E-02    0   0.9858   age045_m62            0.0000     8.1222E+02    21.1546   4.0000    87.5524
 18      0.0000     0.0000E+00    0.0000E+00    5.010000E+06  0.02000  3.227E-02    0   0.9342   age055_m62            0.0000     2.5891E+02    13.5466   4.0000    88.3923
 19      1.4088     3.9697E-03    6.8301E-03    1.000000E+07  0.02000  1.011E-02    0   0.8751   age070_m62            0.0000     4.8069E+02    18.1030   3.5108    82.1836
 20      0.0000     0.0000E+00    0.0000E+00    2.512000E+07  0.02000  4.206E-03    0   0.8099   age090_m62            0.0000     3.9198E+02    16.2295   3.4487    82.8782
 21      0.0000     0.0000E+00    0.0000E+00    4.000000E+07  0.02000  3.373E-03    0   0.7799   age104_m62            0.0000     2.2874E+02    12.7492   3.2012    93.7598
 22      0.0000     0.0000E+00    0.0000E+00    1.015200E+08  0.02000  1.878E-03    0   0.7221   age116_m62            0.0000     2.8556E+02    12.0884   2.9343   105.0496
 23      0.0000     0.0000E+00    0.0000E+00    2.861200E+08  0.02000  8.869E-04    0   0.6700   age125_m62            0.0000     4.5367E+02    12.9362   2.3807   113.7196
 24      0.0000     0.0000E+00    0.0000E+00    6.405400E+08  0.02000  3.657E-04    0   0.6322   age132_m62            0.0000     2.9221E+02     9.9823   1.7051   116.7252
 25      0.0000     0.0000E+00    0.0000E+00    9.047900E+08  0.02000  2.312E-04    0   0.6152   age135_m62            0.0000     1.6779E+02     7.5623   1.3480   114.9292
 26      0.0000     0.0000E+00    0.0000E+00    1.434000E+09  0.02000  1.168E-04    0   0.5865   age139_m62            0.0000     4.5466E+01     4.2263   0.9770   107.1707
 27      1.8926     9.7942E-01    1.0803E+00    2.500000E+09  0.02000  5.505E-05    0   0.5610   age150_m62            0.0000     1.7361E+01     2.8077   0.6185   103.5895
 28      1.4764     1.6202E+00    1.7052E+00    5.000000E+09  0.02000  2.596E-05    0   0.5353   age161_m62            0.0000     3.6083E+01     4.3409   0.2859   103.4596
 29      0.0058     1.4232E-02    1.4279E-02    1.100000E+10  0.02000  1.169E-05    0   0.5103   age185_m62            0.0000     8.2148E+01     6.6286  -0.0795   104.7816
 30      0.5469     1.6078E+00    1.5954E+00    1.300000E+10  0.02000  9.691E-06    0   0.5047   age193_m62            0.0000     9.2071E+01     7.0064  -0.1241   104.9632
 31      0.0000     0.0000E+00    0.0000E+00    1.000000E+06  0.05000  2.651E-02    0   0.9998   age020_m72            0.0000     1.0029E+03    23.0622   4.0000    87.6348
 32      0.0000     0.0000E+00    0.0000E+00    3.160000E+06  0.05000  4.817E-02    0   0.9577   age045_m72            0.0000     5.5512E+02    17.9172   4.0000    89.7584
 33      0.0000     0.0000E+00    0.0000E+00    5.010000E+06  0.05000  3.101E-02    0   0.9147   age055_m72            0.0000     3.3279E+02    14.6544   4.0000    86.4932
 34      0.0000     0.0000E+00    0.0000E+00    1.000000E+07  0.05000  8.954E-03    0   0.8524   age070_m72            0.0000     4.3437E+02    15.8687   4.0000    89.2947
 35      0.0000     0.0000E+00    0.0000E+00    2.512000E+07  0.05000  4.207E-03    0   0.7902   age090_m72            0.0000     2.3002E+02    12.7087   3.9128    88.8381
 36      0.0000     0.0000E+00    0.0000E+00    4.000000E+07  0.05000  3.198E-03    0   0.7618   age104_m72            0.0000     2.2651E+02    11.4205   3.3363    99.5084
 37      0.0000     0.0000E+00    0.0000E+00    1.015200E+08  0.05000  1.716E-03    0   0.7092   age116_m72            0.0000     3.2034E+02    12.2774   3.0133   105.6123
 38      0.0000     0.0000E+00    0.0000E+00    2.861200E+08  0.05000  7.047E-04    0   0.6618   age125_m72            0.0000     4.3170E+02    11.9831   2.1715   114.2333
 39      0.0000     0.0000E+00    0.0000E+00    6.405400E+08  0.05000  2.633E-04    0   0.6253   age132_m72            0.0000     2.1931E+02     8.4349   1.3328   115.9088
 40      0.0000     0.0000E+00    0.0000E+00    9.047900E+08  0.05000  1.484E-04    0   0.6088   age135_m72            0.0000     7.6323E+01     5.3395   0.8878   109.0573
 41      0.1096     3.9897E-02    4.5865E-02    1.434000E+09  0.05000  7.827E-05    0   0.5847   age139_m72            0.0000     3.8819E+01     3.9618   0.5157   104.6137
 42      6.9645     5.2783E+00    5.7938E+00    2.500000E+09  0.05000  3.759E-05    0   0.5583   age150_m72            0.0000     4.7369E+01     4.8888   0.2009   103.4221
 43      2.4263     4.4652E+00    4.6705E+00    5.000000E+09  0.05000  1.548E-05    0   0.5320   age161_m72            0.0000     8.8601E+01     6.6393  -0.2078   102.9729
 44      0.0000     0.0000E+00    0.0000E+00    1.100000E+10  0.05000  6.532E-06    0   0.5070   age185_m72            0.0000     1.6718E+02     8.9498  -0.5929   102.8255
 45      0.0000     0.0000E+00    0.0000E+00    1.300000E+10  0.05000  5.316E-06    0   0.5018   age193_m72            0.0000     2.0589E+02     9.8787  -0.7147   102.9597


## Synthesis Results - Average & Chains ##

# j      x_j: min, <> & last-chain-values for 1 ...  7 chains
  1      0.0000      0.0325      0.0000      0.0000      0.0000      0.0000      0.0000      0.0000      0.0000
  2      0.0000      0.2597      0.1549      0.4590      0.2365      0.5656      0.4261      0.3375      0.3716
  3      0.0000      0.0504      0.2018      0.0607      0.0505      0.0686      0.0866      0.1366      0.0000
  4      0.0000      0.0812      0.0000      0.1937      0.0520      0.0000      0.0000      0.0000      0.0507
  5      0.0000      0.2217      0.0000      0.2548      0.0000      0.5606      0.5209      0.0629      0.4171
  6      0.0000      0.0192      0.0000      0.0000      0.0000      0.0000      0.0633      0.0000      0.0000
  7      0.0000      0.0194      0.0000      0.0000      0.0000      0.0000      0.0755      0.0000      0.0000
  8      0.0000      0.0211      0.0000      0.0010      0.0230      0.0000      0.0000      0.0000      0.0000
  9      0.0000      0.0328      0.0100      0.0000      0.0000      0.0000      0.0000      0.0000      0.0000
 10      0.0000      0.1912      0.2680      0.1311      0.4509      0.0000      0.0000      0.0000      0.0000
 11      0.0007      0.6715      0.5736      0.6834      0.5446      0.6023      0.5642      0.6437      0.1494
 12      1.0226      2.4164      2.7283      1.7644      2.3378      2.8369      2.7336      1.8209      3.3463
 13     29.7200     20.8672     20.7931     21.8396     22.1780     21.2243     21.7962     22.2860     20.8226
 14     51.6104     48.5263     48.6085     48.7408     47.7322     49.0160     47.5731     48.3489     48.3786
 15      0.7057     10.0230      9.8816      9.5191      9.6418      9.0871      9.1503      8.9520      9.6480
 16      0.0000      0.0954      0.1615      0.1463      0.0000      0.0000      0.1932      0.0087      0.2230
 17      0.0000      0.0818      0.0000      0.1857      0.0000      0.0000      0.0000      0.0000      0.1871
 18      0.0000      0.1322      0.1591      0.4100      0.3818      0.0695      0.1083      0.2491      0.1141
 19      1.4088      0.2471      0.3597      0.0365      0.2050      0.3747      0.4276      0.5700      0.3480
 20      0.0000      0.0433      0.0000      0.0000      0.0000      0.0350      0.0000      0.0000      0.0000
 21      0.0000      0.0174      0.0000      0.0000      0.0000      0.0000      0.0000      0.0000      0.0340
 22      0.0000      0.0187      0.0000      0.0000      0.0000      0.0035      0.0000      0.0000      0.0000
 23      0.0000      0.0083      0.0368      0.0000      0.0000      0.0000      0.0000      0.0000      0.0000
 24      0.0000      0.0144      0.0000      0.0000      0.0000      0.0490      0.0000      0.0000      0.0000
 25      0.0000      0.0446      0.0000      0.0000      0.0000      0.0000      0.0000      0.0000      0.0000
 26      0.0000      0.5012      0.4797      0.0000      0.0232      0.6300      0.2359      0.4951      0.6351
 27      1.8926      2.9567      3.9481      2.9469      3.1424      2.9766      3.3062      3.4585      2.6581
 28      1.4764      0.6626      0.0000      0.5631      0.9004      0.2518      1.3434      1.0529      0.6334
 29      0.0058      1.1728      1.0292      1.1902      1.0138      1.0765      0.8380      0.9592      0.9668
 30      0.5469      3.3159      3.1494      3.3213      3.2784      3.3114      3.5708      2.8717      2.5680
 31      0.0000      0.0493      0.2056      0.0000      0.1739      0.0000      0.0211      0.0000      0.0000
 32      0.0000      0.0512      0.0000      0.0000      0.0000      0.0000      0.0139      0.0497      0.0000
 33      0.0000      0.0903      0.1162      0.0824      0.0631      0.1395      0.0000      0.0466      0.0000
 34      0.0000      0.1461      0.0000      0.0000      0.4998      0.0000      0.0692      0.2033      0.0000
 35      0.0000      0.0306      0.1589      0.0017      0.0000      0.1104      0.0000      0.0000      0.0000
 36      0.0000      0.0150      0.0000      0.0000      0.0000      0.0000      0.0000      0.0000      0.0000
 37      0.0000      0.0183      0.0000      0.0000      0.0000      0.0000      0.0000      0.0347      0.0000
 38      0.0000      0.0129      0.0000      0.0000      0.0000      0.0000      0.0000      0.0000      0.0456
 39      0.0000      0.0317      0.0084      0.0197      0.0000      0.0000      0.0000      0.0000      0.0000
 40      0.0000      0.0889      0.1645      0.0762      0.0240      0.0000      0.0000      0.0000      0.0000
 41      0.1096      1.4063      0.4025      1.8978      1.4342      0.6378      1.3651      1.5305      2.3964
 42      6.9645      2.1833      3.5059      2.5132      2.7382      3.3874      2.1136      2.8727      2.1750
 43      2.4263      0.9372      0.8585      0.8787      0.7366      0.9825      1.3830      1.0180      1.7516
 44      0.0000      0.1522      0.0000      0.0000      0.1326      0.0000      0.0000      0.0000      0.0000
 45      0.0000      0.0445      0.0000      0.0000      0.0000      0.0000      0.0000      0.0000      0.0000

# j      m_j: min, <> & last-chain-values for 1 ...  7 chains
  1  0.0000E+00  1.4836E-04  0.0000E+00  0.0000E+00  0.0000E+00  0.0000E+00  0.0000E+00  0.0000E+00  0.0000E+00
  2  0.0000E+00  3.2403E-04  1.9592E-04  5.7703E-04  2.9856E-04  7.1392E-04  5.3731E-04  4.3040E-04  4.7391E-04
  3  0.0000E+00  9.5935E-05  3.8921E-04  1.1634E-04  9.7226E-05  1.3206E-04  1.6664E-04  2.6566E-04  0.0000E+00
  4  0.0000E+00  2.8793E-04  0.0000E+00  6.9171E-04  1.8663E-04  0.0000E+00  0.0000E+00  0.0000E+00  1.8375E-04
  5  0.0000E+00  1.8172E-03  0.0000E+00  2.1035E-03  0.0000E+00  4.6477E-03  4.3143E-03  5.2637E-04  3.4938E-03
  6  0.0000E+00  2.1836E-04  0.0000E+00  0.0000E+00  0.0000E+00  0.0000E+00  7.2873E-04  0.0000E+00  0.0000E+00
  7  0.0000E+00  3.1397E-04  0.0000E+00  0.0000E+00  0.0000E+00  0.0000E+00  1.2325E-03  0.0000E+00  0.0000E+00
  8  0.0000E+00  6.5811E-04  0.0000E+00  3.0911E-05  7.2380E-04  0.0000E+00  0.0000E+00  0.0000E+00  0.0000E+00
  9  0.0000E+00  2.0323E-03  6.2849E-04  0.0000E+00  0.0000E+00  0.0000E+00  0.0000E+00  0.0000E+00  0.0000E+00
 10  0.0000E+00  1.6561E-02  2.3527E-02  1.1440E-02  3.9521E-02  0.0000E+00  0.0000E+00  0.0000E+00  0.0000E+00
 11  1.2400E-04  1.0215E-01  8.8427E-02  1.0474E-01  8.3828E-02  9.2681E-02  8.6730E-02  1.0006E-01  2.3231E-02
 12  3.1872E-01  6.8342E-01  7.8205E-01  5.0276E-01  6.6901E-01  8.1165E-01  7.8133E-01  5.2627E-01  9.6738E-01
 13  1.8446E+01  1.1753E+01  1.1870E+01  1.2393E+01  1.2639E+01  1.2093E+01  1.2407E+01  1.2827E+01  1.1988E+01
 14  6.5288E+01  5.5707E+01  5.6555E+01  5.6374E+01  5.5444E+01  5.6922E+01  5.5192E+01  5.6717E+01  5.6768E+01
 15  1.0343E+00  1.3330E+01  1.3320E+01  1.2755E+01  1.2975E+01  1.2226E+01  1.2299E+01  1.2166E+01  1.3116E+01
 16  0.0000E+00  2.4372E-04  4.1823E-04  3.7667E-04  0.0000E+00  0.0000E+00  4.9909E-04  2.2771E-05  5.8261E-04
 17  0.0000E+00  1.0873E-04  0.0000E+00  2.4857E-04  0.0000E+00  0.0000E+00  0.0000E+00  0.0000E+00  2.5403E-04
 18  0.0000E+00  1.9456E-04  2.3722E-04  6.0790E-04  5.6845E-04  1.0346E-04  1.6110E-04  3.7452E-04  1.7154E-04
 19  6.8301E-03  1.0870E-03  1.6038E-03  1.6177E-04  9.1271E-04  1.6675E-03  1.9014E-03  2.5628E-03  1.5650E-03
 20  0.0000E+00  4.2352E-04  0.0000E+00  0.0000E+00  0.0000E+00  3.4610E-04  0.0000E+00  0.0000E+00  0.0000E+00
 21  0.0000E+00  2.0393E-04  0.0000E+00  0.0000E+00  0.0000E+00  0.0000E+00  0.0000E+00  0.0000E+00  4.0864E-04
 22  0.0000E+00  3.6502E-04  0.0000E+00  0.0000E+00  0.0000E+00  6.8434E-05  0.0000E+00  0.0000E+00  0.0000E+00
 23  0.0000E+00  3.1819E-04  1.4337E-03  0.0000E+00  0.0000E+00  0.0000E+00  0.0000E+00  0.0000E+00  0.0000E+00
 24  0.0000E+00  1.2690E-03  0.0000E+00  0.0000E+00  0.0000E+00  4.3539E-03  0.0000E+00  0.0000E+00  0.0000E+00
 25  0.0000E+00  6.0361E-03  0.0000E+00  0.0000E+00  0.0000E+00  0.0000E+00  0.0000E+00  0.0000E+00  0.0000E+00
 26  0.0000E+00  1.2792E-01  1.2410E-01  0.0000E+00  5.9891E-03  1.6267E-01  6.0842E-02  1.2913E-01  1.6570E-01
 27  1.0803E+00  1.5315E+00  2.0727E+00  1.5379E+00  1.6470E+00  1.5597E+00  1.7308E+00  1.8306E+00  1.4073E+00
 28  1.7052E+00  6.9450E-01  0.0000E+00  5.9461E-01  9.5490E-01  2.6703E-01  1.4229E+00  1.1277E+00  6.7860E-01
 29  1.4279E-02  2.6023E+00  2.3144E+00  2.6608E+00  2.2759E+00  2.4162E+00  1.8790E+00  2.1749E+00  2.1926E+00
 30  1.5954E+00  8.7776E+00  8.4497E+00  8.8581E+00  8.7812E+00  8.8675E+00  9.5528E+00  7.7681E+00  6.9485E+00
 31  0.0000E+00  9.4539E-05  3.9954E-04  0.0000E+00  3.3721E-04  0.0000E+00  4.0784E-05  0.0000E+00  0.0000E+00
 32  0.0000E+00  5.1711E-05  0.0000E+00  0.0000E+00  0.0000E+00  0.0000E+00  1.4222E-05  5.1342E-05  0.0000E+00
 33  0.0000E+00  1.3534E-04  1.7655E-04  1.2444E-04  9.5774E-05  2.1163E-04  0.0000E+00  7.1380E-05  0.0000E+00
 34  0.0000E+00  7.0678E-04  0.0000E+00  0.0000E+00  2.4471E-03  0.0000E+00  3.3859E-04  1.0050E-03  0.0000E+00
 35  0.0000E+00  2.9233E-04  1.5380E-03  1.6819E-05  0.0000E+00  1.0659E-03  0.0000E+00  0.0000E+00  0.0000E+00
 36  0.0000E+00  1.8207E-04  0.0000E+00  0.0000E+00  0.0000E+00  0.0000E+00  0.0000E+00  0.0000E+00  0.0000E+00
 37  0.0000E+00  3.8425E-04  0.0000E+00  0.0000E+00  0.0000E+00  0.0000E+00  0.0000E+00  7.4407E-04  0.0000E+00
 38  0.0000E+00  6.1787E-04  0.0000E+00  0.0000E+00  0.0000E+00  0.0000E+00  0.0000E+00  0.0000E+00  2.2257E-03
 39  0.0000E+00  3.8322E-03  1.0266E-03  2.3946E-03  0.0000E+00  0.0000E+00  0.0000E+00  0.0000E+00  0.0000E+00
 40  0.0000E+00  1.8545E-02  3.4760E-02  1.6009E-02  5.0665E-03  0.0000E+00  0.0000E+00  0.0000E+00  0.0000E+00
 41  4.5865E-02  5.3396E-01  1.5491E-01  7.2601E-01  5.5101E-01  2.4499E-01  5.2383E-01  5.9385E-01  9.3008E-01
 42  5.7938E+00  1.6483E+00  2.6825E+00  1.9115E+00  2.0916E+00  2.5869E+00  1.6126E+00  2.2161E+00  1.6783E+00
 43  4.6705E+00  1.6370E+00  1.5200E+00  1.5465E+00  1.3019E+00  1.7362E+00  2.4415E+00  1.8172E+00  3.1275E+00
 44  0.0000E+00  6.0030E-01  0.0000E+00  0.0000E+00  5.2935E-01  0.0000E+00  0.0000E+00  0.0000E+00  0.0000E+00
 45  0.0000E+00  2.1330E-01  0.0000E+00  0.0000E+00  0.0000E+00  0.0000E+00  0.0000E+00  0.0000E+00  0.0000E+00

# AV, chi2 & Mass for <> & i_chain = 1 ...  7 solutions
AV       0.6791      0.6769      0.6792      0.6790      0.6806      0.6792      0.6784      0.6776      0.6791
chi2 2.7366E+00  2.7848E+00  2.7757E+00  2.7754E+00  2.7729E+00  2.7735E+00  2.7750E+00  2.7707E+00  2.7719E+00
Mass 9.8064E-10  1.0774E-09  1.0663E-09  1.0723E-09  1.0701E-09  1.0683E-09  1.0682E-09  1.0554E-09  1.0571E-09
  24.26                                  [v0_min (km/s) before EX0s...]
  58.55                                  [vd_min (km/s) before EX0s...]


## Synthetic spectrum (Best Model) ##l_obs f_obs f_syn wei
 3070    [Nl_obs]
 3359.00    0.00000   0.39488   -2.000
 3360.00    0.20982   0.35262   -1.000
 3361.00    0.20046   0.33668   -1.000
 3362.00    0.21303   0.35615   -1.000
 3363.00    0.23808   0.39886   -1.000
 3364.00    0.25035   0.43928   -1.000
 3365.00    0.26056   0.45797   -1.000
 3366.00    0.26363   0.44927   -1.000
 3367.00    0.26655   0.41994   -1.000
 3368.00    0.26008   0.38834   -1.000
 3369.00    0.25464   0.36857   -1.000
 3370.00    0.25124   0.35948   -1.000
 3371.00    0.23475   0.35542   -1.000
 3372.00    0.24329   0.35629   -1.000
 3373.00    0.25037   0.36988   -1.000
 3374.00    0.25746   0.39970   -1.000
 3375.00    0.28303   0.44071   -1.000
 3376.00    0.30889   0.47497   -1.000
 3377.00    0.32365   0.48142   -1.000
 3378.00    0.32429   0.45989   -1.000
 3379.00    0.30359   0.42644   -1.000
 3380.00    0.29925   0.40087   -1.000
 3381.00    0.30329   0.39629   -1.000
 3382.00    0.31095   0.41298   -1.000
 3383.00    0.31724   0.43600   -1.000
 3384.00    0.31761   0.45273   -1.000
 3385.00    0.32214   0.46601   -1.000
 3386.00    0.32848   0.47633   -1.000
 3387.00    0.33233   0.47920   -1.000
 3388.00    0.33578   0.47676   -1.000
 3389.00    0.33874   0.47338   -1.000
 3390.00    0.35188   0.46831   -1.000
 3391.00    0.35670   0.45825   -1.000
 3392.00    0.34662   0.44141   -1.000
 3393.00    0.34049   0.42783   -1.000
 3394.00    0.34864   0.43209   -1.000
 3395.00    0.36439   0.45471   -1.000
 3396.00    0.38660   0.48476   -1.000
 3397.00    0.39822   0.51323   -1.000
 3398.00    0.41564   0.53316   -1.000
 3399.00    0.44000   0.53909   -1.000
 3400.00    0.45019   0.53271   -1.000
 3401.00    0.44473   0.51964   -1.000
 3402.00    0.43570   0.50214   -1.000
 3403.00    0.42159   0.48448   -1.000
 3404.00    0.42068   0.47282   -1.000
 3405.00    0.41551   0.46651   -1.000
 3406.00    0.40945   0.45940   -1.000
 3407.00    0.40106   0.45118   -1.000
 3408.00    0.39217   0.44678   -1.000
 3409.00    0.39220   0.45101   -1.000
 3410.00    0.39595   0.46169   -1.000
 3411.00    0.39582   0.46692   -1.000
 3412.00    0.39028   0.45909   -1.000
 3413.00    0.39344   0.44204   -1.000
 3414.00    0.38144   0.42911   -1.000
 3415.00    0.37721   0.42987   -1.000
 3416.00    0.38794   0.44385   -1.000
 3417.00    0.40312   0.46439   -1.000
 3418.00    0.40715   0.48684   -1.000
 3419.00    0.43534   0.50887   -1.000
 3420.00    0.45176   0.52465   -1.000
 3421.00    0.45879   0.52712   -1.000
 3422.00    0.45118   0.51764   -1.000
 3423.00    0.43992   0.50406   -1.000
 3424.00    0.43563   0.49565   -1.000
 3425.00    0.43550   0.49547   -1.000
 3426.00    0.44824   0.49994   -1.000
 3427.00    0.45988   0.50843   -1.000
 3428.00    0.45994   0.52710   -1.000
 3429.00    0.46676   0.54966   -1.000
 3430.00    0.49443   0.55988   -1.000
 3431.00    0.48970   0.54909   -1.000
 3432.00    0.47834   0.52485   -1.000
 3433.00    0.45455   0.50369   -1.000
 3434.00    0.45252   0.49701   -1.000
 3435.00    0.47525   0.50434   -1.000
 3436.00    0.47156   0.51119   -1.000
 3437.00    0.45875   0.50689   -1.000
 3438.00    0.43914   0.48731   -1.000
 3439.00    0.41342   0.45421   -1.000
 3440.00    0.39936   0.41252  267.527
 3441.00    0.38095   0.37693   -1.000
 3442.00    0.37033   0.36302   -1.000
 3443.00    0.37100   0.37007  277.296
 3444.00    0.38068   0.38761  266.151
 3445.00    0.39745   0.40762  251.520
 3446.00    0.42296   0.43096  237.590
 3447.00    0.43767   0.46122   -1.000
 3448.00    0.45252   0.49365   -1.000
 3449.00    0.47516   0.51851   -1.000
 3450.00    0.49345   0.52768   -1.000
 3451.00    0.49931   0.51892   -1.000
 3452.00    0.47974   0.49828   -1.000
 3453.00    0.48287   0.48308  913.030
 3454.00    0.47496   0.48428   -1.000
 3455.00    0.48936   0.49578   -1.000
 3456.00    0.49154   0.50322   -1.000
 3457.00    0.49280   0.49380  913.030
 3458.00    0.47447   0.47280  913.030
 3459.00    0.46513   0.45235   -1.000
 3460.00    0.45038   0.43631   -1.000
 3461.00    0.44547   0.43119   -1.000
 3462.00    0.45821   0.44615   -1.000
 3463.00    0.47146   0.47180  913.030
 3464.00    0.49457   0.48898   -1.000
 3465.00    0.49919   0.49132   -1.000
 3466.00    0.50404   0.48632   -1.000
 3467.00    0.50614   0.48866   -1.000
 3468.00    0.50923   0.50165   -1.000
 3469.00    0.52072   0.51794   -1.000
 3470.00    0.53032   0.52754   -1.000
 3471.00    0.53888   0.52430   -1.000
 3472.00    0.52584   0.50746   -1.000
 3473.00    0.50294   0.48090   -1.000
 3474.00    0.47529   0.44843   -1.000
 3475.00    0.45141   0.42069   -1.000
 3476.00    0.43062   0.41282   -1.000
 3477.00    0.43453   0.42864  228.779
 3478.00    0.46054   0.45731   -1.000
 3479.00    0.48676   0.48503   -1.000
 3480.00    0.52092   0.50234   -1.000
 3481.00    0.53148   0.50666   -1.000
 3482.00    0.52547   0.50045   -1.000
 3483.00    0.52275   0.48931   -1.000
 3484.00    0.51078   0.48266   -1.000
 3485.00    0.52556   0.48967   -1.000
 3486.00    0.53729   0.51119   -1.000
 3487.00    0.55539   0.52756   -1.000
 3488.00    0.56029   0.52085   -1.000
 3489.00    0.53365   0.49396   -1.000
 3490.00    0.49513   0.46544   -1.000
 3491.00    0.46784   0.45273   -1.000
 3492.00    0.46468   0.45601   -1.000
 3493.00    0.48733   0.46562   -1.000
 3494.00    0.50175   0.47046   -1.000
 3495.00    0.49490   0.46536   -1.000
 3496.00    0.48320   0.45568   -1.000
 3497.00    0.48853   0.45660   -1.000
 3498.00    0.49799   0.47824   -1.000
 3499.00    0.52617   0.50694   -1.000
 3500.00    0.55586   0.52496   -1.000
 3501.00    0.55677   0.53368   -1.000
 3502.00    0.57432   0.54088   -1.000
 3503.00    0.58268   0.54866   -1.000
 3504.00    0.58590   0.54964   -1.000
 3505.00    0.57444   0.53992   -1.000
 3506.00    0.56506   0.52796   -1.000
 3507.00    0.56959   0.52189   -1.000
 3508.00    0.56712   0.52048   -1.000
 3509.00    0.56553   0.51562   -1.000
 3510.00    0.54803   0.50406   -1.000
 3511.00    0.53393   0.49132   -1.000
 3512.00    0.51673   0.48078   -1.000
 3513.00    0.50039   0.46776   -1.000
 3514.00    0.49390   0.46003   -1.000
 3515.00    0.49812   0.47175   -1.000
 3516.00    0.51901   0.50337   -1.000
 3517.00    0.55821   0.53969   -1.000
 3518.00    0.58173   0.55858   -1.000
 3519.00    0.58532   0.55200   -1.000
 3520.00    0.55525   0.52553   -1.000
 3521.00    0.51688   0.49421   -1.000
 3522.00    0.50342   0.46905   -1.000
 3523.00    0.47518   0.44581   -1.000
 3524.00    0.46182   0.42434   -1.000
 3525.00    0.44726   0.41274   -1.000
 3526.00    0.44281   0.41951   -1.000
 3527.00    0.46268   0.44773   -1.000
 3528.00    0.49606   0.48664   -1.000
 3529.00    0.52678   0.51859   -1.000
 3530.00    0.55060   0.53369   -1.000
 3531.00    0.54979   0.53399   -1.000
 3532.00    0.53943   0.53024   -1.000
 3533.00    0.54179   0.53368   -1.000
 3534.00    0.55275   0.54509   -1.000
 3535.00    0.56941   0.55558   -1.000
 3536.00    0.56476   0.56032   -1.000
 3537.00    0.56907   0.56461   -1.000
 3538.00    0.56823   0.57454   -1.000
 3539.00    0.58438   0.58618  913.030
 3540.00    0.58175   0.58725   -1.000
 3541.00    0.56918   0.57802   -1.000
 3542.00    0.56299   0.57363   -1.000
 3543.00    0.56737   0.57843   -1.000
 3544.00    0.57132   0.58763   -1.000
 3545.00    0.56498   0.59254   -1.000
 3546.00    0.56442   0.58848   -1.000
 3547.00    0.55967   0.58069   -1.000
 3548.00    0.55595   0.57589   -1.000
 3549.00    0.55992   0.57675   -1.000
 3550.00    0.55525   0.57996   -1.000
 3551.00    0.55152   0.57985   -1.000
 3552.00    0.54121   0.57079   -1.000
 3553.00    0.53122   0.55637   -1.000
 3554.00    0.52121   0.54604   -1.000
 3555.00    0.51574   0.54521   -1.000
 3556.00    0.51779   0.55105   -1.000
 3557.00    0.52982   0.55296   -1.000
 3558.00    0.52909   0.54727   -1.000
 3559.00    0.51565   0.54161   -1.000
 3560.00    0.51090   0.54512   -1.000
 3561.00    0.51828   0.56065   -1.000
 3562.00    0.53167   0.57690   -1.000
 3563.00    0.53749   0.57420   -1.000
 3564.00    0.52202   0.53654   -1.000
 3565.00    0.48276   0.48432  225.831
 3566.00    0.44753   0.45324  235.135
 3567.00    0.43566   0.44738  232.282
 3568.00    0.44078   0.44792  231.008
 3569.00    0.43900   0.43562  239.041
 3570.00    0.42020   0.41709  243.395
 3571.00    0.42919   0.41647   -1.000
 3572.00    0.44623   0.43484   -1.000
 3573.00    0.45883   0.45692   -1.000
 3574.00    0.48069   0.47146   -1.000
 3575.00    0.48617   0.47715   -1.000
 3576.00    0.49353   0.48072   -1.000
 3577.00    0.48270   0.48140   -1.000
 3578.00    0.47821   0.47091   -1.000
 3579.00    0.45958   0.44517   -1.000
 3580.00    0.42964   0.41177   -1.000
 3581.00    0.40218   0.38517   -1.000
 3582.00    0.38292   0.37675   -1.000
 3583.00    0.38778   0.38496  268.568
 3584.00    0.38897   0.38984  275.449
 3585.00    0.37861   0.38055  284.589
 3586.00    0.36254   0.36923  288.538
 3587.00    0.36899   0.36987  273.715
 3588.00    0.38974   0.38938  259.104
 3589.00    0.40650   0.42309   -1.000
 3590.00    0.43932   0.46233   -1.000
 3591.00    0.47764   0.49686   -1.000
 3592.00    0.51220   0.51616  199.472
 3593.00    0.52090   0.52064  199.163
 3594.00    0.52043   0.52333  195.816
 3595.00    0.53417   0.53781  189.508
 3596.00    0.55359   0.56025  180.233
 3597.00    0.57170   0.57989  175.014
 3598.00    0.58965   0.59511  170.431
 3599.00    0.60096   0.60528  167.660
 3600.00    0.61233   0.60484  169.755
 3601.00    0.60170   0.58722  178.059
 3602.00    0.57774   0.55472   -1.000
 3603.00    0.54693   0.52043   -1.000
 3604.00    0.52084   0.49816   -1.000
 3605.00    0.51106   0.49288   -1.000
 3606.00    0.51830   0.49463   -1.000
 3607.00    0.51160   0.48973   -1.000
 3608.00    0.50644   0.47463   -1.000
 3609.00    0.48367   0.46027   -1.000
 3610.00    0.47232   0.46440  210.814
 3611.00    0.48342   0.48389  204.501
 3612.00    0.50887   0.50261  197.190
 3613.00    0.52591   0.51719  192.542
 3614.00    0.53215   0.53205  189.069
 3615.00    0.54925   0.54713  182.097
 3616.00    0.56298   0.54738   -1.000
 3617.00    0.54658   0.51355   -1.000
 3618.00    0.49412   0.46590   -1.000
 3619.00    0.46088   0.44359   22.243
 3620.00    0.46453   0.45946  208.979
 3621.00    0.50616   0.49773  190.404
 3622.00    0.55320   0.53490   -1.000
 3623.00    0.57957   0.55913   -1.000
 3624.00    0.58326   0.57667  173.276
 3625.00    0.57654   0.60111   -1.000
 3626.00    0.61929   0.63180  159.741
 3627.00    0.65681   0.65713  157.460
 3628.00    0.65011   0.66011  160.450
 3629.00    0.61780   0.62480  170.480
 3630.00    0.56553   0.56257  191.126
 3631.00    0.51126   0.50612  207.021
 3632.00    0.47757   0.48261  209.239
 3633.00    0.49156   0.49218  202.610
 3634.00    0.50983   0.51450  195.404
 3635.00    0.52489   0.53304  190.941
 3636.00    0.54765   0.54543  183.724
 3637.00    0.57267   0.56241  175.014
 3638.00    0.58910   0.58797  167.132
 3639.00    0.61445   0.61570  161.556
 3640.00    0.63411   0.63249  161.455
 3641.00    0.62863   0.62830  165.613
 3642.00    0.60775   0.60601  171.246
 3643.00    0.58683   0.57645  180.661
 3644.00    0.55479   0.55157  185.865
 3645.00    0.54129   0.53592  189.006
 3646.00    0.54127   0.52265   -1.000
 3647.00    0.51906   0.51068  195.437
 3648.00    0.51618   0.50672  195.535
 3649.00    0.52144   0.51427  190.108
 3650.00    0.54510   0.53305  182.368
 3651.00    0.56784   0.56186  173.485
 3652.00    0.59712   0.59357  166.218
 3653.00    0.61845   0.61950  162.182
 3654.00    0.62699   0.63523  159.956
 3655.00    0.63828   0.64324  159.451
 3656.00    0.64514   0.65301  157.573
 3657.00    0.65485   0.66609  155.949
 3658.00    0.67411   0.67623  153.252
 3659.00    0.68170   0.68158  153.479
 3660.00    0.67893   0.68241  153.458
 3661.00    0.68621   0.67604  155.205
 3662.00    0.66719   0.66299  156.867
 3663.00    0.64882   0.64759  159.592
 3664.00    0.63909   0.63724  160.778
 3665.00    0.63855   0.63580  158.750
 3666.00    0.64579   0.63785  158.897
 3667.00    0.64396   0.63491  162.341
 3668.00    0.63152   0.62180  164.086
 3669.00    0.61286   0.60847  168.224
 3670.00    0.60333   0.60956  167.031
 3671.00    0.62072   0.62667  160.624
 3672.00    0.65016   0.64779  157.455
 3673.00    0.66138   0.65969  156.954
 3674.00    0.66250   0.65949  156.927
 3675.00    0.65310   0.64785  157.297
 3676.00    0.64953   0.62691   -1.000
 3677.00    0.62828   0.60241   -1.000
 3678.00    0.59363   0.57935  172.431
 3679.00    0.58449   0.56402   -1.000
 3680.00    0.58156   0.55957   -1.000
 3681.00    0.59091   0.56630   -1.000
 3682.00    0.61190   0.58171   -1.000
 3683.00    0.61396   0.59589   -1.000
 3684.00    0.62609   0.59697   -1.000
 3685.00    0.60767   0.57716   -1.000
 3686.00    0.57968   0.54737   -1.000
 3687.00    0.55571   0.52842   -1.000
 3688.00    0.56176   0.53415   -1.000
 3689.00    0.58507   0.56401   -1.000
 3690.00    0.61681   0.60623  157.899
 3691.00    0.65179   0.64011  153.233
 3692.00    0.66798   0.65008  154.526
 3693.00    0.66302   0.64193   -1.000
 3694.00    0.64854   0.62984   -1.000
 3695.00    0.64431   0.62199   -1.000
 3696.00    0.64392   0.62146   -1.000
 3697.00    0.65130   0.63148  156.859
 3698.00    0.66992   0.65271  151.623
 3699.00    0.69773   0.67779  147.801
 3700.00    0.72146   0.69349   -1.000
 3701.00    0.72405   0.68821   -1.000
 3702.00    0.69444   0.65439   -1.000
 3703.00    0.64412   0.60118   -1.000
 3704.00    0.57886   0.54545   -1.000
 3705.00    0.54505   0.50526   -1.000
 3706.00    0.53381   0.49120   -1.000
 3707.00    0.53429   0.49565   -1.000
 3708.00    0.54568   0.50677   -1.000
 3709.00    0.55237   0.52133   -1.000
 3710.00    0.57644   0.54168   -1.000
 3711.00    0.60153   0.57069   -1.000
 3712.00    0.64253   0.61000   -1.000
 3713.00    0.68595   0.65058   -1.000
 3714.00    0.71159   0.67971   -1.000
 3715.00    0.72409   0.69009   -1.000
 3716.00    0.71337   0.67902   -1.000
 3717.00    0.68977   0.64752   -1.000
 3718.00    0.64678   0.59737   -1.000
 3719.00    0.57638   0.52744   -1.000
 3720.00    0.50516   0.46010   -1.000
 3721.00    0.46153   0.42682   22.694
 3722.00    0.46322   0.43758   -1.000
 3723.00    0.51450   0.48322   -1.000
 3724.00    0.58142   0.54277   -1.000
 3725.00    0.62968   0.58597   -1.000
 3726.00    0.64458   0.59694   -1.000
 3727.00    0.62402   0.59124   -1.000
 3728.00    0.60750   0.58966   -1.000
 3729.00    0.61157   0.59401   -1.000
 3730.00    0.62262   0.59224   -1.000
 3731.00    0.59773   0.56826   -1.000
 3732.00    0.56121   0.51975   -1.000
 3733.00    0.50965   0.45950   22.279
 3734.00    0.44651   0.40369   24.991
 3735.00    0.40436   0.37051   25.908
 3736.00    0.40378   0.37273   24.589
 3737.00    0.43687   0.40825   22.260
 3738.00    0.48381   0.46861   -1.000
 3739.00    0.55219   0.53603   -1.000
 3740.00    0.60175   0.58637   -1.000
 3741.00    0.62140   0.60540   -1.000
 3742.00    0.61482   0.59397   -1.000
 3743.00    0.58686   0.55994   -1.000
 3744.00    0.55301   0.51950   -1.000
 3745.00    0.51350   0.48740   -1.000
 3746.00    0.49497   0.46258   -1.000
 3747.00    0.47700   0.43738   22.595
 3748.00    0.44749   0.40743   24.071
 3749.00    0.42270   0.38906   24.318
 3750.00    0.43522   0.40492   -1.000
 3751.00    0.49553   0.45617   -1.000
 3752.00    0.56340   0.52321   -1.000
 3753.00    0.62241   0.58893   -1.000
 3754.00    0.67371   0.63955   -1.000
 3755.00    0.70130   0.66119   -1.000
 3756.00    0.69414   0.64420   -1.000
 3757.00    0.63842   0.59611   -1.000
 3758.00    0.56230   0.54357   -1.000
 3759.00    0.52728   0.51617   -1.000
 3760.00    0.53730   0.52248   -1.000
 3761.00    0.57248   0.54307   -1.000
 3762.00    0.59612   0.55875   -1.000
 3763.00    0.60097   0.56752   -1.000
 3764.00    0.59985   0.57187   -1.000
 3765.00    0.61300   0.56988   -1.000
 3766.00    0.60865   0.56178   -1.000
 3767.00    0.59233   0.55333   -1.000
 3768.00    0.59156   0.54767   -1.000
 3769.00    0.59696   0.54425   -1.000
 3770.00    0.59572   0.54255   -1.000
 3771.00    0.60652   0.55058   -1.000
 3772.00    0.62345   0.57633   -1.000
 3773.00    0.65912   0.60875   -1.000
 3774.00    0.68005   0.63102   -1.000
 3775.00    0.68338   0.64221   -1.000
 3776.00    0.68620   0.64921   -1.000
 3777.00    0.68201   0.65862   -1.000
 3778.00    0.68646   0.67352  151.304
 3779.00    0.69786   0.69183  146.131
 3780.00    0.72322   0.71005  142.758
 3781.00    0.74230   0.72387  141.849
 3782.00    0.73329   0.73251  140.987
 3783.00    0.74038   0.73543  141.091
 3784.00    0.73463   0.72536  144.440
 3785.00    0.71486   0.69535   -1.000
 3786.00    0.66870   0.65313  163.897
 3787.00    0.62854   0.61392  171.988
 3788.00    0.60651   0.58888   -1.000
 3789.00    0.59215   0.58111  174.857
 3790.00    0.59626   0.58576  171.654
 3791.00    0.61071   0.59314   -1.000
 3792.00    0.61786   0.59058   -1.000
 3793.00    0.60992   0.57440   -1.000
 3794.00    0.58402   0.55092   -1.000
 3795.00    0.55697   0.52765   -1.000
 3796.00    0.53772   0.50526   -1.000
 3797.00    0.51705   0.47758   -1.000
 3798.00    0.49217   0.45637   -1.000
 3799.00    0.50036   0.46712   -1.000
 3800.00    0.54410   0.51063   -1.000
 3801.00    0.59334   0.57012   -1.000
 3802.00    0.63020   0.62579  161.222
 3803.00    0.65666   0.66195  157.729
 3804.00    0.67765   0.67545  156.891
 3805.00    0.67964   0.66797  159.395
 3806.00    0.65508   0.64668  165.597
 3807.00    0.62721   0.63362  168.756
 3808.00    0.62822   0.64453  164.152
 3809.00    0.65230   0.67140  157.688
 3810.00    0.67086   0.69276   -1.000
 3811.00    0.67370   0.69094  159.223
 3812.00    0.66416   0.66493  168.027
 3813.00    0.62242   0.62283  178.539
 3814.00    0.57903   0.57805  189.245
 3815.00    0.54401   0.54871  197.803
 3816.00    0.53143   0.54624  194.064
 3817.00    0.55747   0.55855  186.541
 3818.00    0.57764   0.56147   -1.000
 3819.00    0.54078   0.54204  203.713
 3820.00    0.49816   0.51283  214.226
 3821.00    0.49199   0.50206  208.870
 3822.00    0.51231   0.51245  199.301
 3823.00    0.53443   0.51901   -1.000
 3824.00    0.51191   0.50453   -1.000
 3825.00    0.46359   0.47555   23.361
 3826.00    0.43979   0.45089   23.857
 3827.00    0.43928   0.44027   23.635
 3828.00    0.45177   0.44205   23.248
 3829.00    0.45394   0.44711   22.865
 3830.00    0.45618   0.44665   23.167
 3831.00    0.45301   0.43477   24.249
 3832.00    0.41759   0.41254   26.228
 3833.00    0.39642   0.38621   26.999
 3834.00    0.39215   0.36807   26.434
 3835.00    0.40644   0.36672   25.346
 3836.00    0.42151   0.37612   24.804
 3837.00    0.42016   0.38338   25.362
 3838.00    0.40930   0.38417   25.981
 3839.00    0.40545   0.38758   25.490
 3840.00    0.41442   0.40880   24.005
 3841.00    0.45870   0.45164   -1.000
 3842.00    0.50740   0.50659  196.638
 3843.00    0.55978   0.55903  184.295
 3844.00    0.58053   0.59407  181.061
 3845.00    0.57806   0.61136   -1.000
 3846.00    0.58128   0.62230   -1.000
 3847.00    0.59395   0.63275   -1.000
 3848.00    0.59074   0.63567   -1.000
 3849.00    0.56605   0.62898   -1.000
 3850.00    0.55077   0.62262   -1.000
 3851.00    0.55403   0.62539   -1.000
 3852.00    0.56734   0.63736   -1.000
 3853.00    0.57193   0.64593   -1.000
 3854.00    0.57024   0.63790   -1.000
 3855.00    0.55148   0.61787   -1.000
 3856.00    0.53944   0.59562   -1.000
 3857.00    0.52264   0.57061   -1.000
 3858.00    0.50130   0.54222   22.121
 3859.00    0.47211   0.51942   23.537
 3860.00    0.45704   0.51971   22.967
 3861.00    0.48703   0.54913   -1.000
 3862.00    0.54508   0.59708   -1.000
 3863.00    0.58833   0.63681   -1.000
 3864.00    0.60491   0.65007   -1.000
 3865.00    0.59952   0.64679   -1.000
 3866.00    0.58696   0.64043   -1.000
 3867.00    0.57897   0.63656   -1.000
 3868.00    0.56411   0.63412   -1.000
 3869.00    0.54336   0.62417   -1.000
 3870.00    0.51796   0.60124   -1.000
 3871.00    0.48773   0.57039   22.406
 3872.00    0.48526   0.54783   -1.000
 3873.00    0.51263   0.54858   -1.000
 3874.00    0.55818   0.57726  178.750
 3875.00    0.60149   0.61197  172.231
 3876.00    0.61201   0.62105  177.967
 3877.00    0.57922   0.60077   -1.000
 3878.00    0.53690   0.57404   -1.000
 3879.00    0.51643   0.56167   -1.000
 3880.00    0.52038   0.56459   -1.000
 3881.00    0.51155   0.57151   -1.000
 3882.00    0.49935   0.57469   -1.000
 3883.00    0.52430   0.57518   -1.000
 3884.00    0.58165   0.57056  177.270
 3885.00    0.59855   0.55219   -1.000
 3886.00    0.56889   0.51675   -1.000
 3887.00    0.55067   0.48123   -1.000
 3888.00    0.54915   0.46433   -1.000
 3889.00    0.55453   0.47486   -1.000
 3890.00    0.58502   0.51133   -1.000
 3891.00    0.63993   0.56314   -1.000
 3892.00    0.68523   0.60645   -1.000
 3893.00    0.70570   0.62295   -1.000
 3894.00    0.69638   0.62054   -1.000
 3895.00    0.69060   0.61905   -1.000
 3896.00    0.69806   0.62988   -1.000
 3897.00    0.71395   0.64510   -1.000
 3898.00    0.72018   0.65215   -1.000
 3899.00    0.70943   0.65243   -1.000
 3900.00    0.70600   0.65541   -1.000
 3901.00    0.71853   0.66220   -1.000
 3902.00    0.71325   0.66463   -1.000
 3903.00    0.69990   0.65522   -1.000
 3904.00    0.68886   0.63686   -1.000
 3905.00    0.65866   0.62278   -1.000
 3906.00    0.63668   0.62504  161.356
 3907.00    0.67836   0.64699   -1.000
 3908.00    0.72362   0.68359   -1.000
 3909.00    0.75270   0.71771   -1.000
 3910.00    0.77639   0.73847   -1.000
 3911.00    0.78302   0.75112   -1.000
 3912.00    0.78847   0.75868   -1.000
 3913.00    0.77790   0.75826   -1.000
 3914.00    0.76767   0.75051  139.423
 3915.00    0.75488   0.73823  142.726
 3916.00    0.74858   0.72535   -1.000
 3917.00    0.73194   0.71221   -1.000
 3918.00    0.72550   0.69352   -1.000
 3919.00    0.70014   0.66830   -1.000
 3920.00    0.65906   0.64079   -1.000
 3921.00    0.62881   0.62166  168.421
 3922.00    0.62468   0.61973  166.763
 3923.00    0.63987   0.62951   -1.000
 3924.00    0.64446   0.63458  165.044
 3925.00    0.62832   0.62199  173.541
 3926.00    0.59720   0.58954  190.603
 3927.00    0.54310   0.53907  213.996
 3928.00    0.47237   0.47768   24.732
 3929.00    0.41490   0.41544   29.004
 3930.00    0.35721   0.35305   33.929
 3931.00    0.30185   0.29398   40.169
 3932.00    0.25307   0.24371   46.977
 3933.00    0.21732   0.20956   51.261
 3934.00    0.21034   0.20186   49.017
 3935.00    0.23208   0.22492   42.472
 3936.00    0.27586   0.27148   35.093
 3937.00    0.33627   0.33448   28.811
 3938.00    0.39930   0.40397   24.225
 3939.00    0.46168   0.46773  214.212
 3940.00    0.51303   0.51994  198.724
 3941.00    0.54154   0.55450  191.320
 3942.00    0.55439   0.57099  189.681
 3943.00    0.55747   0.57736  189.623
 3944.00    0.56642   0.58573  179.852
 3945.00    0.59895   0.60689  163.180
 3946.00    0.65294   0.63631   -1.000
 3947.00    0.68715   0.65902   -1.000
 3948.00    0.69689   0.67249   -1.000
 3949.00    0.71108   0.68658   -1.000
 3950.00    0.74292   0.70252   -1.000
 3951.00    0.76295   0.71155   -1.000
 3952.00    0.74589   0.71316   -1.000
 3953.00    0.74558   0.71651   -1.000
 3954.00    0.76677   0.72419   -1.000
 3955.00    0.77852   0.72528   -1.000
 3956.00    0.74913   0.71437   -1.000
 3957.00    0.73188   0.70355   -1.000
 3958.00    0.73471   0.69966   -1.000
 3959.00    0.73590   0.68904   -1.000
 3960.00    0.70213   0.65511   -1.000
 3961.00    0.62851   0.59882   -1.000
 3962.00    0.55126   0.54224   -1.000
 3963.00    0.51140   0.50097   -1.000
 3964.00    0.48129   0.46674   23.267
 3965.00    0.42920   0.42317   27.332
 3966.00    0.36426   0.35874   33.763
 3967.00    0.29363   0.28916   41.300
 3968.00    0.24079   0.24230   45.548
 3969.00    0.22963   0.23165   42.183
 3970.00    0.26481   0.25706   34.711
 3971.00    0.32572   0.31090   28.514
 3972.00    0.39138   0.37739   23.858
 3973.00    0.46053   0.44688   -1.000
 3974.00    0.53213   0.51622   -1.000
 3975.00    0.59910   0.57952   -1.000
 3976.00    0.66247   0.63610   -1.000
 3977.00    0.71448   0.68527   -1.000
 3978.00    0.75104   0.73023  134.823
 3979.00    0.80202   0.76930   -1.000
 3980.00    0.83951   0.79288   -1.000
 3981.00    0.84797   0.79792   -1.000
 3982.00    0.83302   0.79187   -1.000
 3983.00    0.81561   0.78835   -1.000
 3984.00    0.83546   0.79573   -1.000
 3985.00    0.85241   0.80967   -1.000
 3986.00    0.86725   0.82470   -1.000
 3987.00    0.88666   0.84069   -1.000
 3988.00    0.90068   0.85554   -1.000
 3989.00    0.90885   0.86624   -1.000
 3990.00    0.90225   0.87327   -1.000
 3991.00    0.90834   0.88181  114.834
 3992.00    0.93332   0.89447   -1.000
 3993.00    0.94434   0.90387   -1.000
 3994.00    0.94280   0.90053   -1.000
 3995.00    0.92493   0.88345   -1.000
 3996.00    0.89106   0.86186   -1.000
 3997.00    0.87178   0.84900  122.237
 3998.00    0.87740   0.85344  119.366
 3999.00    0.90829   0.87243   -1.000
 4000.00    0.94841   0.89943   -1.000
 4001.00    0.97376   0.92501   -1.000
 4002.00    0.99636   0.93725   -1.000
 4003.00    1.00156   0.92737   -1.000
 4004.00    0.95762   0.89460   -1.000
 4005.00    0.89116   0.85227   -1.000
 4006.00    0.85778   0.83137   -1.000
 4007.00    0.89512   0.84845   -1.000
 4008.00    0.94248   0.88693   -1.000
 4009.00    0.97497   0.92189   -1.000
 4010.00    0.99302   0.94216   -1.000
 4011.00    1.00000   0.95060   -1.000
 4012.00    0.99437   0.95389   -1.000
 4013.00    0.99968   0.95673   -1.000
 4014.00    1.00186   0.96000   -1.000
 4015.00    1.00732   0.96131   -1.000
 4016.00    1.00320   0.95892   -1.000
 4017.00    0.99882   0.95526   -1.000
 4018.00    0.98830   0.95730   -1.000
 4019.00    1.00320   0.96530   -1.000
 4020.00    1.01322   0.97328   -1.000
 4021.00    1.00151   0.97593  107.805
 4022.00    1.00554   0.97406   -1.000
 4023.00    0.99206   0.97024  109.119
 4024.00    0.98227   0.96526  109.981
 4025.00    0.98382   0.96591  107.134
 4026.00    1.01315   0.97911   -1.000
 4027.00    1.05475   1.00024   -1.000
 4028.00    1.06770   1.00771   -1.000
 4029.00    1.04440   0.98356   -1.000
 4030.00    0.97938   0.93611   -1.000
 4031.00    0.92028   0.88641   -1.000
 4032.00    0.89742   0.85426   -1.000
 4033.00    0.89868   0.84750   -1.000
 4034.00    0.92003   0.86423   -1.000
 4035.00    0.95347   0.89933   -1.000
 4036.00    1.00199   0.94821   -1.000
 4037.00    1.05078   0.99999   -1.000
 4038.00    1.08300   1.03359   -1.000
 4039.00    1.08068   1.03574   -1.000
 4040.00    1.04494   1.01928  104.168
 4041.00    1.02795   1.00369  105.259
 4042.00    1.03552   0.98831   -1.000
 4043.00    1.01094   0.95545   -1.000
 4044.00    0.94241   0.89294   -1.000
 4045.00    0.84493   0.83088  131.584
 4046.00    0.81155   0.81275  125.728
 4047.00    0.88217   0.84674   -1.000
 4048.00    0.97757   0.91062   -1.000
 4049.00    1.02534   0.97118   -1.000
 4050.00    1.04727   1.00726   -1.000
 4051.00    1.04972   1.01732   -1.000
 4052.00    1.02971   1.00788  106.098
 4053.00    1.00171   0.98667  108.846
 4054.00    0.98550   0.96602  110.502
 4055.00    0.96464   0.95236  111.355
 4056.00    0.95986   0.94065  112.104
 4057.00    0.94988   0.93130  113.299
 4058.00    0.93767   0.93284  111.878
 4059.00    0.96402   0.94990  107.708
 4060.00    1.00299   0.97118   -1.000
 4061.00    1.02314   0.96907   -1.000
 4062.00    0.98075   0.93252   -1.000
 4063.00    0.90301   0.88147  123.786
 4064.00    0.86265   0.84926  121.534
 4065.00    0.89030   0.85099   -1.000
 4066.00    0.92604   0.87464   -1.000
 4067.00    0.95729   0.90533   -1.000
 4068.00    0.99367   0.93592   -1.000
 4069.00    1.03014   0.95383   -1.000
 4070.00    1.02228   0.94511   -1.000
 4071.00    0.96837   0.91750   -1.000
 4072.00    0.93763   0.89830   -1.000
 4073.00    0.95752   0.90491   -1.000
 4074.00    0.99866   0.92043   -1.000
 4075.00    0.98051   0.91543   -1.000
 4076.00    0.92399   0.88663   -1.000
 4077.00    0.85648   0.85588  127.334
 4078.00    0.84875   0.84975  122.869
 4079.00    0.90365   0.87780  114.257
 4080.00    0.96476   0.92850   -1.000
 4081.00    1.02680   0.97161   -1.000
 4082.00    1.03471   0.98355   -1.000
 4083.00    1.00681   0.96801   -1.000
 4084.00    0.97786   0.94788   -1.000
 4085.00    0.96506   0.94669  108.723
 4086.00    0.99734   0.96966  104.964
 4087.00    1.04439   1.00627   -1.000
 4088.00    1.08375   1.03803   -1.000
 4089.00    1.10459   1.05074   -1.000
 4090.00    1.09705   1.04326   -1.000
 4091.00    1.07031   1.02648   -1.000
 4092.00    1.04738   1.01291   -1.000
 4093.00    1.04769   1.00295   -1.000
 4094.00    1.04663   0.98956   -1.000
 4095.00    1.01258   0.96641   -1.000
 4096.00    0.97107   0.93677  114.006
 4097.00    0.95254   0.90871   -1.000
 4098.00    0.93259   0.88076   -1.000
 4099.00    0.91498   0.84219   -1.000
 4100.00    0.85682   0.78708   -1.000
 4101.00    0.78110   0.73500   -1.000
 4102.00    0.75409   0.71682   -1.000
 4103.00    0.79079   0.74410   -1.000
 4104.00    0.86960   0.80577   -1.000
 4105.00    0.92759   0.87185   -1.000
 4106.00    0.98391   0.91780   -1.000
 4107.00    1.00408   0.94329   -1.000
 4108.00    1.00267   0.95327   -1.000
 4109.00    0.98509   0.95244   -1.000
 4110.00    0.97310   0.95105  113.526
 4111.00    0.96141   0.95558  112.003
 4112.00    0.97184   0.96658  109.419
 4113.00    0.99963   0.98259  107.560
 4114.00    1.01913   1.00245  105.912
 4115.00    1.03177   1.01987  104.898
 4116.00    1.03843   1.02615  105.474
 4117.00    1.02673   1.01880  107.798
 4118.00    1.00381   1.00347  111.521
 4119.00    0.97005   0.98917  112.738
 4120.00    0.97575   0.98379  111.226
 4121.00    0.99075   0.98795  110.081
 4122.00    0.98957   0.99487  110.243
 4123.00    0.99136   1.00173  109.008
 4124.00    1.00381   1.01056  107.035
 4125.00    1.02440   1.01923  106.730
 4126.00    1.02953   1.02006  108.242
 4127.00    1.01454   1.01122  110.628
 4128.00    0.98530   1.00032  111.489
 4129.00    0.97734   0.99317  112.037
 4130.00    0.97260   0.98285  113.487
 4131.00    0.95152   0.96027  117.171
 4132.00    0.92954   0.93230  120.885
 4133.00    0.90955   0.91687  121.081
 4134.00    0.91082   0.92760  116.933
 4135.00    0.95311   0.96136  110.924
 4136.00    0.99835   1.00389  107.382
 4137.00    1.01883   1.03995  105.712
 4138.00    1.04143   1.06397  104.058
 4139.00    1.05788   1.07589  103.691
 4140.00    1.05594   1.06821  105.922
 4141.00    1.03050   1.03337  111.667
 4142.00    0.96258   0.98124  121.316
 4143.00    0.88690   0.93416   -1.000
 4144.00    0.86733   0.91843   -1.000
 4145.00    0.91300   0.94293   -1.000
 4146.00    0.97918   0.98407  110.827
 4147.00    1.00391   1.01285  109.781
 4148.00    0.99491   1.01949  112.003
 4149.00    0.97836   1.01536   -1.000
 4150.00    0.96132   1.01478   -1.000
 4151.00    0.95444   1.01728   -1.000
 4152.00    0.95956   1.01382   -1.000
 4153.00    0.95581   0.99970   -1.000
 4154.00    0.94314   0.98216   -1.000
 4155.00    0.93074   0.97426   -1.000
 4156.00    0.95159   0.98127   -1.000
 4157.00    1.05492   0.99850   -1.000
 4158.00    0.99183   1.02036   -1.000
 4159.00    0.90760   1.04257   -1.000
 4160.00    0.93939   1.06090   -1.000
 4161.00    0.99821   1.07468   -1.000
 4162.00    1.02752   1.08612   -1.000
 4163.00    1.04911   1.09506   -1.000
 4164.00    1.03662   1.09692   -1.000
 4165.00    1.01764   1.08575   -1.000
 4166.00    0.98826   1.06384   -1.000
 4167.00    0.97437   1.04350   -1.000
 4168.00    0.97806   1.03499   -1.000
 4169.00    0.98943   1.03461   -1.000
 4170.00    0.99479   1.02495   -1.000
 4171.00    0.97390   0.99602   -1.000
 4172.00    0.91333   0.95643   -1.000
 4173.00    0.87102   0.93073   -1.000
 4174.00    0.87609   0.93615   -1.000
 4175.00    0.91726   0.96217   -1.000
 4176.00    0.94116   0.98604   -1.000
 4177.00    0.93156   1.00075   -1.000
 4178.00    0.92577   1.01488   -1.000
 4179.00    0.94046   1.03125   -1.000
 4180.00    0.96362   1.03934   -1.000
 4181.00    0.95716   1.03218   -1.000
 4182.00    0.96276   1.02044   -1.000
 4183.00    0.96045   1.01998   -1.000
 4184.00    0.99081   1.03080   -1.000
 4185.00    1.02125   1.03567  110.121
 4186.00    1.00244   1.02363  114.026
 4187.00    0.96277   1.00382   -1.000
 4188.00    0.93771   0.99325   -1.000
 4189.00    0.96328   0.99910   -1.000
 4190.00    0.98974   1.01431  112.741
 4191.00    0.98824   1.03180   -1.000
 4192.00    0.99990   1.05066   -1.000
 4193.00    1.02723   1.06554   -1.000
 4194.00    1.02507   1.06530   -1.000
 4195.00    0.99230   1.04473   -1.000
 4196.00    0.94390   1.01027   -1.000
 4197.00    0.92011   0.97655   -1.000
 4198.00    0.91088   0.95339   -1.000
 4199.00    0.91354   0.94028   -1.000
 4200.00    0.92844   0.93628  119.263
 4201.00    0.94062   0.94077  119.014
 4202.00    0.93655   0.95070  118.223
 4203.00    0.94145   0.96669   -1.000
 4204.00    0.95852   0.99098   -1.000
 4205.00    0.97766   1.01992   -1.000
 4206.00    0.99775   1.04787   -1.000
 4207.00    1.02358   1.07025   -1.000
 4208.00    1.04333   1.08264   -1.000
 4209.00    1.04264   1.08420   -1.000
 4210.00    1.04022   1.08081   -1.000
 4211.00    1.03582   1.08207   -1.000
 4212.00    1.04237   1.08748   -1.000
 4213.00    1.03289   1.08263   -1.000
 4214.00    0.98717   1.05926   -1.000
 4215.00    0.93969   1.02897   -1.000
 4216.00    0.93238   1.01071   -1.000
 4217.00    0.98820   1.01698  107.990
 4218.00    1.05970   1.04606  103.299
 4219.00    1.10230   1.07966  100.497
 4220.00    1.12175   1.10026   99.489
 4221.00    1.12058   1.09960  100.482
 4222.00    1.10910   1.07233   -1.000
 4223.00    1.05808   1.01490   -1.000
 4224.00    0.98483   0.93425   -1.000
 4225.00    0.88503   0.84882   -1.000
 4226.00    0.77264   0.78821  151.736
 4227.00    0.73621   0.78307   -1.000
 4228.00    0.82161   0.84227  121.846
 4229.00    0.97137   0.92972   -1.000
 4230.00    1.06149   0.99829   -1.000
 4231.00    1.09211   1.03040   -1.000
 4232.00    1.08525   1.03285   -1.000
 4233.00    1.06310   1.02137   -1.000
 4234.00    1.04280   1.00637   -1.000
 4235.00    1.01923   0.99166   -1.000
 4236.00    0.99832   0.98082  114.428
 4237.00    0.98817   0.97892  113.436
 4238.00    0.99886   0.98998  110.679
 4239.00    1.01600   1.01053  109.166
 4240.00    1.03567   1.03257  107.023
 4241.00    1.06033   1.05085  105.614
 4242.00    1.07455   1.06540  105.203
 4243.00    1.08700   1.07967  103.317
 4244.00    1.10538   1.09413  101.110
 4245.00    1.12123   1.10020  102.337
 4246.00    1.09178   1.08549  107.293
 4247.00    1.04924   1.04990  111.334
 4248.00    1.01978   1.01107  114.107
 4249.00    0.99113   0.98733  115.055
 4250.00    0.97412   0.98642  114.867
 4251.00    0.99056   1.00124  111.383
 4252.00    1.03303   1.01658  108.243
 4253.00    1.04467   1.01730   -1.000
 4254.00    1.02570   1.00297   -1.000
 4255.00    1.01046   0.99734  110.498
 4256.00    1.03078   1.01485  106.004
 4257.00    1.06761   1.03691   -1.000
 4258.00    1.06447   1.03446   -1.000
 4259.00    1.01744   1.00176  115.846
 4260.00    0.96033   0.96924  118.718
 4261.00    0.95531   0.97072  113.893
 4262.00    1.00239   1.01073  106.613
 4263.00    1.07110   1.06397  101.644
 4264.00    1.12406   1.10391   99.389
 4265.00    1.14357   1.12049   99.251
 4266.00    1.14078   1.11700  100.979
 4267.00    1.11406   1.10020  104.446
 4268.00    1.07515   1.07116  107.601
 4269.00    1.04407   1.02771  111.804
 4270.00    1.00062   0.97495   -1.000
 4271.00    0.92796   0.92481  126.761
 4272.00    0.88138   0.89221  127.764
 4273.00    0.89198   0.88685  124.681
 4274.00    0.91534   0.90476  121.532
 4275.00    0.94263   0.93905  115.953
 4276.00    0.99056   0.98878  108.275
 4277.00    1.05849   1.04173  103.340
 4278.00    1.09671   1.07386  103.521
 4279.00    1.08271   1.07249  108.441
 4280.00    1.03319   1.05124  112.160
 4281.00    1.00694   1.03472  112.266
 4282.00    1.01819   1.03385  110.574
 4283.00    1.03969   1.03808  109.601
 4284.00    1.04686   1.03209  111.153
 4285.00    1.01805   1.01687  114.556
 4286.00    0.98211   0.99895  117.415
 4287.00    0.97050   0.97916  119.014
 4288.00    0.95262   0.95262  123.780
 4289.00    0.90838   0.91853  130.091
 4290.00    0.87367   0.89516  130.030
 4291.00    0.88788   0.90325  123.132
 4292.00    0.95188   0.93713  115.174
 4293.00    1.00384   0.97255   -1.000
 4294.00    1.01120   0.98756   -1.000
 4295.00    0.99855   0.97784  116.420
 4296.00    0.97585   0.95101   -1.000
 4297.00    0.94379   0.91148   -1.000
 4298.00    0.89044   0.85944   -1.000
 4299.00    0.81658   0.80636  146.693
 4300.00    0.76286   0.77051  148.062
 4301.00    0.76652   0.75916  143.323
 4302.00    0.79251   0.76596   -1.000
 4303.00    0.80873   0.78097   -1.000
 4304.00    0.82657   0.79686   -1.000
 4305.00    0.83519   0.80385   -1.000
 4306.00    0.82656   0.79173   -1.000
 4307.00    0.79076   0.76273   -1.000
 4308.00    0.74776   0.73356   -1.000
 4309.00    0.73589   0.72573  151.248
 4310.00    0.76714   0.74907   -1.000
 4311.00    0.81528   0.79347   -1.000
 4312.00    0.86391   0.84670   -1.000
 4313.00    0.90856   0.90913  121.708
 4314.00    0.95370   0.98225  114.537
 4315.00    1.02468   1.06408   -1.000
 4316.00    1.12469   1.14275   96.538
 4317.00    1.20585   1.20071   93.344
 4318.00    1.23673   1.22699   93.517
 4319.00    1.22791   1.22491   95.070
 4320.00    1.20317   1.20558   97.271
 4321.00    1.17043   1.16963  100.647
 4322.00    1.12765   1.11000  105.719
 4323.00    1.06778   1.03090   -1.000
 4324.00    0.97652   0.95488  124.131
 4325.00    0.89699   0.91340  128.784
 4326.00    0.88560   0.92659   -1.000
 4327.00    0.97603   0.99196  106.776
 4328.00    1.09633   1.07458   99.316
 4329.00    1.17305   1.13567   -1.000
 4330.00    1.17246   1.16401   98.260
 4331.00    1.16479   1.17253   97.649
 4332.00    1.16345   1.18012   95.857
 4333.00    1.18334   1.19011   94.925
 4334.00    1.20254   1.19318   94.765
 4335.00    1.19992   1.17639   96.515
 4336.00    1.16824   1.12859   -1.000
 4337.00    1.08885   1.04722   -1.000
 4338.00    0.99371   0.95232   -1.000
 4339.00    0.90462   0.87525  134.038
 4340.00    0.84084   0.84131  136.830
 4341.00    0.84874   0.86249   -1.000
 4342.00    0.93138   0.92856  113.351
 4343.00    1.02780   1.00453  106.632
 4344.00    1.08216   1.06323  103.453
 4345.00    1.11475   1.10423  100.658
 4346.00    1.15208   1.13550   99.016
 4347.00    1.15587   1.16266   98.014
 4348.00    1.17981   1.18389   96.354
 4349.00    1.20935   1.18679   96.748
 4350.00    1.18032   1.15882  102.490
 4351.00    1.09267   1.10740  110.363
 4352.00    1.01729   1.06500   -1.000
 4353.00    1.03120   1.05892   -1.000
 4354.00    1.09513   1.08921  101.680
 4355.00    1.13855   1.13108   98.645
 4356.00    1.17215   1.16126   96.650
 4357.00    1.18839   1.17555   96.827
 4358.00    1.19098   1.17839   99.091
 4359.00    1.15699   1.17699  100.242
 4360.00    1.15083   1.18215   -1.000
 4361.00    1.18960   1.19971   95.027
 4362.00    1.22585   1.22149   94.105
 4363.00    1.23904   1.23842   93.761
 4364.00    1.24363   1.25053   92.651
 4365.00    1.25865   1.25429   92.640
 4366.00    1.24660   1.24115   95.727
 4367.00    1.19407   1.21580   99.279
 4368.00    1.15494   1.19191   -1.000
 4369.00    1.15328   1.17565   99.082
 4370.00    1.16779   1.16525   98.501
 4371.00    1.16979   1.15496   98.448
 4372.00    1.16405   1.13858   99.508
 4373.00    1.13952   1.11344  103.817
 4374.00    1.09197   1.08559  107.941
 4375.00    1.06713   1.07074  107.727
 4376.00    1.08840   1.08380  102.982
 4377.00    1.14914   1.11815   -1.000
 4378.00    1.19115   1.15208   -1.000
 4379.00    1.20096   1.16686   -1.000
 4380.00    1.18972   1.15173   -1.000
 4381.00    1.17100   1.10154   -1.000
 4382.00    1.09527   1.02251   -1.000
 4383.00    0.96841   0.93937   -1.000
 4384.00    0.87826   0.89585  129.357
 4385.00    0.90152   0.92025  116.640
 4386.00    1.01224   0.98846  105.612
 4387.00    1.09744   1.05179   -1.000
 4388.00    1.12156   1.08329   -1.000
 4389.00    1.11239   1.09024  104.077
 4390.00    1.09708   1.09254  104.348
 4391.00    1.10484   1.10224  102.162
 4392.00    1.14080   1.11967   99.838
 4393.00    1.16132   1.13401  100.726
 4394.00    1.14346   1.13887  103.086
 4395.00    1.12427   1.14435  102.509
 4396.00    1.14824   1.16245   97.510
 4397.00    1.20323   1.18660   94.800
 4398.00    1.22119   1.19631   96.421
 4399.00    1.19304   1.18465  100.165
 4400.00    1.14313   1.16416  103.085
 4401.00    1.13106   1.14875  101.582
 4402.00    1.15050   1.13761   99.705
 4403.00    1.15535   1.11603   -1.000
 4404.00    1.09879   1.08019  109.898
 4405.00    1.04085   1.05086  110.397
 4406.00    1.06103   1.04822  106.377
 4407.00    1.09472   1.07007  104.987
 4408.00    1.09281   1.10110  104.086
 4409.00    1.10630   1.13888   -1.000
 4410.00    1.16727   1.18857   95.563
 4411.00    1.23447   1.23612   92.380
 4412.00    1.26682   1.25699   91.433
 4413.00    1.26744   1.24190   94.171
 4414.00    1.21657   1.19928   99.851
 4415.00    1.13697   1.15222  103.290
 4416.00    1.10392   1.13204   -1.000
 4417.00    1.12947   1.15450   98.616
 4418.00    1.18225   1.20396   94.472
 4419.00    1.23021   1.25374   91.897
 4420.00    1.24784   1.28045   -1.000
 4421.00    1.22663   1.27602   -1.000
 4422.00    1.19052   1.25439   -1.000
 4423.00    1.16516   1.23513   -1.000
 4424.00    1.17005   1.22739   -1.000
 4425.00    1.18469   1.22504   -1.000
 4426.00    1.17928   1.22023   -1.000
 4427.00    1.17739   1.21820   -1.000
 4428.00    1.19062   1.22332   -1.000
 4429.00    1.19869   1.23135   -1.000
 4430.00    1.18739   1.23856   -1.000
 4431.00    1.17366   1.24261   -1.000
 4432.00    1.19113   1.23976   -1.000
 4433.00    1.18820   1.22273   -1.000
 4434.00    1.14755   1.19007   -1.000
 4435.00    1.10338   1.16206   -1.000
 4436.00    1.11547   1.16660   -1.000
 4437.00    1.18420   1.20809   93.341
 4438.00    1.25522   1.26207   89.547
 4439.00    1.29326   1.29687   89.540
 4440.00    1.28682   1.29609   92.616
 4441.00    1.23706   1.26343   -1.000
 4442.00    1.17471   1.22324   -1.000
 4443.00    1.14185   1.20504   -1.000
 4444.00    1.15859   1.22223   -1.000
 4445.00    1.21856   1.26190   -1.000
 4446.00    1.26653   1.29839   -1.000
 4447.00    1.27638   1.31663   -1.000
 4448.00    1.28022   1.31978   -1.000
 4449.00    1.27693   1.31832   -1.000
 4450.00    1.26621   1.31512   -1.000
 4451.00    1.25324   1.30611   -1.000
 4452.00    1.26196   1.28663   93.705
 4453.00    1.24737   1.24979   97.392
 4454.00    1.19358   1.19916  101.970
 4455.00    1.14419   1.15478  103.890
 4456.00    1.13424   1.13583  101.865
 4457.00    1.15357   1.14297  100.053
 4458.00    1.17197   1.15993  100.250
 4459.00    1.16254   1.17233  100.799
 4460.00    1.15234   1.17938   -1.000
 4461.00    1.14194   1.18728   -1.000
 4462.00    1.14145   1.20119   -1.000
 4463.00    1.17848   1.22448   -1.000
 4464.00    1.22726   1.25235   94.289
 4465.00    1.25050   1.27304   94.296
 4466.00    1.25337   1.27881   -1.000
 4467.00    1.24049   1.27196   -1.000
 4468.00    1.22696   1.26071   -1.000
 4469.00    1.21044   1.25446   -1.000
 4470.00    1.21451   1.26205   -1.000
 4471.00    1.23808   1.28693   -1.000
 4472.00    1.27791   1.32285   -1.000
 4473.00    1.32119   1.35620   -1.000
 4474.00    1.35240   1.37563   86.988
 4475.00    1.36447   1.38166   87.212
 4476.00    1.36332   1.38270   86.375
 4477.00    1.37508   1.38336   85.892
 4478.00    1.38368   1.37778   86.761
 4479.00    1.36343   1.35655   90.169
 4480.00    1.29428   1.31881   -1.000
 4481.00    1.23235   1.28173   -1.000
 4482.00    1.21912   1.26715   -1.000
 4483.00    1.25509   1.28230   -1.000
 4484.00    1.31385   1.32038   87.878
 4485.00    1.35996   1.36300   86.096
 4486.00    1.38162   1.38846   86.361
 4487.00    1.38008   1.38618   88.466
 4488.00    1.33099   1.36360   -1.000
 4489.00    1.27633   1.33647   -1.000
 4490.00    1.26348   1.32132   -1.000
 4491.00    1.28242   1.32627   -1.000
 4492.00    1.32397   1.34220   88.806
 4493.00    1.33371   1.35036   90.336
 4494.00    1.29711   1.34008   -1.000
 4495.00    1.25960   1.32354   -1.000
 4496.00    1.24666   1.31962   -1.000
 4497.00    1.27742   1.33209   -1.000
 4498.00    1.32978   1.35213   88.017
 4499.00    1.36194   1.36994   87.234
 4500.00    1.35635   1.37981   88.404
 4501.00    1.32984   1.38551   -1.000
 4502.00    1.32867   1.39878   -1.000
 4503.00    1.37718   1.42313   -1.000
 4504.00    1.43411   1.45063   81.952
 4505.00    1.44967   1.46950   82.645
 4506.00    1.44280   1.47316   -1.000
 4507.00    1.42725   1.46495   -1.000
 4508.00    1.40889   1.45515   -1.000
 4509.00    1.40905   1.45111   -1.000
 4510.00    1.41816   1.45138   -1.000
 4511.00    1.41963   1.44905   -1.000
 4512.00    1.39894   1.43830   -1.000
 4513.00    1.37704   1.42165   -1.000
 4514.00    1.35475   1.40662   -1.000
 4515.00    1.34996   1.39786   -1.000
 4516.00    1.36074   1.39543   -1.000
 4517.00    1.35619   1.39423   -1.000
 4518.00    1.34024   1.39017   -1.000
 4519.00    1.33583   1.38875   -1.000
 4520.00    1.36899   1.39558   86.166
 4521.00    1.39176   1.40497   86.567
 4522.00    1.37790   1.40579   -1.000
 4523.00    1.34513   1.39275   -1.000
 4524.00    1.32603   1.37049   -1.000
 4525.00    1.30771   1.34502   -1.000
 4526.00    1.28506   1.31530   -1.000
 4527.00    1.24507   1.28003   -1.000
 4528.00    1.20970   1.24698   -1.000
 4529.00    1.20188   1.23052   -1.000
 4530.00    1.21685   1.23535   96.873
 4531.00    1.23914   1.25260   95.099
 4532.00    1.26629   1.26607   94.719
 4533.00    1.26093   1.26318   97.601
 4534.00    1.21777   1.24815   -1.000
 4535.00    1.18939   1.24017   -1.000
 4536.00    1.22344   1.25927   -1.000
 4537.00    1.30928   1.30759   87.867
 4538.00    1.38316   1.36508   85.685
 4539.00    1.40199   1.40427   86.720
 4540.00    1.37857   1.41464   -1.000
 4541.00    1.35419   1.40832   -1.000
 4542.00    1.35734   1.40263   -1.000
 4543.00    1.35793   1.40223   -1.000
 4544.00    1.37158   1.39857   -1.000
 4545.00    1.28967   1.38617   -1.000
 4546.00    0.23183   1.37054   -1.000
 4547.00   -0.04821   1.35669    0.000
 4548.00    0.04169   1.34232   -1.000
 4549.00    0.99096   1.32777   -1.000
 4550.00    0.31417   1.32192   -1.000
 4551.00    0.95073   1.33136   -1.000
 4552.00    1.37695   1.34616   91.973
 4553.00    1.30124   1.35068   -1.000
 4554.00    1.29085   1.34412   -1.000
 4555.00    1.28561   1.33834   -1.000
 4556.00    1.31417   1.34764   -1.000
 4557.00    1.36752   1.37717   85.599
 4558.00    1.41174   1.41493   84.219
 4559.00    1.42854   1.44509   84.808
 4560.00    1.42758   1.46187   -1.000
 4561.00    1.42634   1.46650   -1.000
 4562.00    1.41700   1.46041   -1.000
 4563.00    1.38087   1.44366   -1.000
 4564.00    1.34215   1.42005   -1.000
 4565.00    1.32144   1.40143   -1.000
 4566.00    1.33989   1.40089   -1.000
 4567.00    1.38650   1.42068   -1.000
 4568.00    1.42481   1.44604   83.949
 4569.00    1.43206   1.45814   84.984
 4570.00    1.40590   1.44929   -1.000
 4571.00    1.36133   1.42729   -1.000
 4572.00    1.34324   1.40986   -1.000
 4573.00    1.37008   1.41194   -1.000
 4574.00    1.41394   1.43125   84.750
 4575.00    1.43244   1.45120   84.874
 4576.00    1.41892   1.46046   -1.000
 4577.00    1.40986   1.45788   -1.000
 4578.00    1.40292   1.44370   -1.000
 4579.00    1.37379   1.41789   -1.000
 4580.00    1.33218   1.38722   -1.000
 4581.00    1.30723   1.36328   -1.000
 4582.00    1.31489   1.35471   -1.000
 4583.00    1.33906   1.36058   89.462
 4584.00    1.34561   1.37030   -1.000
 4585.00    1.33850   1.37406   -1.000
 4586.00    1.33712   1.37573   -1.000
 4587.00    1.35877   1.38625   -1.000
 4588.00    1.39602   1.40857   84.789
 4589.00    1.41848   1.43261   84.763
 4590.00    1.42501   1.44378   86.090
 4591.00    1.41105   1.43633   -1.000
 4592.00    1.37100   1.41694   -1.000
 4593.00    1.35149   1.39978   -1.000
 4594.00    1.35690   1.39479   -1.000
 4595.00    1.36579   1.39965   -1.000
 4596.00    1.36610   1.40773   -1.000
 4597.00    1.36716   1.41596   -1.000
 4598.00    1.37476   1.42197   -1.000
 4599.00    1.39113   1.42174   -1.000
 4600.00    1.37530   1.41437   -1.000
 4601.00    1.35810   1.40439   -1.000
 4602.00    1.36524   1.39868   -1.000
 4603.00    1.38139   1.40002   86.992
 4604.00    1.39408   1.40615   87.205
 4605.00    1.39520   1.41439   87.039
 4606.00    1.39807   1.42430   -1.000
 4607.00    1.41752   1.43784   84.294
 4608.00    1.45528   1.45650   82.479
 4609.00    1.48588   1.47806   81.555
 4610.00    1.48875   1.49320   81.999
 4611.00    1.46507   1.49230   83.178
 4612.00    1.44406   1.48031   -1.000
 4613.00    1.43062   1.46844   -1.000
 4614.00    1.43793   1.46327   84.133
 4615.00    1.45068   1.46541   83.362
 4616.00    1.45264   1.46953   83.054
 4617.00    1.44773   1.47022   83.666
 4618.00    1.44275   1.46734   84.291
 4619.00    1.43858   1.46512   84.168
 4620.00    1.44535   1.46868   83.319
 4621.00    1.46197   1.47948   81.959
 4622.00    1.47087   1.49137   82.015
 4623.00    1.47092   1.49586   82.234
 4624.00    1.47833   1.49228   82.392
 4625.00    1.47022   1.48628   83.191
 4626.00    1.46025   1.48034   83.358
 4627.00    1.46804   1.47651   83.300
 4628.00    1.46808   1.47664   83.878
 4629.00    1.45161   1.47902   84.033
 4630.00    1.45051   1.48132   -1.000
 4631.00    1.48175   1.48473   82.572
 4632.00    1.48884   1.48846   83.027
 4633.00    1.46501   1.48606   84.297
 4634.00    1.44727   1.47646   -1.000
 4635.00    1.43628   1.46544   -1.000
 4636.00    1.42957   1.45608   85.809
 4637.00    1.41092   1.44668   -1.000
 4638.00    1.40006   1.43732   -1.000
 4639.00    1.39449   1.43179   -1.000
 4640.00    1.39108   1.43522   -1.000
 4641.00    1.43116   1.44910   83.429
 4642.00    1.47321   1.46757   82.341
 4643.00    1.48341   1.47888   82.767
 4644.00    1.46773   1.47370   84.390
 4645.00    1.43357   1.45307   86.827
 4646.00    1.39881   1.42372   -1.000
 4647.00    1.36589   1.39699   -1.000
 4648.00    1.36170   1.38771   -1.000
 4649.00    1.39066   1.40081   85.691
 4650.00    1.42398   1.42664   84.569
 4651.00    1.44253   1.44926   84.484
 4652.00    1.44848   1.45927   84.304
 4653.00    1.44951   1.45780   85.386
 4654.00    1.43040   1.44824   87.437
 4655.00    1.39523   1.43582   -1.000
 4656.00    1.38320   1.43074   -1.000
 4657.00    1.40063   1.44306   -1.000
 4658.00    1.44295   1.47383   -1.000
 4659.00    1.50902   1.51259   79.570
 4660.00    1.53482   1.54091   79.594
 4661.00    1.52844   1.54681   80.652
 4662.00    1.49147   1.53258   -1.000
 4663.00    1.46047   1.50827   -1.000
 4664.00    1.44353   1.48106   -1.000
 4665.00    1.44194   1.45153   85.882
 4666.00    1.39678   1.41611   89.741
 4667.00    1.33367   1.37754   -1.000
 4668.00    1.28969   1.35121   -1.000
 4669.00    1.30176   1.35333   -1.000
 4670.00    1.36469   1.38277   86.439
 4671.00    1.42662   1.42170   84.183
 4672.00    1.45759   1.45145   83.793
 4673.00    1.46222   1.46620   83.890
 4674.00    1.44772   1.47261   83.791
 4675.00    1.45585   1.48065   82.635
 4676.00    1.47945   1.49183   81.378
 4677.00    1.50715   1.49521   81.895
 4678.00    1.48749   1.48245   83.769
 4679.00    1.45170   1.45798   85.413
 4680.00    1.42538   1.43378   86.808
 4681.00    1.40009   1.41917   87.611
 4682.00    1.40044   1.41652   86.397
 4683.00    1.43209   1.42540   84.142
 4684.00    1.46560   1.44159   83.107
 4685.00    1.47963   1.45688   83.478
 4686.00    1.46981   1.46547   83.490
 4687.00    1.46353   1.46762   84.000
 4688.00    1.46382   1.46605   83.972
 4689.00    1.46432   1.46316   83.981
 4690.00    1.45798   1.46081   84.629
 4691.00    1.44983   1.45899   84.774
 4692.00    1.44841   1.45967   83.692
 4693.00    1.46588   1.46649   82.430
 4694.00    1.48838   1.47791   80.549
 4695.00    1.51261   1.48786   79.572
 4696.00    1.52824   1.49243   80.056
 4697.00    1.51659   1.48786   82.500
 4698.00    1.47567   1.47130   85.002
 4699.00    1.43113   1.44783   85.890
 4700.00    1.42408   1.42532   85.093
 4701.00    1.43097   1.40741   85.823
 4702.00    1.41466   1.39282   87.404
 4703.00    1.38904   1.38386   87.786
 4704.00    1.39333   1.38754   85.985
 4705.00    1.43245   1.40282   84.743
 4706.00    1.44461   1.41560   86.087
 4707.00    1.41925   1.41412   87.852
 4708.00    1.39902   1.40337   88.640
 4709.00    1.38685   1.39878   88.093
 4710.00    1.39638   1.40845   85.360
 4711.00    1.43496   1.42809   83.033
 4712.00    1.48066   1.44913   82.304
 4713.00    1.49297   1.46079   83.195
 4714.00    1.45994   1.45899   84.826
 4715.00    1.43764   1.45456   84.723
 4716.00    1.46433   1.46049   82.934
 4717.00    1.49793   1.47932   81.345
 4718.00    1.51827   1.50180   80.910
 4719.00    1.51611   1.51814   80.635
 4720.00    1.52639   1.52527   80.359
 4721.00    1.52560   1.52543   81.109
 4722.00    1.50681   1.52275   81.677
 4723.00    1.50065   1.52160   81.130
 4724.00    1.52250   1.52349   80.223
 4725.00    1.52598   1.52381   80.413
 4726.00    1.51154   1.51441   82.492
 4727.00    1.46889   1.49035   85.717
 4728.00    1.42047   1.45801   -1.000
 4729.00    1.40690   1.43354   -1.000
 4730.00    1.40937   1.42654   86.159
 4731.00    1.42522   1.43269   85.496
 4732.00    1.43476   1.44484   84.439
 4733.00    1.45281   1.45847   83.726
 4734.00    1.46758   1.46867   83.266
 4735.00    1.48907   1.47237   82.802
 4736.00    1.48475   1.47153   83.785
 4737.00    1.45901   1.46996   83.837
 4738.00    1.47422   1.47202   82.673
 4739.00    1.49982   1.48001   82.785
 4740.00    1.49649   1.48918   83.295
 4741.00    1.48080   1.49348   83.379
 4742.00    1.48206   1.49567   82.660
 4743.00    1.49335   1.50042   81.742
 4744.00    1.50186   1.50670   81.977
 4745.00    1.50785   1.51191   82.041
 4746.00    1.50966   1.51595   81.383
 4747.00    1.51954   1.52175   80.544
 4748.00    1.52707   1.53095   80.417
 4749.00    1.53247   1.54007   80.558
 4750.00    1.53172   1.54613   80.606
 4751.00    1.52202   1.54702   81.230
 4752.00    1.51556   1.53990   82.175
 4753.00    1.49924   1.52461   82.848
 4754.00    1.48195   1.50627   83.409
 4755.00    1.47637   1.49379   83.216
 4756.00    1.46946   1.49162   83.573
 4757.00    1.46356   1.49758   -1.000
 4758.00    1.46576   1.50721   -1.000
 4759.00    1.47780   1.51721   -1.000
 4760.00    1.49360   1.52256   83.405
 4761.00    1.49072   1.51665   84.805
 4762.00    1.45429   1.49668   -1.000
 4763.00    1.42225   1.46804   -1.000
 4764.00    1.40981   1.44337   -1.000
 4765.00    1.40983   1.42952   87.907
 4766.00    1.40847   1.42570   87.261
 4767.00    1.42620   1.43240   86.015
 4768.00    1.45841   1.45212   84.009
 4769.00    1.48907   1.47991   82.892
 4770.00    1.50920   1.50246   83.111
 4771.00    1.50439   1.51059   83.852
 4772.00    1.48139   1.50913   84.596
 4773.00    1.48087   1.50934   83.509
 4774.00    1.51648   1.51896   81.669
 4775.00    1.53735   1.53387   81.187
 4776.00    1.53738   1.54480   81.287
 4777.00    1.53829   1.54806   81.537
 4778.00    1.52657   1.54515   82.089
 4779.00    1.51676   1.53870   83.040
 4780.00    1.50232   1.53034   83.501
 4781.00    1.50063   1.52125   83.694
 4782.00    1.50372   1.51074   84.117
 4783.00    1.48339   1.49892   84.815
 4784.00    1.47775   1.48909   84.734
 4785.00    1.48469   1.48269   85.042
 4786.00    1.47299   1.47843   85.927
 4787.00    1.45889   1.47540   86.399
 4788.00    1.45581   1.47506   86.277
 4789.00    1.45736   1.47918   85.832
 4790.00    1.46144   1.48894   85.296
 4791.00    1.46638   1.50476   -1.000
 4792.00    1.48839   1.52517   -1.000
 4793.00    1.51240   1.54821   -1.000
 4794.00    1.54270   1.57136   79.718
 4795.00    1.56822   1.59082   79.491
 4796.00    1.56876   1.59927   80.359
 4797.00    1.54868   1.59272   -1.000
 4798.00    1.51585   1.57494   -1.000
 4799.00    1.48438   1.55431   -1.000
 4800.00    1.47568   1.54093   -1.000
 4801.00    1.49762   1.54262   -1.000
 4802.00    1.53340   1.55745   80.780
 4803.00    1.55001   1.57332   80.977
 4804.00    1.53688   1.57927   -1.000
 4805.00    1.51719   1.57312   -1.000
 4806.00    1.50050   1.56136   -1.000
 4807.00    1.49044   1.55049   -1.000
 4808.00    1.49216   1.54350   -1.000
 4809.00    1.49958   1.54364   -1.000
 4810.00    1.51037   1.55162   -1.000
 4811.00    1.51926   1.56203   -1.000
 4812.00    1.52295   1.56934   -1.000
 4813.00    1.53294   1.57338   -1.000
 4814.00    1.54130   1.57708   -1.000
 4815.00    1.54099   1.58390   -1.000
 4816.00    1.55059   1.59495   -1.000
 4817.00    1.56319   1.60694   -1.000
 4818.00    1.57408   1.61475   -1.000
 4819.00    1.57199   1.61692   -1.000
 4820.00    1.58259   1.61539   79.556
 4821.00    1.57386   1.60848   80.300
 4822.00    1.55040   1.59101   -1.000
 4823.00    1.51447   1.56406   -1.000
 4824.00    1.48937   1.53879   -1.000
 4825.00    1.50004   1.53103   82.232
 4826.00    1.53840   1.54293   80.973
 4827.00    1.55440   1.56007   81.404
 4828.00    1.54211   1.56867   82.406
 4829.00    1.51015   1.56674   -1.000
 4830.00    1.51466   1.56092   -1.000
 4831.00    1.50722   1.55278   -1.000
 4832.00    1.49868   1.54168   -1.000
 4833.00    1.50526   1.53456   82.330
 4834.00    1.52945   1.53799   81.252
 4835.00    1.53742   1.55011   80.996
 4836.00    1.55004   1.56247   81.153
 4837.00    1.54379   1.56677   81.556
 4838.00    1.53151   1.56118   82.717
 4839.00    1.50662   1.54787   -1.000
 4840.00    1.48604   1.53177   -1.000
 4841.00    1.48110   1.51913   -1.000
 4842.00    1.49200   1.51451   83.564
 4843.00    1.50263   1.51719   82.928
 4844.00    1.50834   1.52462   82.088
 4845.00    1.53813   1.53739   80.769
 4846.00    1.55420   1.55344   80.402
 4847.00    1.55639   1.56216   82.156
 4848.00    1.52331   1.55806   -1.000
 4849.00    1.49716   1.54991   -1.000
 4850.00    1.50942   1.54819   -1.000
 4851.00    1.52719   1.55251   81.910
 4852.00    1.53780   1.55331   82.413
 4853.00    1.52430   1.54362   83.128
 4854.00    1.49596   1.52066   -1.000
 4855.00    1.45889   1.48827   -1.000
 4856.00    1.42623   1.45781   -1.000
 4857.00    1.43364   1.43735   86.880
 4858.00    1.43929   1.41796   89.444
 4859.00    1.38202   1.37180   97.478
 4860.00    1.25744   1.28854   -1.000
 4861.00    1.12600   1.19968   -1.000
 4862.00    1.09775   1.15448   -1.000
 4863.00    1.19040   1.18026   96.902
 4864.00    1.30663   1.25527   -1.000
 4865.00    1.37618   1.33896   88.189
 4866.00    1.41504   1.40551   86.380
 4867.00    1.44714   1.45015   85.642
 4868.00    1.45905   1.47596   85.294
 4869.00    1.46308   1.48313   86.091
 4870.00    1.44617   1.46855   88.618
 4871.00    1.39013   1.43515   -1.000
 4872.00    1.36544   1.40241   -1.000
 4873.00    1.38755   1.39839   87.201
 4874.00    1.43141   1.42792   85.737
 4875.00    1.45353   1.46891   85.110
 4876.00    1.46013   1.49662   -1.000
 4877.00    1.46748   1.50739   -1.000
 4878.00    1.47706   1.51552   -1.000
 4879.00    1.49869   1.53123   82.231
 4880.00    1.51809   1.54974   83.040
 4881.00    1.50244   1.55928   -1.000
 4882.00    1.48300   1.55487   -1.000
 4883.00    1.47672   1.54472   -1.000
 4884.00    1.48124   1.53412   -1.000
 4885.00    1.46465   1.51961   -1.000
 4886.00    1.44679   1.50174   -1.000
 4887.00    1.44247   1.48719   -1.000
 4888.00    1.44486   1.47906   -1.000
 4889.00    1.44894   1.47015   87.598
 4890.00    1.42596   1.45164   89.584
 4891.00    1.39544   1.43150   -1.000
 4892.00    1.41073   1.43248   85.177
 4893.00    1.48359   1.47156   81.178
 4894.00    1.56714   1.53939   78.842
 4895.00    1.61029   1.60453   77.396
 4896.00    1.62793   1.64543   77.068
 4897.00    1.62934   1.66036   77.257
 4898.00    1.61838   1.65701   -1.000
 4899.00    1.59097   1.64247   -1.000
 4900.00    1.55269   1.62464   -1.000
 4901.00    1.53918   1.60995   -1.000
 4902.00    1.54916   1.59860   -1.000
 4903.00    1.54136   1.58641   -1.000
 4904.00    1.53211   1.57615   -1.000
 4905.00    1.55589   1.57990   79.707
 4906.00    1.58308   1.59935   79.133
 4907.00    1.59303   1.61699   79.922
 4908.00    1.57460   1.61621   -1.000
 4909.00    1.52478   1.59399   -1.000
 4910.00    1.48159   1.56296   -1.000
 4911.00    1.47379   1.54055   -1.000
 4912.00    1.49407   1.53924   -1.000
 4913.00    1.52284   1.55679   81.454
 4914.00    1.54863   1.58146   80.394
 4915.00    1.58008   1.60244   79.695
 4916.00    1.59391   1.61055   80.117
 4917.00    1.57087   1.59279   83.030
 4918.00    1.50780   1.54319   -1.000
 4919.00    1.42849   1.47160   -1.000
 4920.00    1.36593   1.40655   -1.000
 4921.00    1.37098   1.37790   89.611
 4922.00    1.41515   1.39442   86.336
 4923.00    1.46714   1.43741   85.123
 4924.00    1.48822   1.47897   85.086
 4925.00    1.48542   1.50855   83.963
 4926.00    1.51524   1.53442   81.716
 4927.00    1.54396   1.56497   80.281
 4928.00    1.56926   1.59850   79.551
 4929.00    1.59699   1.62671   79.013
 4930.00    1.60831   1.64357   78.537
 4931.00    1.61220   1.64559   79.360
 4932.00    1.59530   1.62896   81.585
 4933.00    1.54381   1.59561   -1.000
 4934.00    1.50413   1.56102   -1.000
 4935.00    1.50648   1.54183   -1.000
 4936.00    1.52998   1.53932   83.114
 4937.00    1.51683   1.53451   85.673
 4938.00    1.47329   1.51257   -1.000
 4939.00    1.43546   1.48880   -1.000
 4940.00    1.46491   1.48887   84.104
 4941.00    1.52997   1.52194   81.408
 4942.00    1.58086   1.57123   79.942
 4943.00    1.60727   1.61158   79.236
 4944.00    1.61720   1.63080   79.321
 4945.00    1.61452   1.63174   79.909
 4946.00    1.59162   1.62514   80.068
 4947.00    1.58256   1.62312   -1.000
 4948.00    1.60806   1.63302   78.361
 4949.00    1.62718   1.65067   78.150
 4950.00    1.63321   1.66470   77.815
 4951.00    1.64073   1.66818   78.250
 4952.00    1.62905   1.66283   78.793
 4953.00    1.60499   1.65240   -1.000
 4954.00    1.59979   1.63696   80.719
 4955.00    1.59589   1.60956   82.924
 4956.00    1.55418   1.55870   87.306
 4957.00    1.46814   1.49044   90.805
 4958.00    1.41549   1.44011   88.799
 4959.00    1.46786   1.44103   83.582
 4960.00    1.56455   1.49257   -1.000
 4961.00    1.62071   1.55721   -1.000
 4962.00    1.61491   1.60060   80.620
 4963.00    1.60588   1.61556   81.274
 4964.00    1.59459   1.60999   82.250
 4965.00    1.56607   1.59167   84.032
 4966.00    1.53583   1.56909   -1.000
 4967.00    1.52318   1.55066   85.085
 4968.00    1.52902   1.54070   84.828
 4969.00    1.52837   1.53967   84.187
 4970.00    1.54064   1.54760   83.276
 4971.00    1.55423   1.56265   82.382
 4972.00    1.57888   1.58170   81.392
 4973.00    1.59688   1.60094   80.630
 4974.00    1.61349   1.61667   80.316
 4975.00    1.61001   1.62442   80.906
 4976.00    1.60618   1.62263   81.770
 4977.00    1.57901   1.61162   82.892
 4978.00    1.55072   1.59376   -1.000
 4979.00    1.52984   1.57209   -1.000
 4980.00    1.51539   1.54709   86.497
 4981.00    1.49261   1.51348   89.413
 4982.00    1.44314   1.46676   92.323
 4983.00    1.40060   1.41877   92.231
 4984.00    1.40150   1.39319   90.440
 4985.00    1.43726   1.40557   87.870
 4986.00    1.48164   1.44814   85.065
 4987.00    1.53468   1.49929   82.972
 4988.00    1.56212   1.53969   83.111
 4989.00    1.55572   1.55775   84.380
 4990.00    1.53923   1.55402   85.238
 4991.00    1.52788   1.54116   85.249
 4992.00    1.53442   1.53434   84.460
 4993.00    1.55343   1.53814   84.117
 4994.00    1.55172   1.54708   84.088
 4995.00    1.54881   1.55582   83.640
 4996.00    1.56430   1.56368   83.224
 4997.00    1.56454   1.56888   83.759
 4998.00    1.55371   1.56474   84.904
 4999.00    1.53445   1.54503   86.646
 5000.00    1.49905   1.51386   87.712
 5001.00    1.48124   1.48448   87.742
 5002.00    1.49390   1.47019   86.880
 5003.00    1.51160   1.47212   -1.000
 5004.00    1.51796   1.47708   -1.000
 5005.00    1.49170   1.46951   89.891
 5006.00    1.45335   1.44778   90.341
 5007.00    1.44965   1.43206   88.042
 5008.00    1.49337   1.44226   -1.000
 5009.00    1.53765   1.47444   -1.000
 5010.00    1.54905   1.50508   -1.000
 5011.00    1.52478   1.51059   88.276
 5012.00    1.48417   1.48607   91.623
 5013.00    1.42810   1.44570   93.721
 5014.00    1.39807   1.41263   93.189
 5015.00    1.40473   1.40030   91.071
 5016.00    1.44340   1.40715   89.165
 5017.00    1.46952   1.42257   -1.000
 5018.00    1.46277   1.43839   88.869
 5019.00    1.47370   1.45480   87.822
 5020.00    1.50240   1.47135   87.112
 5021.00    1.51370   1.48199   87.535
 5022.00    1.50008   1.48372   87.723
 5023.00    1.49638   1.48195   87.198
 5024.00    1.50797   1.48870   86.258
 5025.00    1.53204   1.50630   85.690
 5026.00    1.53593   1.51992   86.132
 5027.00    1.52343   1.51962   86.547
 5028.00    1.51513   1.51331   85.715
 5029.00    1.53363   1.51423   84.068
 5030.00    1.55917   1.52851   82.882
 5031.00    1.57987   1.55290   81.527
 5032.00    1.60138   1.57891   80.600
 5033.00    1.62161   1.59703   80.767
 5034.00    1.61650   1.59703   83.452
 5035.00    1.56556   1.57311   86.804
 5036.00    1.51000   1.53581   88.177
 5037.00    1.48852   1.50351   88.450
 5038.00    1.48821   1.48368   89.573
 5039.00    1.46465   1.46207   93.194
 5040.00    1.40452   1.42344   97.008
 5041.00    1.35009   1.38305   -1.000
 5042.00    1.35984   1.37304   92.075
 5043.00    1.44645   1.41008   86.326
 5044.00    1.53796   1.47851   -1.000
 5045.00    1.59279   1.54651   -1.000
 5046.00    1.66355   1.59222   -1.000
 5047.00    1.45600   1.60818   -1.000
 5048.00    0.72789   1.59487   -1.000
 5049.00    0.06064   1.56000   -1.000
 5050.00    0.34685   1.52037   -1.000
 5051.00    1.41668   1.49448   -1.000
 5052.00    1.53538   1.49342   -1.000
 5053.00    1.54963   1.51541   82.870
 5054.00    1.59235   1.54906   -1.000
 5055.00    1.62872   1.57808   -1.000
 5056.00    1.64213   1.59632   -1.000
 5057.00    1.64489   1.60755   -1.000
 5058.00    1.64405   1.61623   80.702
 5059.00    1.63342   1.62390   80.663
 5060.00    1.63602   1.63007   80.092
 5061.00    1.64009   1.63353   80.160
 5062.00    1.65187   1.63155   81.284
 5063.00    1.62924   1.61579   83.711
 5064.00    1.57540   1.58178   86.728
 5065.00    1.52117   1.54297   87.647
 5066.00    1.51364   1.51784   86.504
 5067.00    1.53551   1.51389   85.181
 5068.00    1.54847   1.52188   84.951
 5069.00    1.55541   1.53075   84.541
 5070.00    1.57515   1.53788   -1.000
 5071.00    1.58548   1.54236   -1.000
 5072.00    1.56949   1.53973   85.378
 5073.00    1.55488   1.53223   84.255
 5074.00    1.57255   1.53013   -1.000
 5075.00    1.58727   1.53724   -1.000
 5076.00    1.58801   1.54595   -1.000
 5077.00    1.58195   1.54505   -1.000
 5078.00    1.56629   1.52747   -1.000
 5079.00    1.50411   1.49278   91.578
 5080.00    1.44056   1.45567   92.501
 5081.00    1.44120   1.43567   90.429
 5082.00    1.48042   1.43845   -1.000
 5083.00    1.50545   1.45594   -1.000
 5084.00    1.52637   1.47878   -1.000
 5085.00    1.56223   1.50515   -1.000
 5086.00    1.58575   1.53379   -1.000
 5087.00    1.59504   1.55752   -1.000
 5088.00    1.60171   1.57130   83.104
 5089.00    1.60799   1.57786   82.494
 5090.00    1.61349   1.58293   82.046
 5091.00    1.61398   1.59007   81.621
 5092.00    1.62940   1.60070   80.654
 5093.00    1.64714   1.61347   79.939
 5094.00    1.66550   1.62151   -1.000
 5095.00    1.66812   1.61459   -1.000
 5096.00    1.60567   1.58718   84.254
 5097.00    1.56762   1.54737   86.310
 5098.00    1.52992   1.50945   88.108
 5099.00    1.49623   1.48651   88.321
 5100.00    1.50553   1.48568   86.044
 5101.00    1.55842   1.50665   -1.000
 5102.00    1.60578   1.53611   -1.000
 5103.00    1.60540   1.55589   -1.000
 5104.00    1.58570   1.55890   84.544
 5105.00    1.57028   1.54911   85.612
 5106.00    1.56221   1.53221   86.659
 5107.00    1.53399   1.51216   87.750
 5108.00    1.52334   1.49449   87.559
 5109.00    1.52336   1.48593   -1.000
 5110.00    1.52890   1.49044   -1.000
 5111.00    1.54443   1.50719   -1.000
 5112.00    1.57089   1.53114   -1.000
 5113.00    1.60242   1.55462   -1.000
 5114.00    1.61130   1.57444   -1.000
 5115.00    1.61913   1.59180   81.857
 5116.00    1.63508   1.60750   80.970
 5117.00    1.65172   1.61949   80.301
 5118.00    1.66629   1.62531   -1.000
 5119.00    1.65932   1.62303   -1.000
 5120.00    1.63730   1.61076   82.917
 5121.00    1.60808   1.58970   84.294
 5122.00    1.57994   1.56323   86.508
 5123.00    1.54192   1.53450   89.143
 5124.00    1.50552   1.50593   89.664
 5125.00    1.49494   1.48447   88.799
 5126.00    1.50778   1.47606   88.385
 5127.00    1.52353   1.47887   -1.000
 5128.00    1.52105   1.48441   -1.000
 5129.00    1.51494   1.48829   87.920
 5130.00    1.52041   1.49287   86.720
 5131.00    1.54061   1.50251   -1.000
 5132.00    1.56358   1.51835   -1.000
 5133.00    1.57942   1.53589   -1.000
 5134.00    1.60291   1.55021   -1.000
 5135.00    1.61433   1.55890   -1.000
 5136.00    1.61782   1.55968   -1.000
 5137.00    1.59064   1.54856   -1.000
 5138.00    1.54413   1.52753   87.843
 5139.00    1.51288   1.50453   87.901
 5140.00    1.51133   1.48960   87.064
 5141.00    1.52892   1.48564   -1.000
 5142.00    1.52523   1.48772   -1.000
 5143.00    1.50841   1.49162   88.642
 5144.00    1.51705   1.49734   87.097
 5145.00    1.53134   1.50391   86.857
 5146.00    1.53636   1.50564   87.730
 5147.00    1.52920   1.49944   87.913
 5148.00    1.52330   1.49413   86.764
 5149.00    1.54818   1.49905   -1.000
 5150.00    1.55537   1.50627   -1.000
 5151.00    1.53445   1.50407   89.091
 5152.00    1.51354   1.49276   89.623
 5153.00    1.50444   1.48080   89.114
 5154.00    1.51396   1.47701   -1.000
 5155.00    1.54008   1.48760   -1.000
 5156.00    1.57666   1.51451   -1.000
 5157.00    1.61768   1.54977   -1.000
 5158.00    1.64323   1.58171   -1.000
 5159.00    1.65265   1.60264   -1.000
 5160.00    1.65304   1.61175   -1.000
 5161.00    1.65226   1.61044   -1.000
 5162.00    1.64462   1.59850   -1.000
 5163.00    1.61634   1.57533   -1.000
 5164.00    1.59445   1.53925   -1.000
 5165.00    1.53806   1.48181   -1.000
 5166.00    1.40867   1.39383  104.701
 5167.00    1.26928   1.29247  111.533
 5168.00    1.20743   1.21725  108.775
 5169.00    1.26080   1.20236   -1.000
 5170.00    1.34564   1.22831   -1.000
 5171.00    1.34730   1.23746   -1.000
 5172.00    1.24016   1.20842   -1.000
 5173.00    1.16192   1.17600  110.164
 5174.00    1.24553   1.19632   -1.000
 5175.00    1.40757   1.28075   -1.000
 5176.00    1.53302   1.38637   -1.000
 5177.00    1.58761   1.46780   -1.000
 5178.00    1.60104   1.50990   -1.000
 5179.00    1.60133   1.51933   -1.000
 5180.00    1.58446   1.49981   -1.000
 5181.00    1.52479   1.44282   -1.000
 5182.00    1.40182   1.34930   -1.000
 5183.00    1.24316   1.24350  116.275
 5184.00    1.15605   1.17750  110.110
 5185.00    1.23616   1.19123   -1.000
 5186.00    1.41570   1.27706   -1.000
 5187.00    1.54131   1.38645   -1.000
 5188.00    1.58032   1.46873   -1.000
 5189.00    1.59996   1.51046   -1.000
 5190.00    1.60682   1.52295   -1.000
 5191.00    1.57782   1.51346   -1.000
 5192.00    1.51283   1.48786   91.917
 5193.00    1.48954   1.46302   91.029
 5194.00    1.50530   1.45450   -1.000
 5195.00    1.53249   1.46543   -1.000
 5196.00    1.55864   1.48717   -1.000
 5197.00    1.58119   1.51350   -1.000
 5198.00    1.61252   1.54391   -1.000
 5199.00    1.63859   1.57411   -1.000
 5200.00    1.64703   1.59542   -1.000
 5201.00    1.64706   1.60175   -1.000
 5202.00    1.63431   1.58978   -1.000
 5203.00    1.61294   1.55871   -1.000
 5204.00    1.57464   1.51183   -1.000
 5205.00    1.52350   1.45797   -1.000
 5206.00    1.48765   1.41073   -1.000
 5207.00    1.48038   1.38055   -1.000
 5208.00    1.46856   1.36826   -1.000
 5209.00    1.46582   1.37181   -1.000
 5210.00    1.48866   1.39553   -1.000
 5211.00    1.54466   1.44277   -1.000
 5212.00    1.61511   1.50807   -1.000
 5213.00    1.67172   1.57021   -1.000
 5214.00    1.68409   1.60632   -1.000
 5215.00    1.65300   1.60730   -1.000
 5216.00    1.62347   1.58703   84.824
 5217.00    1.60794   1.57181   84.012
 5218.00    1.62349   1.57941   -1.000
 5219.00    1.66482   1.60902   -1.000
 5220.00    1.69584   1.64472   -1.000
 5221.00    1.71184   1.67200   80.026
 5222.00    1.71346   1.68199   81.154
 5223.00    1.67613   1.67033   83.732
 5224.00    1.62617   1.63444   87.256
 5225.00    1.56245   1.57512   91.386
 5226.00    1.49542   1.50530   93.803
 5227.00    1.46367   1.45518   91.521
 5228.00    1.50524   1.45087   -1.000
 5229.00    1.58835   1.49448   -1.000
 5230.00    1.66030   1.55450   -1.000
 5231.00    1.68809   1.59539   -1.000
 5232.00    1.66651   1.60289   -1.000
 5233.00    1.63342   1.58727   -1.000
 5234.00    1.61834   1.57185   -1.000
 5235.00    1.62218   1.57743   -1.000
 5236.00    1.66032   1.60775   -1.000
 5237.00    1.69878   1.64866   -1.000
 5238.00    1.72416   1.68250   -1.000
 5239.00    1.72809   1.69971   79.731
 5240.00    1.72367   1.70257   79.560
 5241.00    1.72763   1.69784   79.067
 5242.00    1.72828   1.69151   79.232
 5243.00    1.73319   1.68879   -1.000
 5244.00    1.73638   1.69237   -1.000
 5245.00    1.74119   1.69516   -1.000
 5246.00    1.71003   1.68442   83.232
 5247.00    1.64786   1.65820   85.119
 5248.00    1.61972   1.62792   85.215
 5249.00    1.62631   1.60750   85.375
 5250.00    1.62297   1.59949   85.954
 5251.00    1.60800   1.59882   85.476
 5252.00    1.61942   1.60296   84.236
 5253.00    1.64612   1.61094   83.428
 5254.00    1.65034   1.61836   83.501
 5255.00    1.64681   1.62489   82.853
 5256.00    1.66795   1.63870   80.821
 5257.00    1.71260   1.66372   -1.000
 5258.00    1.75793   1.69295   -1.000
 5259.00    1.77124   1.71029   -1.000
 5260.00    1.74637   1.70251   -1.000
 5261.00    1.69192   1.66593   84.659
 5262.00    1.61843   1.60676   88.725
 5263.00    1.55177   1.53741   91.714
 5264.00    1.49884   1.47336   93.518
 5265.00    1.46697   1.42838   -1.000
 5266.00    1.46239   1.41118   -1.000
 5267.00    1.50315   1.41553   -1.000
 5268.00    1.53227   1.41945   -1.000
 5269.00    1.48836   1.40572   -1.000
 5270.00    1.42975   1.38211   -1.000
 5271.00    1.46677   1.38332   -1.000
 5272.00    1.57182   1.42658   -1.000
 5273.00    1.63260   1.48873   -1.000
 5274.00    1.64025   1.53888   -1.000
 5275.00    1.63427   1.56874   -1.000
 5276.00    1.64004   1.59179   -1.000
 5277.00    1.68686   1.62323   -1.000
 5278.00    1.74886   1.66267   -1.000
 5279.00    1.77710   1.69355   -1.000
 5280.00    1.75811   1.69670   -1.000
 5281.00    1.70977   1.67152   82.690
 5282.00    1.66587   1.63397   84.154
 5283.00    1.63552   1.60330   84.490
 5284.00    1.63892   1.59451   -1.000
 5285.00    1.68394   1.61647   -1.000
 5286.00    1.65709   1.66173   77.516
 5287.00    1.76197   1.71034   -1.000
 5288.00    1.80433   1.74330   -1.000
 5289.00    1.78451   1.75764   77.498
 5290.00    1.79719   1.76233   77.012
 5291.00    1.80506   1.76312   -1.000
 5292.00    1.80420   1.76050   -1.000
 5293.00    1.78949   1.75556   78.122
 5294.00    1.77953   1.74644   79.183
 5295.00    1.75700   1.72663   81.421
 5296.00    1.70342   1.68988   84.627
 5297.00    1.64062   1.63887   86.820
 5298.00    1.59573   1.59419   86.069
 5299.00    1.60588   1.57813   83.770
 5300.00    1.65677   1.59223   -1.000
 5301.00    1.68810   1.62011   -1.000
 5302.00    1.70035   1.64642   -1.000
 5303.00    1.72954   1.67160   -1.000
 5304.00    1.77539   1.70194   -1.000
 5305.00    1.81496   1.73094   -1.000
 5306.00    1.80967   1.74690   -1.000
 5307.00    1.78150   1.74761   78.482
 5308.00    1.78497   1.74313   -1.000
 5309.00    1.80167   1.74658   -1.000
 5310.00    1.81870   1.75964   -1.000
 5311.00    1.82630   1.77340   -1.000
 5312.00    1.82081   1.77859   -1.000
 5313.00    1.81364   1.77268   -1.000
 5314.00    1.80463   1.75892   -1.000
 5315.00    1.79845   1.74162   -1.000
 5316.00    1.77059   1.72358   -1.000
 5317.00    1.75443   1.71115   -1.000
 5318.00    1.76396   1.71070   -1.000
 5319.00    1.77757   1.72128   -1.000
 5320.00    1.79238   1.73188   -1.000
 5321.00    1.78089   1.73107   -1.000
 5322.00    1.76579   1.71578   -1.000
 5323.00    1.74821   1.68865   -1.000
 5324.00    1.71400   1.65725   -1.000
 5325.00    1.70051   1.62857   -1.000
 5326.00    1.68980   1.59974   -1.000
 5327.00    1.63683   1.55815   -1.000
 5328.00    1.53492   1.50405   93.371
 5329.00    1.50306   1.46906   89.277
 5330.00    1.58565   1.48319   -1.000
 5331.00    1.67891   1.54296   -1.000
 5332.00    1.72129   1.61142   -1.000
 5333.00    1.73326   1.65894   -1.000
 5334.00    1.74966   1.68688   -1.000
 5335.00    1.78193   1.70711   -1.000
 5336.00    1.79438   1.72072   -1.000
 5337.00    1.78202   1.72256   -1.000
 5338.00    1.76760   1.71014   -1.000
 5339.00    1.74177   1.68397   -1.000
 5340.00    1.69546   1.64950   -1.000
 5341.00    1.66892   1.62268   -1.000
 5342.00    1.69732   1.62053   -1.000
 5343.00    1.74807   1.64477   -1.000
 5344.00    1.76683   1.67482   -1.000
 5345.00    1.76183   1.68944   -1.000
 5346.00    1.75733   1.68494   -1.000
 5347.00    1.75733   1.67077   -1.000
 5348.00    1.74960   1.65767   -1.000
 5349.00    1.72887   1.65195   -1.000
 5350.00    1.72392   1.65786   -1.000
 5351.00    1.75179   1.67713   -1.000
 5352.00    1.78658   1.70538   -1.000
 5353.00    1.79446   1.73168   -1.000
 5354.00    1.80654   1.75015   -1.000
 5355.00    1.83205   1.76600   -1.000
 5356.00    1.85745   1.78287   -1.000
 5357.00    1.85468   1.79764   -1.000
 5358.00    1.86229   1.80511   -1.000
 5359.00    1.86570   1.80427   -1.000
 5360.00    1.85617   1.79658   -1.000
 5361.00    1.83264   1.78201   -1.000
 5362.00    1.80511   1.76123   -1.000
 5363.00    1.77370   1.73773   79.758
 5364.00    1.75921   1.71470   -1.000
 5365.00    1.74749   1.69569   -1.000
 5366.00    1.73480   1.68452   -1.000
 5367.00    1.74693   1.68085   -1.000
 5368.00    1.75487   1.67589   -1.000
 5369.00    1.73219   1.65778   -1.000
 5370.00    1.69041   1.62216   -1.000
 5371.00    1.64119   1.58228   -1.000
 5372.00    1.64467   1.56360   -1.000
 5373.00    1.70726   1.58406   -1.000
 5374.00    1.79333   1.63898   -1.000
 5375.00    1.83507   1.70069   -1.000
 5376.00    1.83869   1.74413   -1.000
 5377.00    1.83594   1.76313   -1.000
 5378.00    1.83324   1.76640   -1.000
 5379.00    1.82897   1.76355   -1.000
 5380.00    1.80785   1.75753   -1.000
 5381.00    1.79923   1.74740   -1.000
 5382.00    1.78758   1.73346   -1.000
 5383.00    1.77466   1.71990   -1.000
 5384.00    1.78296   1.71446   -1.000
 5385.00    1.80040   1.72266   -1.000
 5386.00    1.82405   1.74106   -1.000
 5387.00    1.82522   1.75725   -1.000
 5388.00    1.80923   1.76091   -1.000
 5389.00    1.78818   1.74984   80.358
 5390.00    1.76697   1.72940   81.226
 5391.00    1.75174   1.70745   -1.000
 5392.00    1.74075   1.68929   -1.000
 5393.00    1.73842   1.67615   -1.000
 5394.00    1.73306   1.66733   -1.000
 5395.00    1.72864   1.65747   -1.000
 5396.00    1.70450   1.63984   -1.000
 5397.00    1.66480   1.61788   -1.000
 5398.00    1.66791   1.60556   -1.000
 5399.00    1.71921   1.61763   -1.000
 5400.00    1.76653   1.64961   -1.000
 5401.00    1.76790   1.68138   -1.000
 5402.00    1.76184   1.69590   -1.000
 5403.00    1.74882   1.68513   -1.000
 5404.00    1.69781   1.64881   -1.000
 5405.00    1.64449   1.60171   -1.000
 5406.00    1.62588   1.56874   -1.000
 5407.00    1.65525   1.56533   -1.000
 5408.00    1.69894   1.58527   -1.000
 5409.00    1.70062   1.60552   -1.000
 5410.00    1.68206   1.61433   -1.000
 5411.00    1.70349   1.62370   -1.000
 5412.00    1.75625   1.64645   -1.000
 5413.00    1.79963   1.67904   -1.000
 5414.00    1.80369   1.70587   -1.000
 5415.00    1.79373   1.71995   -1.000
 5416.00    1.80179   1.73045   -1.000
 5417.00    1.81705   1.74403   -1.000
 5418.00    1.82581   1.75684   -1.000
 5419.00    1.81504   1.76259   -1.000
 5420.00    1.79677   1.75991   79.593
 5421.00    1.79272   1.75272   -1.000
 5422.00    1.80377   1.74399   -1.000
 5423.00    1.80303   1.73215   -1.000
 5424.00    1.77757   1.71923   -1.000
 5425.00    1.75754   1.71403   -1.000
 5426.00    1.77708   1.72465   -1.000
 5427.00    1.81811   1.74172   -1.000
 5428.00    1.81233   1.74003   -1.000
 5429.00    1.75404   1.71066   -1.000
 5430.00    1.70862   1.67158   -1.000
 5431.00    1.71736   1.65017   -1.000
 5432.00    1.74924   1.65251   -1.000
 5433.00    1.74381   1.65841   -1.000
 5434.00    1.71581   1.65281   -1.000
 5435.00    1.69605   1.64255   -1.000
 5436.00    1.70753   1.64595   -1.000
 5437.00    1.73974   1.67388   -1.000
 5438.00    1.79246   1.71825   -1.000
 5439.00    1.83813   1.76132   -1.000
 5440.00    1.85649   1.79068   -1.000
 5441.00    1.87576   1.80736   -1.000
 5442.00    1.87484   1.81562   -1.000
 5443.00    1.86477   1.81310   -1.000
 5444.00    1.83912   1.79251   -1.000
 5445.00    1.78269   1.74937   83.022
 5446.00    1.70966   1.69376   85.687
 5447.00    1.67321   1.64793   84.724
 5448.00    1.69870   1.63402   -1.000
 5449.00    1.77143   1.65721   -1.000
 5450.00    1.82376   1.69845   -1.000
 5451.00    1.83425   1.73361   -1.000
 5452.00    1.83219   1.74848   -1.000
 5453.00    1.81483   1.73930   -1.000
 5454.00    1.77968   1.70870   -1.000
 5455.00    1.71214   1.66804   -1.000
 5456.00    1.69067   1.63920   -1.000
 5457.00    1.73821   1.64468   -1.000
 5458.00    1.81213   1.68186   -1.000
 5459.00    1.84812   1.72541   -1.000
 5460.00    1.85213   1.74930   -1.000
 5461.00    1.80766   1.74513   -1.000
 5462.00    1.77590   1.72213   -1.000
 5463.00    1.76321   1.69755   -1.000
 5464.00    1.76220   1.68651   -1.000
 5465.00    1.78795   1.69378   -1.000
 5466.00    1.81447   1.71313   -1.000
 5467.00    1.81862   1.73358   -1.000
 5468.00    1.82472   1.74874   -1.000
 5469.00    1.83732   1.75734   -1.000
 5470.00    1.81961   1.75814   -1.000
 5471.00    1.80706   1.75178   -1.000
 5472.00    1.80614   1.74166   -1.000
 5473.00    1.78864   1.72907   -1.000
 5474.00    1.77445   1.71161   -1.000
 5475.00    1.74667   1.68653   -1.000
 5476.00    1.71068   1.65639   -1.000
 5477.00    1.68372   1.63426   -1.000
 5478.00    1.70019   1.63408   -1.000
 5479.00    1.76536   1.65660   -1.000
 5480.00    1.79458   1.68444   -1.000
 5481.00    1.76387   1.69826   -1.000
 5482.00    1.73912   1.69977   83.167
 5483.00    1.75191   1.70448   -1.000
 5484.00    1.78730   1.72172   -1.000
 5485.00    1.82133   1.74478   -1.000
 5486.00    1.83083   1.75838   -1.000
 5487.00    1.81508   1.75523   -1.000
 5488.00    1.78621   1.74178   -1.000
 5489.00    1.77837   1.73175   -1.000
 5490.00    1.79075   1.73304   -1.000
 5491.00    1.80564   1.74200   -1.000
 5492.00    1.81393   1.75118   -1.000
 5493.00    1.82095   1.75639   -1.000
 5494.00    1.81884   1.75802   -1.000
 5495.00    1.82238   1.75648   -1.000
 5496.00    1.82302   1.74984   -1.000
 5497.00    1.80204   1.73889   -1.000
 5498.00    1.79825   1.72942   -1.000
 5499.00    1.82369   1.72667   -1.000
 5500.00    1.83788   1.72752   -1.000
 5501.00    1.81644   1.72196   -1.000
 5502.00    1.78992   1.70914   -1.000
 5503.00    1.78317   1.70053   -1.000
 5504.00    1.80431   1.70039   -1.000
 5505.00    1.80982   1.70104   -1.000
 5506.00    1.77971   1.69475   -1.000
 5507.00    1.75716   1.68526   -1.000
 5508.00    1.78323   1.68565   -1.000
 5509.00    1.81679   1.69876   -1.000
 5510.00    1.82060   1.71310   -1.000
 5511.00    1.79794   1.71442   -1.000
 5512.00    1.76703   1.69860   -1.000
 5513.00    1.73571   1.67555   -1.000
 5514.00    1.72407   1.66084   -1.000
 5515.00    1.75303   1.66398   -1.000
 5516.00    1.78804   1.68268   -1.000
 5517.00    1.81927   1.70939   -1.000
 5518.00    1.85409   1.73731   -1.000
 5519.00    1.87444   1.76118   -1.000
 5520.00    1.87677   1.77669   -1.000
 5521.00    1.86954   1.78293   -1.000
 5522.00    1.86849   1.78325   -1.000
 5523.00    1.85953   1.78196   -1.000
 5524.00    1.84987   1.77853   -1.000
 5525.00    1.84401   1.76705   -1.000
 5526.00    1.81881   1.74306   -1.000
 5527.00    1.77492   1.70855   -1.000
 5528.00    1.72927   1.67621   -1.000
 5529.00    1.72595   1.66306   -1.000
 5530.00    1.76799   1.67885   -1.000
 5531.00    1.81836   1.71339   -1.000
 5532.00    1.83214   1.74378   -1.000
 5533.00    1.82344   1.75623   -1.000
 5534.00    1.81323   1.75292   -1.000
 5535.00    1.80713   1.74428   -1.000
 5536.00    1.80816   1.73993   -1.000
 5537.00    1.82027   1.74370   -1.000
 5538.00    1.83336   1.75191   -1.000
 5539.00    1.84068   1.76011   -1.000
 5540.00    1.87278   1.76883   -1.000
 5541.00    1.88520   1.77781   -1.000
 5542.00    1.87427   1.78105   -1.000
 5543.00    1.84930   1.77528   -1.000
 5544.00    1.83713   1.76536   -1.000
 5545.00    1.83234   1.75976   -1.000
 5546.00    1.84422   1.76189   -1.000
 5547.00    1.85354   1.76917   -1.000
 5548.00    1.86907   1.77994   -1.000
 5549.00    1.89135   1.79343   -1.000
 5550.00    1.90716   1.80495   -1.000
 5551.00    1.90778   1.80990   -1.000
 5552.00    1.88904   1.80689   -1.000
 5553.00    1.86895   1.79723   -1.000
 5554.00    1.85315   1.78533   -1.000
 5555.00    1.84996   1.77729   -1.000
 5556.00    1.85577   1.77605   -1.000
 5557.00    1.86114   1.77875   -1.000
 5558.00    1.86601   1.78218   -1.000
 5559.00    1.86540   1.78604   -1.000
 5560.00    1.86509   1.78867   -1.000
 5561.00    1.86285   1.78571   -1.000
 5562.00    1.84800   1.77546   -1.000
 5563.00    1.83303   1.76215   -1.000
 5564.00    1.81833   1.75126   -1.000
 5565.00    1.80796   1.74400   -1.000
 5566.00    1.81043   1.73857   -1.000
 5567.00    1.80955   1.73400   -1.000
 5568.00    1.81077   1.73068   -1.000
 5569.00    1.81212   1.72863   -1.000
 5570.00    1.81040   1.72738   -1.000
 5571.00    1.81116   1.72584   -1.000
 5572.00    1.81482   1.72274   -1.000
 5573.00    1.80188   1.71877   -1.000
 5574.00    1.79180   1.71929   -1.000
 5575.00    1.75983   1.72755   80.122
 5576.00    1.68971   1.73862   -1.000
 5577.00    1.79759   1.74877   -1.000
 5578.00    1.91586   1.75954   -1.000
 5579.00    1.91197   1.77053   -1.000
 5580.00    1.94682   1.77772   -1.000
 5581.00    1.90540   1.77910   -1.000
 5582.00    1.86113   1.77666   -1.000
 5583.00    1.85475   1.77291   -1.000
 5584.00    1.85337   1.76695   -1.000
 5585.00    1.83840   1.75314   -1.000
 5586.00    1.79785   1.72402   -1.000
 5587.00    1.74634   1.68113   -1.000
 5588.00    1.70633   1.64064   -1.000
 5589.00    1.70461   1.61932   -1.000
 5590.00    1.72912   1.62364   -1.000
 5591.00    1.76127   1.64708   -1.000
 5592.00    1.78465   1.67558   -1.000
 5593.00    1.78496   1.69576   -1.000
 5594.00    1.77801   1.70533   -1.000
 5595.00    1.79245   1.71244   -1.000
 5596.00    1.82858   1.72278   -1.000
 5597.00    1.85224   1.73122   -1.000
 5598.00    1.82107   1.72724   -1.000
 5599.00    1.78679   1.71097   -1.000
 5600.00    1.78029   1.69338   -1.000
 5601.00    1.76741   1.67987   -1.000
 5602.00    1.75003   1.67107   -1.000
 5603.00    1.75450   1.67400   -1.000
 5604.00    1.79379   1.69608   -1.000
 5605.00    1.84675   1.73458   -1.000
 5606.00    1.88659   1.77644   -1.000
 5607.00    1.90219   1.80801   -1.000
 5608.00    1.90292   1.82480   -1.000
 5609.00    1.90906   1.83068   -1.000
 5610.00    1.90827   1.83220   -1.000
 5611.00    1.90857   1.83330   -1.000
 5612.00    1.91244   1.83140   -1.000
 5613.00    1.90264   1.81698   -1.000
 5614.00    1.85592   1.78232   -1.000
 5615.00    1.78495   1.73361   -1.000
 5616.00    1.75643   1.69202   -1.000
 5617.00    1.78206   1.68103   -1.000
 5618.00    1.82445   1.70058   -1.000
 5619.00    1.84839   1.73075   -1.000
 5620.00    1.85660   1.75558   -1.000
 5621.00    1.86310   1.77130   -1.000
 5622.00    1.87110   1.77784   -1.000
 5623.00    1.85488   1.77292   -1.000
 5624.00    1.82493   1.75657   -1.000
 5625.00    1.79310   1.73903   -1.000
 5626.00    1.79882   1.73391   -1.000
 5627.00    1.83312   1.74562   -1.000
 5628.00    1.86002   1.76663   -1.000
 5629.00    1.88749   1.78549   -1.000
 5630.00    1.89888   1.79744   -1.000
 5631.00    1.91081   1.80420   -1.000
 5632.00    1.91298   1.80736   -1.000
 5633.00    1.89728   1.80681   -1.000
 5634.00    1.88563   1.80190   -1.000
 5635.00    1.87274   1.79242   -1.000
 5636.00    1.85979   1.78059   -1.000
 5637.00    1.84365   1.77004   -1.000
 5638.00    1.84078   1.76353   -1.000
 5639.00    1.84853   1.76204   -1.000
 5640.00    1.84147   1.76307   -1.000
 5641.00    1.83992   1.76237   -1.000
 5642.00    1.82949   1.76078   -1.000
 5643.00    1.84332   1.76223   -1.000
 5644.00    1.85751   1.76689   -1.000
 5645.00    1.85909   1.77289   -1.000
 5646.00    1.86559   1.77932   -1.000
 5647.00    1.86577   1.78465   -1.000
 5648.00    1.87247   1.78682   -1.000
 5649.00    1.87769   1.78576   -1.000
 5650.00    1.87370   1.78433   -1.000
 5651.00    1.88282   1.78640   -1.000
 5652.00    1.89518   1.79138   -1.000
 5653.00    1.89526   1.79420   -1.000
 5654.00    1.87662   1.79079   -1.000
 5655.00    1.85048   1.78084   -1.000
 5656.00    1.83933   1.76518   -1.000
 5657.00    1.80879   1.74255   -1.000
 5658.00    1.75394   1.71517   -1.000
 5659.00    1.73209   1.69522   85.471
 5660.00    1.76538   1.69359   -1.000
 5661.00    1.80957   1.70604   -1.000
 5662.00    1.81573   1.72078   -1.000
 5663.00    1.80999   1.73218   -1.000
 5664.00    1.83035   1.74395   -1.000
 5665.00    1.85448   1.75961   -1.000
 5666.00    1.86258   1.77342   -1.000
 5667.00    1.85311   1.77837   -1.000
 5668.00    1.84153   1.77603   -1.000
 5669.00    1.83224   1.77318   -1.000
 5670.00    1.84330   1.77472   -1.000
 5671.00    1.85415   1.78126   -1.000
 5672.00    1.87579   1.79107   -1.000
 5673.00    1.89065   1.80147   -1.000
 5674.00    1.90632   1.80985   -1.000
 5675.00    1.91005   1.81415   -1.000
 5676.00    1.89941   1.81537   -1.000
 5677.00    1.90660   1.81644   -1.000
 5678.00    1.90784   1.81775   -1.000
 5679.00    1.90984   1.81613   -1.000
 5680.00    1.89720   1.80852   -1.000
 5681.00    1.88408   1.79403   -1.000
 5682.00    1.86020   1.77446   -1.000
 5683.00    1.83249   1.75607   -1.000
 5684.00    1.82413   1.74647   -1.000
 5685.00    1.83943   1.74847   -1.000
 5686.00    1.84301   1.75549   -1.000
 5687.00    1.83102   1.75722   -1.000
 5688.00    1.81602   1.75200   -1.000
 5689.00    1.82220   1.74786   -1.000
 5690.00    1.84206   1.75376   -1.000
 5691.00    1.86814   1.77091   -1.000
 5692.00    1.88721   1.79195   -1.000
 5693.00    1.90098   1.80850   -1.000
 5694.00    1.90916   1.81729   -1.000
 5695.00    1.90246   1.81999   -1.000
 5696.00    1.89657   1.81867   -1.000
 5697.00    1.89471   1.81409   -1.000
 5698.00    1.87657   1.80580   -1.000
 5699.00    1.85191   1.79347   -1.000
 5700.00    1.83430   1.77935   -1.000
 5701.00    1.81590   1.76700   -1.000
 5702.00    1.80471   1.76024   -1.000
 5703.00    1.80937   1.76065   -1.000
 5704.00    1.82518   1.76595   -1.000
 5705.00    1.83193   1.76954   -1.000
 5706.00    1.81634   1.76495   -1.000
 5707.00    1.79215   1.75085   -1.000
 5708.00    1.76659   1.72995   86.434
 5709.00    1.73826   1.70716   86.819
 5710.00    1.72482   1.69054   86.526
 5711.00    1.73190   1.68726   -1.000
 5712.00    1.75903   1.69920   -1.000
 5713.00    1.81075   1.72450   -1.000
 5714.00    1.85714   1.75655   -1.000
 5715.00    1.87225   1.78526   -1.000
 5716.00    1.88224   1.80370   -1.000
 5717.00    1.88478   1.81327   -1.000
 5718.00    1.88921   1.81920   -1.000
 5719.00    1.89461   1.82548   -1.000
 5720.00    1.91565   1.83381   -1.000
 5721.00    1.93082   1.84379   -1.000
 5722.00    1.93930   1.85311   -1.000
 5723.00    1.94791   1.85968   -1.000
 5724.00    1.93648   1.86244   -1.000
 5725.00    1.92803   1.86008   -1.000
 5726.00    1.91045   1.85115   -1.000
 5727.00    1.89078   1.83869   -1.000
 5728.00    1.88760   1.82969   -1.000
 5729.00    1.89474   1.82796   -1.000
 5730.00    1.90094   1.83087   -1.000
 5731.00    1.89166   1.83255   -1.000
 5732.00    1.88631   1.83202   -1.000
 5733.00    1.89159   1.83439   -1.000
 5734.00    1.91431   1.84263   -1.000
 5735.00    1.92790   1.85293   -1.000
 5736.00    1.92180   1.85869   -1.000
 5737.00    1.91519   1.85796   -1.000
 5738.00    1.91283   1.85421   -1.000
 5739.00    1.91193   1.85168   -1.000
 5740.00    1.90808   1.85142   -1.000
 5741.00    1.91005   1.85142   -1.000
 5742.00    1.89727   1.84997   -1.000
 5743.00    1.89474   1.84872   -1.000
 5744.00    1.91746   1.85041   -1.000
 5745.00    1.93042   1.85508   -1.000
 5746.00    1.92281   1.85807   -1.000
 5747.00    1.90456   1.85539   -1.000
 5748.00    1.89670   1.84972   -1.000
 5749.00    1.89592   1.84757   -1.000
 5750.00    1.90113   1.84995   -1.000
 5751.00    1.91438   1.84920   -1.000
 5752.00    1.89650   1.83826   -1.000
 5753.00    1.85596   1.82016   81.602
 5754.00    1.83566   1.80597   81.465
 5755.00    1.84569   1.80669   80.287
 5756.00    1.88573   1.82334   -1.000
 5757.00    1.92146   1.84677   -1.000
 5758.00    1.94131   1.86476   -1.000
 5759.00    1.93219   1.87003   -1.000
 5760.00    1.91014   1.86185   -1.000
 5761.00    1.88633   1.84422   -1.000
 5762.00    1.86364   1.82391   -1.000
 5763.00    1.85326   1.81116   -1.000
 5764.00    1.87517   1.81436   -1.000
 5765.00    1.90607   1.83279   -1.000
 5766.00    1.92695   1.85607   -1.000
 5767.00    1.93555   1.87301   -1.000
 5768.00    1.94059   1.88006   -1.000
 5769.00    1.93931   1.88047   -1.000
 5770.00    1.93055   1.87818   -1.000
 5771.00    1.91293   1.87409   -1.000
 5772.00    1.90204   1.86724   79.328
 5773.00    1.89832   1.85824   -1.000
 5774.00    1.88734   1.85049   -1.000
 5775.00    1.88891   1.84687   -1.000
 5776.00    1.88261   1.84807   78.936
 5777.00    1.87768   1.85183   78.914
 5778.00    1.86229   1.85205   79.203
 5779.00    1.82260   1.84257   80.489
 5780.00    1.78513   1.82279   -1.000
 5781.00    1.75992   1.79832   -1.000
 5782.00    1.77109   1.77849   83.036
 5783.00    1.79232   1.76950   82.707
 5784.00    1.80725   1.77004   82.416
 5785.00    1.81860   1.77478   -1.000
 5786.00    1.83326   1.78201   -1.000
 5787.00    1.85498   1.79470   -1.000
 5788.00    1.87755   1.81189   -1.000
 5789.00    1.89684   1.82589   -1.000
 5790.00    1.89511   1.83074   -1.000
 5791.00    1.88493   1.82873   -1.000
 5792.00    1.88677   1.82888   -1.000
 5793.00    1.89573   1.83769   -1.000
 5794.00    1.90342   1.85309   -1.000
 5795.00    1.91113   1.86796   -1.000
 5796.00    1.90993   1.87580   78.667
 5797.00    1.89431   1.87422   79.167
 5798.00    1.89330   1.86773   78.669
 5799.00    1.90949   1.86565   -1.000
 5800.00    1.93443   1.87259   -1.000
 5801.00    1.95843   1.88417   -1.000
 5802.00    1.95849   1.89250   -1.000
 5803.00    1.94630   1.89253   -1.000
 5804.00    1.92967   1.88453   -1.000
 5805.00    1.91361   1.87363   -1.000
 5806.00    1.90392   1.86644   -1.000
 5807.00    1.91412   1.86585   -1.000
 5808.00    1.91707   1.86977   -1.000
 5809.00    1.92729   1.87454   -1.000
 5810.00    1.93445   1.87861   -1.000
 5811.00    1.94104   1.88152   -1.000
 5812.00    1.95955   1.88224   -1.000
 5813.00    1.95435   1.87977   -1.000
 5814.00    1.94681   1.87357   -1.000
 5815.00    1.93382   1.86383   -1.000
 5816.00    1.92351   1.85408   -1.000
 5817.00    1.92533   1.85138   -1.000
 5818.00    1.94329   1.85959   -1.000
 5819.00    1.96844   1.87331   -1.000
 5820.00    1.97616   1.88389   -1.000
 5821.00    1.97725   1.88789   -1.000
 5822.00    1.97637   1.88745   -1.000
 5823.00    1.97127   1.88572   -1.000
 5824.00    1.96263   1.88419   -1.000
 5825.00    1.96891   1.88343   -1.000
 5826.00    1.96922   1.88433   -1.000
 5827.00    1.97601   1.88713   -1.000
 5828.00    1.97904   1.89062   -1.000
 5829.00    1.97617   1.89299   -1.000
 5830.00    1.97345   1.89376   -1.000
 5831.00    1.97545   1.89358   -1.000
 5832.00    1.96909   1.89264   -1.000
 5833.00    1.96999   1.89033   -1.000
 5834.00    1.96778   1.88639   -1.000
 5835.00    1.96127   1.88261   -1.000
 5836.00    1.95649   1.88181   -1.000
 5837.00    1.96663   1.88437   -1.000
 5838.00    1.97087   1.88731   -1.000
 5839.00    1.96865   1.88878   -1.000
 5840.00    1.97372   1.89038   -1.000
 5841.00    1.97613   1.89368   -1.000
 5842.00    1.97354   1.89713   -1.000
 5843.00    1.97515   1.89817   -1.000
 5844.00    1.97381   1.89600   -1.000
 5845.00    1.97066   1.89095   -1.000
 5846.00    1.95756   1.88344   -1.000
 5847.00    1.94461   1.87506   -1.000
 5848.00    1.93774   1.86884   -1.000
 5849.00    1.93945   1.86606   -1.000
 5850.00    1.94839   1.86368   -1.000
 5851.00    1.94530   1.85749   -1.000
 5852.00    1.92294   1.84622   -1.000
 5853.00    1.90080   1.83328   -1.000
 5854.00    1.89306   1.82272   -1.000
 5855.00    1.89616   1.81394   -1.000
 5856.00    1.89051   1.80158   -1.000
 5857.00    1.86912   1.78204   -1.000
 5858.00    1.85479   1.76362   -1.000
 5859.00    1.86442   1.76060   -1.000
 5860.00    1.89698   1.77563   -1.000
 5861.00    1.91674   1.79803   -1.000
 5862.00    1.91801   1.81634   -1.000
 5863.00    1.91588   1.82739   -1.000
 5864.00    1.92769   1.83397   -1.000
 5865.00    1.93458   1.83623   -1.000
 5866.00    1.92289   1.83253   -1.000
 5867.00    1.90835   1.82628   -1.000
 5868.00    1.91724   1.82478   -1.000
 5869.00    1.93759   1.83258   -1.000
 5870.00    1.96172   1.84663   -1.000
 5871.00    1.96445   1.85924   -1.000
 5872.00    1.96206   1.86480   -1.000
 5873.00    1.96546   1.86367   -1.000
 5874.00    1.96313   1.85991   -1.000
 5875.00    1.96317   1.85656   -1.000
 5876.00    1.94999   1.85344   -1.000
 5877.00    1.94596   1.84889   -1.000
 5878.00    1.94506   1.84201   -1.000
 5879.00    1.92887   1.83311   -1.000
 5880.00    1.91413   1.82364   -1.000
 5881.00    1.91164   1.81526   -1.000
 5882.00    1.92067   1.80777   -1.000
 5883.00    1.92575   1.79937   -1.000
 5884.00    1.91447   1.78925   -1.000
 5885.00    1.89249   1.77751   -1.000
 5886.00    1.86918   1.75999   -1.000
 5887.00    1.79414   1.72293   -1.000
 5888.00    1.62270   1.65129   90.520
 5889.00    1.44053   1.55090   -1.000
 5890.00    1.37790   1.45716   -1.000
 5891.00    1.44778   1.41580   -1.000
 5892.00    1.60101   1.43512   -1.000
 5893.00    1.66941   1.47820   -1.000
 5894.00    1.62663   1.50220   -1.000
 5895.00    1.53687   1.49298   -1.000
 5896.00    1.50286   1.47099   -1.000
 5897.00    1.59325   1.46988   -1.000
 5898.00    1.72168   1.50795   -1.000
 5899.00    1.81219   1.57204   -1.000
 5900.00    1.86104   1.63761   -1.000
 5901.00    1.89639   1.69302   -1.000
 5902.00    1.91836   1.73659   -1.000
 5903.00    1.92197   1.76732   -1.000
 5904.00    1.92254   1.78556   -1.000
 5905.00    1.91666   1.79484   -1.000
 5906.00    1.91484   1.80030   -1.000
 5907.00    1.92048   1.80543   -1.000
 5908.00    1.92395   1.81108   -1.000
 5909.00    1.92410   1.81685   -1.000
 5910.00    1.92329   1.82203   -1.000
 5911.00    1.92800   1.82486   -1.000
 5912.00    1.92325   1.82264   -1.000
 5913.00    1.89907   1.81325   -1.000
 5914.00    1.87626   1.79886   -1.000
 5915.00    1.86057   1.78644   -1.000
 5916.00    1.86491   1.78200   -1.000
 5917.00    1.88654   1.78702   -1.000
 5918.00    1.89267   1.79893   -1.000
 5919.00    1.89968   1.81268   -1.000
 5920.00    1.91225   1.82283   -1.000
 5921.00    1.90987   1.82709   -1.000
 5922.00    1.90882   1.82686   -1.000
 5923.00    1.91643   1.82555   -1.000
 5924.00    1.92073   1.82626   -1.000
 5925.00    1.92858   1.83017   -1.000
 5926.00    1.93199   1.83562   -1.000
 5927.00    1.93527   1.83831   -1.000
 5928.00    1.91810   1.83419   -1.000
 5929.00    1.90539   1.82390   -1.000
 5930.00    1.89919   1.81392   -1.000
 5931.00    1.90165   1.81128   -1.000
 5932.00    1.91827   1.81658   -1.000
 5933.00    1.91991   1.82305   -1.000
 5934.00    1.91743   1.82523   -1.000
 5935.00    1.91098   1.82596   -1.000
 5936.00    1.91128   1.83038   -1.000
 5937.00    1.92080   1.83834   -1.000
 5938.00    1.92216   1.84528   -1.000
 5939.00    1.92460   1.84678   -1.000
 5940.00    1.92243   1.84179   -1.000
 5941.00    1.90875   1.83308   -1.000
 5942.00    1.89894   1.82629   -1.000
 5943.00    1.90468   1.82568   -1.000
 5944.00    1.91687   1.83096   -1.000
 5945.00    1.92696   1.83797   -1.000
 5946.00    1.92091   1.84177   -1.000
 5947.00    1.91898   1.83947   -1.000
 5948.00    1.90559   1.83215   -1.000
 5949.00    1.88331   1.82492   -1.000
 5950.00    1.89295   1.82217   -1.000
 5951.00    1.90838   1.82302   -1.000
 5952.00    1.89822   1.82251   -1.000
 5953.00    1.89533   1.81917   -1.000
 5954.00    1.89424   1.81730   -1.000
 5955.00    1.89592   1.81835   -1.000
 5956.00    1.89855   1.81821   -1.000
 5957.00    1.88971   1.81601   -1.000
 5958.00    1.89004   1.81609   -1.000
 5959.00    1.90894   1.82230   -1.000
 5960.00    1.92680   1.83383   -1.000
 5961.00    1.94155   1.84604   -1.000
 5962.00    1.95581   1.85465   -1.000
 5963.00    1.94989   1.85812   -1.000
 5964.00    1.93710   1.85665   -1.000
 5965.00    1.92632   1.85164   -1.000
 5966.00    1.91707   1.84616   -1.000
 5967.00    1.91934   1.84376   -1.000
 5968.00    1.93118   1.84588   -1.000
 5969.00    1.93943   1.85110   -1.000
 5970.00    1.94675   1.85750   -1.000
 5971.00    1.95225   1.86340   -1.000
 5972.00    1.94667   1.86683   -1.000
 5973.00    1.94147   1.86626   -1.000
 5974.00    1.94033   1.86069   -1.000
 5975.00    1.93011   1.84976   -1.000
 5976.00    1.90003   1.83572   -1.000
 5977.00    1.87815   1.82398   -1.000
 5978.00    1.88378   1.82024   -1.000
 5979.00    1.89881   1.82598   -1.000
 5980.00    1.91241   1.83704   -1.000
 5981.00    1.92585   1.84577   -1.000
 5982.00    1.92600   1.84551   -1.000
 5983.00    1.90229   1.83498   -1.000
 5984.00    1.87455   1.82015   -1.000
 5985.00    1.86906   1.81073   -1.000
 5986.00    1.88399   1.81208   -1.000
 5987.00    1.90693   1.82162   -1.000
 5988.00    1.91890   1.83307   -1.000
 5989.00    1.92200   1.84234   -1.000
 5990.00    1.92924   1.84827   -1.000
 5991.00    1.91465   1.85170   -1.000
 5992.00    1.91324   1.85554   -1.000
 5993.00    1.92592   1.86291   -1.000
 5994.00    1.94124   1.87205   -1.000
 5995.00    1.93534   1.87629   -1.000
 5996.00    1.93077   1.87212   -1.000
 5997.00    1.91377   1.86279   -1.000
 5998.00    1.89654   1.85462   -1.000
 5999.00    1.90296   1.85150   -1.000
 6000.00    1.91381   1.85217   -1.000
 6001.00    1.91989   1.85227   -1.000
 6002.00    1.90566   1.84875   -1.000
 6003.00    1.89074   1.84316   -1.000
 6004.00    1.88710   1.83983   -1.000
 6005.00    1.89763   1.83925   -1.000
 6006.00    1.89814   1.83582   -1.000
 6007.00    1.86732   1.82561   -1.000
 6008.00    1.84890   1.81416   82.781
 6009.00    1.85529   1.81165   -1.000
 6010.00    1.87818   1.82133   -1.000
 6011.00    1.90351   1.83536   -1.000
 6012.00    1.90169   1.84303   -1.000
 6013.00    1.88668   1.84193   -1.000
 6014.00    1.88908   1.83691   -1.000
 6015.00    1.89416   1.83263   -1.000
 6016.00    1.89040   1.83007   -1.000
 6017.00    1.88681   1.82813   -1.000
 6018.00    1.88668   1.82578   -1.000
 6019.00    1.88012   1.82184   -1.000
 6020.00    1.87000   1.81597   -1.000
 6021.00    1.85705   1.81082   -1.000
 6022.00    1.86825   1.81022   -1.000
 6023.00    1.87080   1.81432   -1.000
 6024.00    1.87598   1.82092   -1.000
 6025.00    1.88655   1.83036   -1.000
 6026.00    1.89572   1.84314   -1.000
 6027.00    1.91149   1.85607   -1.000
 6028.00    1.91626   1.86661   -1.000
 6029.00    1.91776   1.87543   -1.000
 6030.00    1.92919   1.88266   -1.000
 6031.00    1.93729   1.88737   -1.000
 6032.00    1.93110   1.89036   -1.000
 6033.00    1.94162   1.89370   -1.000
 6034.00    1.94877   1.89774   -1.000
 6035.00    1.93879   1.90077   -1.000
 6036.00    1.93825   1.90123   -1.000
 6037.00    1.93916   1.89927   -1.000
 6038.00    1.93694   1.89561   -1.000
 6039.00    1.93248   1.89062   -1.000
 6040.00    1.92470   1.88519   -1.000
 6041.00    1.91872   1.88130   -1.000
 6042.00    1.91641   1.88074   -1.000
 6043.00    1.92166   1.88393   -1.000
 6044.00    1.93448   1.88989   -1.000
 6045.00    1.94111   1.89673   -1.000
 6046.00    1.94360   1.90259   -1.000
 6047.00    1.94580   1.90723   -1.000
 6048.00    1.94204   1.91139   78.879
 6049.00    1.93972   1.91485   79.185
 6050.00    1.93818   1.91667   79.339
 6051.00    1.94630   1.91617   79.397
 6052.00    1.94648   1.91305   -1.000
 6053.00    1.94308   1.90684   -1.000
 6054.00    1.93380   1.89772   -1.000
 6055.00    1.92130   1.88750   80.630
 6056.00    1.90999   1.87951   80.831
 6057.00    1.91101   1.87693   80.637
 6058.00    1.91380   1.88063   80.168
 6059.00    1.92498   1.88819   -1.000
 6060.00    1.92533   1.89575   79.944
 6061.00    1.98128   1.89981   -1.000
 6062.00    1.66126   1.89724   -1.000
 6063.00    0.96572   1.88608   -1.000
 6064.00    1.92919   1.86781   -1.000
 6065.00    1.82767   1.84955  139.875
 6066.00    1.20710   1.84237   -1.000
 6067.00    0.46983   1.85181   -1.000
 6068.00    1.36669   1.87190   -1.000
 6069.00    1.91645   1.89241   80.095
 6070.00    1.92765   1.90732   77.642
 6071.00    1.91812   1.91571   76.812
 6072.00    1.82983   1.91958   -1.000
 6073.00    1.93373   1.92139   79.184
 6074.00    1.95451   1.92221   -1.000
 6075.00    1.93994   1.92103   79.532
 6076.00    1.93214   1.91602   79.964
 6077.00    1.92166   1.90651   80.426
 6078.00    1.91414   1.89440   81.080
 6079.00    1.89117   1.88350   81.548
 6080.00    1.88508   1.87620   81.525
 6081.00    1.89353   1.87136   81.615
 6082.00    1.88098   1.86715   81.874
 6083.00    1.87744   1.86405   81.826
 6084.00    1.87458   1.86297   81.764
 6085.00    1.88422   1.86405   81.673
 6086.00    1.88273   1.86767   81.412
 6087.00    1.88807   1.87336   81.072
 6088.00    1.88781   1.87808   81.311
 6089.00    1.88873   1.87845   81.847
 6090.00    1.87351   1.87438   82.164
 6091.00    1.85798   1.86910   82.066
 6092.00    1.86172   1.86678   81.470
 6093.00    1.87472   1.86972   81.093
 6094.00    1.88157   1.87709   80.620
 6095.00    1.90087   1.88581   80.289
 6096.00    1.90744   1.89314   80.374
 6097.00    1.90524   1.89829   80.595
 6098.00    1.90867   1.90117   80.620
 6099.00    1.90287   1.89968   80.623
 6100.00    1.89589   1.88837   81.739
 6101.00    1.87527   1.86275   83.893
 6102.00    1.82720   1.82752   85.109
 6103.00    1.79958   1.79893   84.218
 6104.00    1.82450   1.79365   82.495
 6105.00    1.86136   1.81214   -1.000
 6106.00    1.88601   1.83973   -1.000
 6107.00    1.89154   1.86313   81.551
 6108.00    1.88032   1.87876   81.724
 6109.00    1.88067   1.88904   81.659
 6110.00    1.88624   1.89565   81.464
 6111.00    1.88557   1.89857   81.079
 6112.00    1.88926   1.89971   81.119
 6113.00    1.89142   1.90222   80.615
 6114.00    1.89672   1.90657   80.467
 6115.00    1.90033   1.91011   80.849
 6116.00    1.88813   1.91027   81.411
 6117.00    1.88023   1.90727   81.455
 6118.00    1.88445   1.90137   81.904
 6119.00    1.87789   1.88909   83.210
 6120.00    1.84918   1.86606   84.254
 6121.00    1.81867   1.83359   85.019
 6122.00    1.80179   1.80254   84.982
 6123.00    1.80007   1.78717   83.404
 6124.00    1.83237   1.79273   -1.000
 6125.00    1.86468   1.81260   -1.000
 6126.00    1.85478   1.83535   83.058
 6127.00    1.84950   1.85320   82.855
 6128.00    1.85045   1.86542   82.677
 6129.00    1.85276   1.87574   81.926
 6130.00    1.86206   1.88705   81.147
 6131.00    1.88015   1.89864   81.068
 6132.00    1.89220   1.90746   81.260
 6133.00    1.87572   1.90869   82.120
 6134.00    1.86556   1.89565   84.137
 6135.00    1.82766   1.86373   -1.000
 6136.00    1.77048   1.81878   -1.000
 6137.00    1.72168   1.77960   -1.000
 6138.00    1.72628   1.76575   -1.000
 6139.00    1.77774   1.77897   83.809
 6140.00    1.82391   1.80326   83.094
 6141.00    1.83741   1.82466   83.369
 6142.00    1.82880   1.84198   83.485
 6143.00    1.83268   1.85992   82.497
 6144.00    1.86238   1.87855   81.504
 6145.00    1.87304   1.89231   81.509
 6146.00    1.87166   1.89751   81.943
 6147.00    1.86249   1.89515   82.479
 6148.00    1.85797   1.88804   83.087
 6149.00    1.84339   1.87879   83.552
 6150.00    1.83141   1.86992   -1.000
 6151.00    1.83550   1.86486   83.144
 6152.00    1.83626   1.86575   82.525
 6153.00    1.85205   1.86912   82.503
 6154.00    1.84836   1.86860   83.318
 6155.00    1.83902   1.86291   83.686
 6156.00    1.83108   1.85627   83.698
 6157.00    1.83212   1.85137   84.099
 6158.00    1.82967   1.84467   85.072
 6159.00    1.80707   1.82750   86.800
 6160.00    1.77309   1.79193   89.582
 6161.00    1.72852   1.74010   92.143
 6162.00    1.67580   1.68828   92.766
 6163.00    1.66036   1.65783   91.090
 6164.00    1.69227   1.65898   88.432
 6165.00    1.73008   1.68372   -1.000
 6166.00    1.76093   1.71489   -1.000
 6167.00    1.76479   1.73711   87.313
 6168.00    1.75855   1.74193   88.590
 6169.00    1.72849   1.73311   89.424
 6170.00    1.71000   1.72675   88.535
 6171.00    1.73196   1.73609   86.682
 6172.00    1.77489   1.75867   85.566
 6173.00    1.79038   1.78368   85.834
 6174.00    1.79330   1.80363   85.870
 6175.00    1.79679   1.81637   85.619
 6176.00    1.79738   1.82331   85.471
 6177.00    1.80000   1.82803   85.225
 6178.00    1.80900   1.83319   84.774
 6179.00    1.81590   1.83859   84.490
 6180.00    1.81592   1.84390   84.223
 6181.00    1.82075   1.85025   83.809
 6182.00    1.82685   1.85753   83.630
 6183.00    1.83266   1.86273   83.855
 6184.00    1.84261   1.86259   84.162
 6185.00    1.83257   1.85630   84.897
 6186.00    1.81818   1.84532   85.862
 6187.00    1.80538   1.83220   86.734
 6188.00    1.79098   1.81887   87.550
 6189.00    1.77383   1.80421   -1.000
 6190.00    1.76161   1.78560   89.406
 6191.00    1.73442   1.76639   -1.000
 6192.00    1.72412   1.75794   -1.000
 6193.00    1.74980   1.76748   86.248
 6194.00    1.78583   1.78906   84.992
 6195.00    1.80682   1.81183   84.586
 6196.00    1.82141   1.82932   84.507
 6197.00    1.83063   1.83877   85.167
 6198.00    1.81313   1.83917   86.219
 6199.00    1.78738   1.83240   -1.000
 6200.00    1.76672   1.82452   -1.000
 6201.00    1.76009   1.82272   -1.000
 6202.00    1.77995   1.82934   -1.000
 6203.00    1.80575   1.84094   84.475
 6204.00    1.81477   1.85275   -1.000
 6205.00    1.81952   1.86189   -1.000
 6206.00    1.83790   1.86782   84.352
 6207.00    1.83636   1.87140   -1.000
 6208.00    1.83137   1.87305   -1.000
 6209.00    1.83345   1.87140   -1.000
 6210.00    1.82236   1.86425   -1.000
 6211.00    1.80798   1.85021   -1.000
 6212.00    1.79367   1.82981   -1.000
 6213.00    1.76720   1.80645   -1.000
 6214.00    1.73596   1.78621   -1.000
 6215.00    1.72938   1.77416   -1.000
 6216.00    1.73919   1.77058   -1.000
 6217.00    1.75872   1.77124   88.171
 6218.00    1.76903   1.77106   89.005
 6219.00    1.75557   1.76883   88.474
 6220.00    1.73759   1.76823   -1.000
 6221.00    1.74713   1.77296   88.553
 6222.00    1.80265   1.78177   96.266
 6223.00    1.61942   1.78997   -1.000
 6224.00    1.54314   1.79522   -1.000
 6225.00    1.80600   1.79824   87.497
 6226.00    1.78939   1.79934   87.490
 6227.00    1.79101   1.79662   88.071
 6228.00    1.77668   1.78631   89.382
 6229.00    1.75051   1.76660   90.898
 6230.00    1.70813   1.74247   -1.000
 6231.00    1.68930   1.72483   -1.000
 6232.00    1.70406   1.72288   89.930
 6233.00    1.73586   1.73733   88.175
 6234.00    1.76504   1.76078   86.789
 6235.00    1.78847   1.78299   86.545
 6236.00    1.79800   1.79627   87.263
 6237.00    1.78499   1.79852   88.176
 6238.00    1.76411   1.79271   89.067
 6239.00    1.74848   1.78372   -1.000
 6240.00    1.73206   1.77490   -1.000
 6241.00    1.73221   1.76711   -1.000
 6242.00    1.72722   1.75912   -1.000
 6243.00    1.70575   1.74954   -1.000
 6244.00    1.69356   1.73908   -1.000
 6245.00    1.70185   1.73119   -1.000
 6246.00    1.71444   1.73070   89.821
 6247.00    1.73299   1.74125   88.641
 6248.00    1.75744   1.76097   87.755
 6249.00    1.76745   1.78131   87.790
 6250.00    1.75546   1.79173   -1.000
 6251.00    1.74060   1.78649   -1.000
 6252.00    1.71916   1.76854   -1.000
 6253.00    1.68794   1.74728   -1.000
 6254.00    1.67688   1.73175   -1.000
 6255.00    1.67656   1.72453   -1.000
 6256.00    1.67025   1.72205   -1.000
 6257.00    1.65633   1.72010   -1.000
 6258.00    1.65741   1.71870   -1.000
 6259.00    1.66708   1.72171   -1.000
 6260.00    1.69687   1.73268   -1.000
 6261.00    1.71846   1.75168   -1.000
 6262.00    1.73964   1.77422   -1.000
 6263.00    1.75551   1.79329   -1.000
 6264.00    1.75948   1.80423   -1.000
 6265.00    1.74383   1.80846   -1.000
 6266.00    1.74017   1.81126   -1.000
 6267.00    1.73941   1.81538   -1.000
 6268.00    1.74314   1.81887   -1.000
 6269.00    1.74086   1.81912   -1.000
 6270.00    1.72874   1.81736   -1.000
 6271.00    1.73576   1.81736   -1.000
 6272.00    1.74936   1.82017   -1.000
 6273.00    1.75561   1.82208   -1.000
 6274.00    1.74396   1.81765   -1.000
 6275.00    1.72490   1.80465   -1.000
 6276.00    1.69824   1.78597   -1.000
 6277.00    1.67115   1.76694   -1.000
 6278.00    1.65157   1.75180   -1.000
 6279.00    1.62718   1.74225   -1.000
 6280.00    1.61345   1.73957   -1.000
 6281.00    1.60088   1.74565   -1.000
 6282.00    1.60162   1.76044   -1.000
 6283.00    1.62311   1.78079   -1.000
 6284.00    1.64920   1.80169   -1.000
 6285.00    1.67867   1.81873   -1.000
 6286.00    1.70715   1.83032   -1.000
 6287.00    1.73693   1.83712   -1.000
 6288.00    1.74905   1.83988   -1.000
 6289.00    1.75925   1.83829   -1.000
 6290.00    1.75990   1.83268   -1.000
 6291.00    1.75000   1.82559   -1.000
 6292.00    1.73742   1.81978   -1.000
 6293.00    1.73211   1.81629   -1.000
 6294.00    1.73667   1.81416   -1.000
 6295.00    1.73060   1.81065   -1.000
 6296.00    1.72197   1.80314   -1.000
 6297.00    1.71469   1.79274   -1.000
 6298.00    1.70641   1.78398   -1.000
 6299.00    1.70490   1.77923   -1.000
 6300.00    1.70977   1.77586   -1.000
 6301.00    1.70326   1.77141   -1.000
 6302.00    1.69608   1.76916   -1.000
 6303.00    1.70100   1.77540   -1.000
 6304.00    1.71961   1.79124   -1.000
 6305.00    1.73685   1.81090   -1.000
 6306.00    1.74532   1.82819   -1.000
 6307.00    1.75361   1.84051   -1.000
 6308.00    1.76593   1.84750   -1.000
 6309.00    1.76906   1.84992   -1.000
 6310.00    1.75447   1.84934   -1.000
 6311.00    1.73785   1.84704   -1.000
 6312.00    1.73333   1.84306   -1.000
 6313.00    1.73411   1.83645   -1.000
 6314.00    1.72019   1.82668   -1.000
 6315.00    1.70395   1.81547   -1.000
 6316.00    1.69339   1.80544   -1.000
 6317.00    1.68685   1.79803   -1.000
 6318.00    1.69720   1.79501   -1.000
 6319.00    1.69739   1.79919   -1.000
 6320.00    1.71740   1.81082   -1.000
 6321.00    1.73494   1.82522   -1.000
 6322.00    1.74438   1.83754   -1.000
 6323.00    1.74863   1.84792   -1.000
 6324.00    1.75272   1.85831   -1.000
 6325.00    1.77086   1.86767   -1.000
 6326.00    1.78802   1.87367   -1.000
 6327.00    1.78309   1.87600   -1.000
 6328.00    1.77519   1.87638   -1.000
 6329.00    1.77609   1.87669   -1.000
 6330.00    1.77810   1.87803   -1.000
 6331.00    1.78408   1.88066   -1.000
 6332.00    1.78598   1.88274   -1.000
 6333.00    1.79024   1.87957   -1.000
 6334.00    1.78700   1.86742   -1.000
 6335.00    1.59232   1.84862   -1.000
 6336.00    1.64131   1.83136   -1.000
 6337.00    1.73553   1.82373   -1.000
 6338.00    1.73552   1.82802   -1.000
 6339.00    1.75301   1.84083   -1.000
 6340.00    1.77111   1.85671   -1.000
 6341.00    1.78223   1.86994   -1.000
 6342.00    1.78605   1.87571   -1.000
 6343.00    1.77493   1.87337   -1.000
 6344.00    1.76678   1.86767   -1.000
 6345.00    1.76586   1.86508   -1.000
 6346.00    1.77661   1.86907   -1.000
 6347.00    1.78554   1.87901   -1.000
 6348.00    1.79289   1.89177   -1.000
 6349.00    1.79949   1.90342   -1.000
 6350.00    1.81370   1.91088   -1.000
 6351.00    1.81914   1.91299   -1.000
 6352.00    1.79995   1.90975   -1.000
 6353.00    1.79471   1.90141   -1.000
 6354.00    1.78284   1.88955   -1.000
 6355.00    1.76328   1.87768   -1.000
 6356.00    1.76129   1.86843   -1.000
 6357.00    1.75174   1.86060   -1.000
 6358.00    1.74227   1.85184   -1.000
 6359.00    1.73032   1.84261   -1.000
 6360.00    1.72151   1.83457   -1.000
 6361.00    1.72736   1.82802   -1.000
 6362.00    1.72783   1.82348   -1.000
 6363.00    1.73191   1.82287   -1.000
 6364.00    1.74304   1.82743   -1.000
 6365.00    1.75562   1.83644   -1.000
 6366.00    1.75765   1.84812   -1.000
 6367.00    1.76189   1.86048   -1.000
 6368.00    1.77337   1.87116   -1.000
 6369.00    1.78565   1.87818   -1.000
 6370.00    1.79126   1.88209   -1.000
 6371.00    1.79078   1.88570   -1.000
 6372.00    1.79383   1.89100   -1.000
 6373.00    1.79970   1.89708   -1.000
 6374.00    1.80139   1.90144   -1.000
 6375.00    1.79546   1.90241   -1.000
 6376.00    1.78812   1.89981   -1.000
 6377.00    1.77554   1.89440   -1.000
 6378.00    1.76297   1.88736   -1.000
 6379.00    1.75752   1.87984   -1.000
 6380.00    1.75527   1.87260   -1.000
 6381.00    1.75592   1.86649   -1.000
 6382.00    1.75371   1.86252   -1.000
 6383.00    1.75536   1.86125   -1.000
 6384.00    1.76404   1.86282   -1.000
 6385.00    1.76107   1.86717   -1.000
 6386.00    1.74985   1.87297   -1.000
 6387.00    1.75206   1.87764   -1.000
 6388.00    1.75254   1.87957   -1.000
 6389.00    1.74303   1.87897   -1.000
 6390.00    1.73132   1.87556   -1.000
 6391.00    1.71717   1.86737   -1.000
 6392.00    1.69518   1.85420   -1.000
 6393.00    1.66605   1.84130   -1.000
 6394.00    1.65153   1.83676   -1.000
 6395.00    1.66305   1.84408   -1.000
 6396.00    1.68376   1.85795   -1.000
 6397.00    1.68287   1.86760   -1.000
 6398.00    1.65981   1.86474   -1.000
 6399.00    1.62916   1.85065   -1.000
 6400.00    1.60506   1.83652   -1.000
 6401.00    1.59615   1.83447   -1.000
 6402.00    1.61707   1.84752   -1.000
 6403.00    1.64032   1.86873   -1.000
 6404.00    1.64607   1.88767   -1.000
 6405.00    1.64015   1.89672   -1.000
 6406.00    1.61815   1.89417   -1.000
 6407.00    1.60479   1.88493   -1.000
 6408.00    1.58597   1.87685   -1.000
 6409.00    1.56067   1.87369   -1.000
 6410.00    1.56108   1.87257   -1.000
 6411.00    1.55399   1.87023   -1.000
 6412.00    1.53103   1.86846   -1.000
 6413.00    1.52328   1.87061   -1.000
 6414.00    1.52269   1.87646   -1.000
 6415.00    1.52248   1.88299   -1.000
 6416.00    1.51919   1.88751   -1.000
 6417.00    1.51020   1.88812   -1.000
 6418.00    1.49812   1.88301   -1.000
 6419.00    1.47461   1.87180   -1.000
 6420.00    1.44340   1.85833   -1.000
 6421.00    1.41873   1.85039   -1.000
 6422.00    1.40951   1.85450   -1.000
 6423.00    1.41714   1.86986   -1.000
 6424.00    1.42798   1.88908   -1.000
 6425.00    1.42679   1.90558   -1.000
 6426.00    1.42088   1.91696   -1.000
 6427.00    1.40794   1.92160   -1.000
 6428.00    1.39197   1.91689   -1.000
