###################################################################
## OUTPUT of StarlightChains_v04.for    [Cid@UFSC - 01/Apr/2007] ##
###################################################################

## Some input info
NGC6342_a_1.cxt                          [arq_obs]
Base.BC03.N                              [arq_base]
NGC6342_a_1.msk                          [arq_masks]
StCv04.C11.config                        [arq_config]
   45                                    [N_base]
    0                                    [N_YAV_components = # of components with extra extinction!]
    0                                    [i_FitPowerLaw (1/0 = Yes/No)]
-9.99                                    [alpha_PowerLaw]
CCM                                      [red_law_option]
 1.458241                                [q_norm = A(l_norm)/A(V)]

## (Re)Sampling Parameters
 3359.00                                 [l_ini (A)]
 6428.00                                 [l_fin (A)]
    1.00                                 [dl    (A)]     (OBS: dl_cushion =    50.00 A)

## Normalization info
 4020.00                                 [l_norm (A) - for base]
 4010.00                                 [llow_norm (A) - window for f_obs]
 4060.00                                 [lupp_norm (A) - window for f_obs]
2.158412E-15                             [fobs_norm (in input units)]

## S/N
 4730.00                                 [llow_SN (A) - window for S/N]
 4780.00                                 [lupp_SN (A) - window for S/N]
  41.172                                 [S/N in S/N window]
  28.335                                 [S/N in norm. window]
 118.442                                 [S/N_err in S/N window]
  81.514                                 [S/N_err in norm. window]
  1.0000                                 [fscale_chi2]

## etc...
  2147483615                             [idum_orig]
  3068                                   [NOl_eff]
   974                                   [Nl_eff]
  2094    NSIGMA                         [Ntot_cliped & clip_method]
   774620                                [Nglobal_steps]
   7                                     [N_chains]
  10                                     [NEX0s_base = N_base in EX0s-fits]
 0   0   1      115   2.0   8.706E+02    [Clip-Bug, RC-Crash & Burn-In warning-flags, n_censored_weights, wei_nsig_threshold & wei_limit]
    10      9.442      9.438      0.004  [idt_all, wdt_TotTime, wdt_UsrTime & wdt_SysTime (sec)]

## Synthesis Results - Best model ##

 2.73080E+00                             [chi2/Nl_eff]
     1.44639                             [adev (%)]

    97.77805                             [sum-of-x (%)]
 8.27135E-15                             [Flux_tot (units of input spectrum!)]
 2.25796E-10                             [Mini_tot (???)]
 1.15178E-10                             [Mcor_tot (???)]

  -1.06                                  [v0_min  (km/s)]
  77.55                                  [vd_min  (km/s)]
 1.0170                                  [AV_min  (mag)]
 0.0000                                  [YAV_min (mag)]

# j     x_j(%)      Mini_j(%)     Mcor_j(%)     age_j(yr)     Z_j      (L/M)_j    YAV?  Mstars   component_j        a/Fe...       SSP_chi2r SSP_adev(%)   SSP_AV   SSP_x(%)
  1      0.0000     0.0000E+00    0.0000E+00    1.000000E+06  0.00400  1.114E-02    0   1.0000   age020_m42            0.0000     1.8540E+03    26.3574   4.0000    81.8481
  2      0.0000     0.0000E+00    0.0000E+00    3.160000E+06  0.00400  4.073E-02    0   0.9999   age045_m42            0.0000     1.0871E+02     8.1816   3.9867    85.9577
  3      0.0000     0.0000E+00    0.0000E+00    5.010000E+06  0.00400  2.534E-02    0   0.9488   age055_m42            0.0000     4.3927E+02    14.0682   4.0000    86.2081
  4      0.0000     0.0000E+00    0.0000E+00    1.000000E+07  0.00400  1.271E-02    0   0.8862   age070_m42            0.0000     1.8212E+02    11.2604   3.6186    82.1820
  5      0.0000     0.0000E+00    0.0000E+00    2.512000E+07  0.00400  5.070E-03    0   0.8174   age090_m42            0.0000     1.6907E+02    10.8410   3.4893    83.7989
  6      0.0000     0.0000E+00    0.0000E+00    4.000000E+07  0.00400  3.505E-03    0   0.7851   age104_m42            0.0000     1.2942E+02     9.3722   3.1639    87.5120
  7      0.0000     0.0000E+00    0.0000E+00    1.015200E+08  0.00400  2.268E-03    0   0.7207   age116_m42            0.0000     2.8282E+02    10.1806   2.9585   106.9607
  8      0.0000     0.0000E+00    0.0000E+00    2.861200E+08  0.00400  1.079E-03    0   0.6613   age125_m42            0.0000     2.8804E+02    10.1411   2.4597   109.5069
  9      2.6879     1.9835E-01    2.4096E-01    6.405400E+08  0.00400  5.077E-04    0   0.6197   age132_m42            0.0000     3.1933E+02    10.3123   2.0710   114.9834
 10      4.5256     4.7962E-01    5.6641E-01    9.047900E+08  0.00400  3.535E-04    0   0.6024   age135_m42            0.0000     2.0070E+02     8.3878   1.8691   112.4470
 11      1.8837     3.6948E-01    4.1403E-01    1.434000E+09  0.00400  1.910E-04    0   0.5716   age139_m42            0.0000     8.3052E+01     5.5738   1.3977   109.2060
 12      7.9326     3.0270E+00    3.2418E+00    2.500000E+09  0.00400  9.818E-05    0   0.5463   age150_m42            0.0000     1.2162E+01     2.3346   1.1944   101.3356
 13     48.1632     3.8245E+01    3.9197E+01    5.000000E+09  0.00400  4.718E-05    0   0.5228   age161_m42            0.0000     3.2311E+00     1.4987   1.0620    96.5110
 14     26.0066     4.4187E+01    4.3139E+01    1.100000E+10  0.00400  2.205E-05    0   0.4980   age185_m42            0.0000     1.3100E+01     2.6594   0.8181    94.1347
 15      5.1364     1.0219E+01    9.8708E+00    1.300000E+10  0.00400  1.883E-05    0   0.4927   age193_m42            0.0000     1.6646E+01     2.9497   0.8053    93.8188
 16      0.0000     0.0000E+00    0.0000E+00    1.000000E+06  0.02000  1.989E-02    0   1.0000   age020_m62            0.0000     1.7370E+03    25.4123   4.0000    82.4454
 17      0.0000     0.0000E+00    0.0000E+00    3.160000E+06  0.02000  3.772E-02    0   0.9858   age045_m62            0.0000     1.3257E+03    22.6357   4.0000    84.2096
 18      0.0000     0.0000E+00    0.0000E+00    5.010000E+06  0.02000  3.227E-02    0   0.9342   age055_m62            0.0000     2.2601E+02    11.2010   4.0000    87.6279
 19      0.0000     0.0000E+00    0.0000E+00    1.000000E+07  0.02000  1.011E-02    0   0.8751   age070_m62            0.0000     3.6943E+02    14.6489   3.7058    75.3963
 20      0.0000     0.0000E+00    0.0000E+00    2.512000E+07  0.02000  4.206E-03    0   0.8099   age090_m62            0.0000     2.8577E+02    12.9580   3.6393    76.7098
 21      0.0000     0.0000E+00    0.0000E+00    4.000000E+07  0.02000  3.373E-03    0   0.7799   age104_m62            0.0000     1.2929E+02     9.3662   3.3532    89.8258
 22      0.0000     0.0000E+00    0.0000E+00    1.015200E+08  0.02000  1.878E-03    0   0.7221   age116_m62            0.0000     2.2944E+02     9.5700   3.0185   105.4712
 23      0.0000     0.0000E+00    0.0000E+00    2.861200E+08  0.02000  8.869E-04    0   0.6700   age125_m62            0.0000     4.9893E+02    12.5088   2.4177   117.6488
 24      0.0000     0.0000E+00    0.0000E+00    6.405400E+08  0.02000  3.657E-04    0   0.6322   age132_m62            0.0000     3.2357E+02    10.2147   1.7768   119.9499
 25      0.0000     0.0000E+00    0.0000E+00    9.047900E+08  0.02000  2.312E-04    0   0.6152   age135_m62            0.0000     1.7634E+02     7.6219   1.4493   116.7625
 26      0.0000     0.0000E+00    0.0000E+00    1.434000E+09  0.02000  1.168E-04    0   0.5865   age139_m62            0.0000     3.7048E+01     3.7297   1.1269   106.3800
 27      0.0000     0.0000E+00    0.0000E+00    2.500000E+09  0.02000  5.505E-05    0   0.5610   age150_m62            0.0000     1.8734E+01     3.1980   0.7901   102.2843
 28      0.7296     1.0529E+00    1.1050E+00    5.000000E+09  0.02000  2.596E-05    0   0.5353   age161_m62            0.0000     4.5691E+01     5.0727   0.4558   102.9915
 29      0.6844     2.1932E+00    2.1941E+00    1.100000E+10  0.02000  1.169E-05    0   0.5103   age185_m62            0.0000     9.5420E+01     7.0639   0.0808   105.4869
 30      0.0000     0.0000E+00    0.0000E+00    1.300000E+10  0.02000  9.691E-06    0   0.5047   age193_m62            0.0000     1.0528E+02     7.3562   0.0341   105.8405
 31      0.0000     0.0000E+00    0.0000E+00    1.000000E+06  0.05000  2.651E-02    0   0.9998   age020_m72            0.0000     1.7086E+03    25.0991   4.0000    83.6165
 32      0.0000     0.0000E+00    0.0000E+00    3.160000E+06  0.05000  4.817E-02    0   0.9577   age045_m72            0.0000     8.5907E+02    18.8145   4.0000    87.5549
 33      0.0000     0.0000E+00    0.0000E+00    5.010000E+06  0.05000  3.101E-02    0   0.9147   age055_m72            0.0000     3.3739E+02    12.6436   4.0000    84.7063
 34      0.0000     0.0000E+00    0.0000E+00    1.000000E+07  0.05000  8.954E-03    0   0.8524   age070_m72            0.0000     6.3971E+02    16.3152   4.0000    87.1294
 35      0.0000     0.0000E+00    0.0000E+00    2.512000E+07  0.05000  4.207E-03    0   0.7902   age090_m72            0.0000     1.4115E+02     9.1574   4.0000    86.0356
 36      0.0000     0.0000E+00    0.0000E+00    4.000000E+07  0.05000  3.198E-03    0   0.7618   age104_m72            0.0000     1.4831E+02     8.3562   3.4546    98.1073
 37      0.0000     0.0000E+00    0.0000E+00    1.015200E+08  0.05000  1.716E-03    0   0.7092   age116_m72            0.0000     2.7711E+02    10.1930   3.0883   106.5763
 38      0.0000     0.0000E+00    0.0000E+00    2.861200E+08  0.05000  7.047E-04    0   0.6618   age125_m72            0.0000     4.9813E+02    12.3028   2.2135   118.5630
 39      0.0000     0.0000E+00    0.0000E+00    6.405400E+08  0.05000  2.633E-04    0   0.6253   age132_m72            0.0000     2.4740E+02     8.7145   1.4200   118.8568
 40      0.0000     0.0000E+00    0.0000E+00    9.047900E+08  0.05000  1.484E-04    0   0.6088   age135_m72            0.0000     7.6981E+01     5.1890   1.0208   109.7731
 41      0.0000     0.0000E+00    0.0000E+00    1.434000E+09  0.05000  7.827E-05    0   0.5847   age139_m72            0.0000     4.2171E+01     4.4497   0.6786   104.3907
 42      0.0282     2.8100E-02    3.0756E-02    2.500000E+09  0.05000  3.759E-05    0   0.5583   age150_m72            0.0000     5.6344E+01     5.5681   0.3754   102.9756
 43      0.0000     0.0000E+00    0.0000E+00    5.000000E+09  0.05000  1.548E-05    0   0.5320   age161_m72            0.0000     1.0366E+02     7.1704  -0.0443   103.4450
 44      0.0000     0.0000E+00    0.0000E+00    1.100000E+10  0.05000  6.532E-06    0   0.5070   age185_m72            0.0000     1.7753E+02     9.0253  -0.4566   105.7315
 45      0.0000     0.0000E+00    0.0000E+00    1.300000E+10  0.05000  5.316E-06    0   0.5018   age193_m72            0.0000     2.1452E+02     9.8198  -0.5898   106.8605


## Synthesis Results - Average & Chains ##

# j      x_j: min, <> & last-chain-values for 1 ...  7 chains
  1      0.0000      0.0199      0.0000      0.0000      0.0000      0.0000      0.0238      0.0000      0.0000
  2      0.0000      0.0469      0.0000      0.0404      0.0000      0.2627      0.0000      0.0000      0.0000
  3      0.0000      0.0845      0.0000      0.0000      0.0000      0.0730      0.1706      0.0679      0.0805
  4      0.0000      0.2179      0.2439      0.1219      0.2056      0.1904      0.2745      0.1922      0.7516
  5      0.0000      0.1142      0.0000      0.3384      0.0847      0.0545      0.0769      0.3398      0.0915
  6      0.0000      0.0325      0.0256      0.0000      0.0000      0.0000      0.0000      0.0000      0.0000
  7      0.0000      0.0478      0.0000      0.0443      0.0328      0.0000      0.0000      0.0549      0.0000
  8      0.0000      0.0356      0.0000      0.0000      0.0000      0.0000      0.0000      0.0077      0.0000
  9      2.6879      2.8831      3.1032      2.8659      2.9383      3.2936      3.1386      2.8222      2.6807
 10      4.5256      3.6400      3.8060      3.5116      3.8684      3.6516      4.0295      3.6024      3.3808
 11      1.8837      5.4757      5.3754      5.6877      5.4158      4.9213      5.0946      5.2984      5.8734
 12      7.9326     11.2664     11.7527     11.7485     11.4935     11.3028     11.2413     12.8178     11.2730
 13     48.1632     30.7362     31.0610     30.9330     30.6129     31.6617     30.7501     30.9433     31.4855
 14     26.0066     28.3793     27.8810     27.9886     28.3641     28.0959     28.3057     28.0236     27.9617
 15      5.1364     10.7089      9.8605     10.3418     10.7442     10.2837     10.2680      9.5180     10.0129
 16      0.0000      0.0231      0.1419      0.0000      0.1091      0.0182      0.0000      0.0455      0.0000
 17      0.0000      0.0156      0.0000      0.0000      0.0000      0.0000      0.0000      0.0998      0.0000
 18      0.0000      0.1278      0.3062      0.2983      0.3229      0.1646      0.1278      0.1404      0.1069
 19      0.0000      0.1240      0.0042      0.1660      0.2458      0.1870      0.4760      0.0843      0.0000
 20      0.0000      0.0257      0.1021      0.0143      0.0000      0.0000      0.0000      0.0000      0.0000
 21      0.0000      0.0388      0.0000      0.0000      0.0000      0.0000      0.0000      0.0000      0.0000
 22      0.0000      0.0228      0.0000      0.0000      0.0000      0.0000      0.0000      0.0000      0.0000
 23      0.0000      0.0233      0.0197      0.1011      0.0000      0.0000      0.0000      0.0000      0.0000
 24      0.0000      0.0412      0.0000      0.0000      0.0000      0.0000      0.0000      0.0000      0.2454
 25      0.0000      0.0287      0.0000      0.0000      0.0000      0.0000      0.0000      0.0000      0.0553
 26      0.0000      0.1061      0.0000      0.0491      0.0000      0.0000      0.0000      0.1391      0.0000
 27      0.0000      0.4440      0.5226      0.0000      0.4870      1.0202      0.5479      0.0037      0.2726
 28      0.7296      0.7992      0.4732      1.7120      0.8187      0.6153      1.1156      1.3939      0.7429
 29      0.6844      0.4642      1.1553      0.6497      0.4140      0.7866      0.4382      0.7423      0.4943
 30      0.0000      0.3843      0.2151      0.1958      0.4417      0.4604      0.6701      0.3957      0.5356
 31      0.0000      0.0124      0.0000      0.0051      0.0000      0.0000      0.0000      0.0000      0.0000
 32      0.0000      0.0860      0.1927      0.0000      0.0604      0.1400      0.0000      0.0000      0.2223
 33      0.0000      0.0359      0.1375      0.0594      0.0000      0.0000      0.0000      0.0846      0.0000
 34      0.0000      0.0368      0.0000      0.1041      0.0319      0.0000      0.0000      0.0000      0.0000
 35      0.0000      0.0303      0.0000      0.0000      0.0000      0.0000      0.0000      0.1564      0.0000
 36      0.0000      0.0430      0.0000      0.1604      0.0000      0.0000      0.0084      0.0000      0.0000
 37      0.0000      0.0209      0.0000      0.0111      0.0000      0.0000      0.0000      0.0000      0.0000
 38      0.0000      0.0199      0.0639      0.0000      0.0697      0.0135      0.0000      0.0000      0.0000
 39      0.0000      0.0329      0.0000      0.0000      0.0000      0.0000      0.0000      0.0007      0.0000
 40      0.0000      0.1201      0.1515      0.0000      0.0000      0.0000      0.1797      0.0000      0.1281
 41      0.0000      0.4963      0.0000      0.4554      0.5634      0.4420      0.5716      0.1101      0.6402
 42      0.0282      0.5511      1.3761      0.3494      0.5900      0.2463      0.4214      0.8475      0.8821
 43      0.0000      0.0463      0.0000      0.0000      0.0000      0.0000      0.0000      0.0000      0.0000
 44      0.0000      0.0252      0.0000      0.0000      0.0057      0.0068      0.0000      0.0000      0.0292
 45      0.0000      0.0125      0.0000      0.0000      0.0000      0.0066      0.0000      0.0000      0.0000

# j      m_j: min, <> & last-chain-values for 1 ...  7 chains
  1  0.0000E+00  1.2522E-04  0.0000E+00  0.0000E+00  0.0000E+00  0.0000E+00  1.4950E-04  0.0000E+00  0.0000E+00
  2  0.0000E+00  8.0463E-05  0.0000E+00  6.9855E-05  0.0000E+00  4.5039E-04  0.0000E+00  0.0000E+00  0.0000E+00
  3  0.0000E+00  2.2132E-04  0.0000E+00  0.0000E+00  0.0000E+00  1.9088E-04  4.4622E-04  1.7938E-04  2.1218E-04
  4  0.0000E+00  1.0625E-03  1.1964E-03  5.9865E-04  1.0040E-03  9.2691E-04  1.3375E-03  9.4520E-04  3.6887E-03
  5  0.0000E+00  1.2874E-03  0.0000E+00  3.8418E-03  9.5672E-04  6.1326E-04  8.6660E-04  3.8639E-03  1.0385E-03
  6  0.0000E+00  5.0910E-04  4.0366E-04  0.0000E+00  0.0000E+00  0.0000E+00  0.0000E+00  0.0000E+00  0.0000E+00
  7  0.0000E+00  1.0626E-03  0.0000E+00  9.9176E-04  7.3110E-04  0.0000E+00  0.0000E+00  1.2301E-03  0.0000E+00
  8  0.0000E+00  1.5280E-03  0.0000E+00  0.0000E+00  0.0000E+00  0.0000E+00  0.0000E+00  3.3099E-04  0.0000E+00
  9  2.4096E-01  2.4611E-01  2.6645E-01  2.4629E-01  2.5120E-01  2.8075E-01  2.6768E-01  2.4299E-01  2.3033E-01
 10  5.6641E-01  4.3381E-01  4.5625E-01  4.2133E-01  4.6171E-01  4.3457E-01  4.7981E-01  4.3303E-01  4.0554E-01
 11  4.1403E-01  1.1460E+00  1.1316E+00  1.1984E+00  1.1352E+00  1.0285E+00  1.0653E+00  1.1185E+00  1.2373E+00
 12  3.2418E+00  4.3842E+00  4.6002E+00  4.6027E+00  4.4792E+00  4.3922E+00  4.3706E+00  5.0310E+00  4.4154E+00
 13  3.9197E+01  2.3819E+01  2.4212E+01  2.4134E+01  2.3759E+01  2.4502E+01  2.3809E+01  2.4187E+01  2.4559E+01
 14  4.3139E+01  4.4825E+01  4.4296E+01  4.4506E+01  4.4867E+01  4.4315E+01  4.4669E+01  4.4645E+01  4.4453E+01
 15  9.8708E+00  1.9596E+01  1.8150E+01  1.9052E+01  1.9690E+01  1.8792E+01  1.8773E+01  1.7568E+01  1.8442E+01
 16  0.0000E+00  8.1135E-05  5.0199E-04  0.0000E+00  3.8428E-04  6.3820E-05  0.0000E+00  1.6121E-04  0.0000E+00
 17  0.0000E+00  2.8430E-05  0.0000E+00  0.0000E+00  0.0000E+00  0.0000E+00  0.0000E+00  1.8402E-04  0.0000E+00
 18  0.0000E+00  2.5868E-04  6.2360E-04  6.0809E-04  6.5465E-04  3.3270E-04  2.5860E-04  2.8674E-04  2.1779E-04
 19  0.0000E+00  7.5073E-04  2.5687E-05  1.0116E-03  1.4902E-03  1.1303E-03  2.8788E-03  5.1481E-04  0.0000E+00
 20  0.0000E+00  3.4552E-04  1.3825E-03  1.9351E-04  0.0000E+00  0.0000E+00  0.0000E+00  0.0000E+00  0.0000E+00
 21  0.0000E+00  6.2719E-04  0.0000E+00  0.0000E+00  0.0000E+00  0.0000E+00  0.0000E+00  0.0000E+00  0.0000E+00
 22  0.0000E+00  6.1181E-04  0.0000E+00  0.0000E+00  0.0000E+00  0.0000E+00  0.0000E+00  0.0000E+00  0.0000E+00
 23  0.0000E+00  1.2304E-03  1.0450E-03  5.3768E-03  0.0000E+00  0.0000E+00  0.0000E+00  0.0000E+00  0.0000E+00
 24  0.0000E+00  4.9808E-03  0.0000E+00  0.0000E+00  0.0000E+00  0.0000E+00  0.0000E+00  0.0000E+00  2.9858E-02
 25  0.0000E+00  5.3434E-03  0.0000E+00  0.0000E+00  0.0000E+00  0.0000E+00  0.0000E+00  0.0000E+00  1.0352E-02
 26  0.0000E+00  3.7262E-02  0.0000E+00  1.7342E-02  0.0000E+00  0.0000E+00  0.0000E+00  4.9258E-02  0.0000E+00
 27  0.0000E+00  3.1647E-01  3.7461E-01  0.0000E+00  3.4758E-01  7.2606E-01  3.9011E-01  2.6889E-03  1.9558E-01
 28  1.1050E+00  1.1525E+00  6.8635E-01  2.4855E+00  1.1823E+00  8.8612E-01  1.6074E+00  2.0274E+00  1.0784E+00
 29  2.1941E+00  1.4172E+00  3.5478E+00  1.9968E+00  1.2658E+00  2.3980E+00  1.3365E+00  2.2858E+00  1.5190E+00
 30  0.0000E+00  1.3998E+00  7.8814E-01  7.1791E-01  1.6113E+00  1.6746E+00  2.4384E+00  1.4536E+00  1.9636E+00
 31  0.0000E+00  3.2754E-05  0.0000E+00  1.3663E-05  0.0000E+00  0.0000E+00  0.0000E+00  0.0000E+00  0.0000E+00
 32  0.0000E+00  1.1964E-04  2.6946E-04  0.0000E+00  8.4167E-05  1.9436E-04  0.0000E+00  0.0000E+00  3.1109E-04
 33  0.0000E+00  7.4120E-05  2.8536E-04  1.2330E-04  0.0000E+00  0.0000E+00  0.0000E+00  1.7601E-04  0.0000E+00
 34  0.0000E+00  2.4506E-04  0.0000E+00  6.9757E-04  2.1265E-04  0.0000E+00  0.0000E+00  0.0000E+00  0.0000E+00
 35  0.0000E+00  3.9846E-04  0.0000E+00  0.0000E+00  0.0000E+00  0.0000E+00  0.0000E+00  2.0724E-03  0.0000E+00
 36  0.0000E+00  7.1681E-04  0.0000E+00  2.6896E-03  0.0000E+00  0.0000E+00  1.4049E-04  0.0000E+00  0.0000E+00
 37  0.0000E+00  6.0490E-04  0.0000E+00  3.2288E-04  0.0000E+00  0.0000E+00  0.0000E+00  0.0000E+00  0.0000E+00
 38  0.0000E+00  1.3045E-03  4.2231E-03  0.0000E+00  4.5850E-03  8.8567E-04  0.0000E+00  0.0000E+00  0.0000E+00
 39  0.0000E+00  5.4577E-03  0.0000E+00  0.0000E+00  0.0000E+00  0.0000E+00  0.0000E+00  1.1099E-04  0.0000E+00
 40  0.0000E+00  3.4446E-02  4.3730E-02  0.0000E+00  0.0000E+00  0.0000E+00  5.1512E-02  0.0000E+00  3.6984E-02
 41  0.0000E+00  2.5930E-01  0.0000E+00  2.3950E-01  2.9479E-01  2.3059E-01  2.9836E-01  5.8021E-02  3.3665E-01
 42  3.0756E-02  5.7241E-01  1.4378E+00  3.6538E-01  6.1372E-01  2.5551E-01  4.3730E-01  8.8795E-01  9.2222E-01
 43  0.0000E+00  1.1138E-01  0.0000E+00  0.0000E+00  0.0000E+00  0.0000E+00  0.0000E+00  0.0000E+00  0.0000E+00
 44  0.0000E+00  1.3680E-01  0.0000E+00  0.0000E+00  3.0826E-02  3.6677E-02  0.0000E+00  0.0000E+00  1.5930E-01
 45  0.0000E+00  8.2798E-02  0.0000E+00  0.0000E+00  0.0000E+00  4.3618E-02  0.0000E+00  0.0000E+00  0.0000E+00

# AV, chi2 & Mass for <> & i_chain = 1 ...  7 solutions
AV       1.0170      1.0197      1.0206      1.0229      1.0201      1.0197      1.0197      1.0210      1.0194
chi2 2.7308E+00  2.7446E+00  2.7355E+00  2.7358E+00  2.7390E+00  2.7375E+00  2.7365E+00  2.7318E+00  2.7371E+00
Mass 1.1518E-10  1.2140E-10  1.2083E-10  1.2111E-10  1.2129E-10  1.2157E-10  1.2152E-10  1.2057E-10  1.2057E-10
  -1.06                                  [v0_min (km/s) before EX0s...]
  77.55                                  [vd_min (km/s) before EX0s...]


## Synthetic spectrum (Best Model) ##l_obs f_obs f_syn wei
 3070    [Nl_obs]
 3359.00    0.17202   0.35975   -1.000
 3360.00    0.19475   0.32926   -1.000
 3361.00    0.20915   0.32399   -1.000
 3362.00    0.17931   0.34683   -1.000
 3363.00    0.19022   0.38367   -1.000
 3364.00    0.16368   0.41364   -1.000
 3365.00    0.20155   0.42316   -1.000
 3366.00    0.25227   0.41062   -1.000
 3367.00    0.23252   0.38518   -1.000
 3368.00    0.20804   0.36130   -1.000
 3369.00    0.21429   0.34678   -1.000
 3370.00    0.20145   0.33973   -1.000
 3371.00    0.18906   0.33659   -1.000
 3372.00    0.20634   0.33931   -1.000
 3373.00    0.22727   0.35429   -1.000
 3374.00    0.23553   0.38306   -1.000
 3375.00    0.25722   0.41766   -1.000
 3376.00    0.28201   0.44067   -1.000
 3377.00    0.29999   0.43916   -1.000
 3378.00    0.30344   0.41721   -1.000
 3379.00    0.29107   0.39005   -1.000
 3380.00    0.30034   0.37376   -1.000
 3381.00    0.31077   0.37608   -1.000
 3382.00    0.28340   0.39268   -1.000
 3383.00    0.26834   0.41128   -1.000
 3384.00    0.26314   0.42560   -1.000
 3385.00    0.27277   0.43709   -1.000
 3386.00    0.29822   0.44437   -1.000
 3387.00    0.31689   0.44524   -1.000
 3388.00    0.28701   0.44241   -1.000
 3389.00    0.25544   0.43895   -1.000
 3390.00    0.27849   0.43372   -1.000
 3391.00    0.31796   0.42377   -1.000
 3392.00    0.29031   0.41039   -1.000
 3393.00    0.26731   0.40338   -1.000
 3394.00    0.30226   0.41163   -1.000
 3395.00    0.36702   0.43321   -1.000
 3396.00    0.39477   0.45948   -1.000
 3397.00    0.39068   0.48254   -1.000
 3398.00    0.34415   0.49623   -1.000
 3399.00    0.36860   0.49776   -1.000
 3400.00    0.42750   0.48947   -1.000
 3401.00    0.41195   0.47547   -1.000
 3402.00    0.39877   0.45915   -1.000
 3403.00    0.38023   0.44532   -1.000
 3404.00    0.34395   0.43726   -1.000
 3405.00    0.33269   0.43218   -1.000
 3406.00    0.34161   0.42565   -1.000
 3407.00    0.34933   0.41862   -1.000
 3408.00    0.30788   0.41622   -1.000
 3409.00    0.33977   0.42167   -1.000
 3410.00    0.38618   0.43057   -1.000
 3411.00    0.38344   0.43353   -1.000
 3412.00    0.37309   0.42638   -1.000
 3413.00    0.38577   0.41441   -1.000
 3414.00    0.35450   0.40761   -1.000
 3415.00    0.34616   0.41134   -1.000
 3416.00    0.37343   0.42422   -1.000
 3417.00    0.41549   0.44185   -1.000
 3418.00    0.41445   0.46118   -1.000
 3419.00    0.45669   0.47868   -1.000
 3420.00    0.44280   0.48870   -1.000
 3421.00    0.42695   0.48772   -1.000
 3422.00    0.44678   0.47898   -1.000
 3423.00    0.45211   0.46904   -1.000
 3424.00    0.44303   0.46374   -1.000
 3425.00    0.44682   0.46433   -1.000
 3426.00    0.45512   0.46969   -1.000
 3427.00    0.41247   0.48123   -1.000
 3428.00    0.43235   0.49940   -1.000
 3429.00    0.45142   0.51508   -1.000
 3430.00    0.46914   0.51735   -1.000
 3431.00    0.46568   0.50422   -1.000
 3432.00    0.43273   0.48492   -1.000
 3433.00    0.42068   0.47151   -1.000
 3434.00    0.44765   0.46980   -1.000
 3435.00    0.46093   0.47575   -1.000
 3436.00    0.42434   0.47852   -1.000
 3437.00    0.41284   0.47073   -1.000
 3438.00    0.42016   0.45013   -1.000
 3439.00    0.41158   0.41935  264.325
 3440.00    0.37102   0.38509   -1.000
 3441.00    0.33087   0.35989   -1.000
 3442.00    0.32034   0.35278   -1.000
 3443.00    0.33953   0.36119   -1.000
 3444.00    0.38881   0.37705   -1.000
 3445.00    0.41445   0.39605   -1.000
 3446.00    0.41551   0.41942  292.127
 3447.00    0.42736   0.44732   -1.000
 3448.00    0.43960   0.47371   -1.000
 3449.00    0.45158   0.49020   -1.000
 3450.00    0.45627   0.49165   -1.000
 3451.00    0.44181   0.47942   -1.000
 3452.00    0.43139   0.46190   -1.000
 3453.00    0.44854   0.45214  870.568
 3454.00    0.47012   0.45532   -1.000
 3455.00    0.45498   0.46466   -1.000
 3456.00    0.45539   0.46799   -1.000
 3457.00    0.48493   0.45863   -1.000
 3458.00    0.46564   0.44215   -1.000
 3459.00    0.45895   0.42594   -1.000
 3460.00    0.42504   0.41459   -1.000
 3461.00    0.41493   0.41482  870.568
 3462.00    0.41391   0.42944   -1.000
 3463.00    0.44031   0.44833   -1.000
 3464.00    0.45979   0.45937  870.568
 3465.00    0.43858   0.46071   -1.000
 3466.00    0.48296   0.45986   -1.000
 3467.00    0.51752   0.46537   -1.000
 3468.00    0.51908   0.47685   -1.000
 3469.00    0.50839   0.48803   -1.000
 3470.00    0.48437   0.49260   -1.000
 3471.00    0.48859   0.48713  870.568
 3472.00    0.46594   0.47131  870.568
 3473.00    0.44647   0.44750  637.558
 3474.00    0.42302   0.42057  222.820
 3475.00    0.38094   0.40158   -1.000
 3476.00    0.40435   0.40083  294.845
 3477.00    0.42103   0.41793   -1.000
 3478.00    0.42056   0.44279   -1.000
 3479.00    0.45905   0.46454   -1.000
 3480.00    0.47033   0.47641   -1.000
 3481.00    0.49402   0.47755   -1.000
 3482.00    0.50316   0.47111   -1.000
 3483.00    0.48473   0.46291   -1.000
 3484.00    0.49635   0.46089   -1.000
 3485.00    0.47801   0.47069   -1.000
 3486.00    0.51228   0.48752   -1.000
 3487.00    0.55040   0.49511   -1.000
 3488.00    0.50779   0.48389   -1.000
 3489.00    0.47347   0.46030   -1.000
 3490.00    0.46590   0.44015   -1.000
 3491.00    0.47513   0.43363   -1.000
 3492.00    0.51046   0.43763   -1.000
 3493.00    0.52483   0.44293   -1.000
 3494.00    0.49060   0.44216   -1.000
 3495.00    0.44092   0.43549   -1.000
 3496.00    0.46297   0.43105   -1.000
 3497.00    0.46025   0.43936   -1.000
 3498.00    0.44330   0.46063   -1.000
 3499.00    0.48385   0.48135   -1.000
 3500.00    0.53842   0.49276   -1.000
 3501.00    0.50681   0.49853   -1.000
 3502.00    0.50828   0.50405   -1.000
 3503.00    0.51041   0.50877  870.568
 3504.00    0.52791   0.50701   -1.000
 3505.00    0.54126   0.49862   -1.000
 3506.00    0.50585   0.49049   -1.000
 3507.00    0.51096   0.48683   -1.000
 3508.00    0.50436   0.48501   -1.000
 3509.00    0.48277   0.47976   -1.000
 3510.00    0.49969   0.47027   -1.000
 3511.00    0.49893   0.46018   -1.000
 3512.00    0.51230   0.45052   -1.000
 3513.00    0.48366   0.44145   -1.000
 3514.00    0.44302   0.44113  870.568
 3515.00    0.45798   0.45666  870.568
 3516.00    0.48671   0.48405   -1.000
 3517.00    0.51043   0.50931  870.568
 3518.00    0.52305   0.51814   -1.000
 3519.00    0.57795   0.50750   -1.000
 3520.00    0.55155   0.48432   -1.000
 3521.00    0.49053   0.45994   -1.000
 3522.00    0.44761   0.43911   -1.000
 3523.00    0.46345   0.41954   -1.000
 3524.00    0.46085   0.40360   -1.000
 3525.00    0.42816   0.39819   -1.000
 3526.00    0.44195   0.40938   -1.000
 3527.00    0.45663   0.43622   -1.000
 3528.00    0.45790   0.46766   -1.000
 3529.00    0.46270   0.49062   -1.000
 3530.00    0.48228   0.49976   -1.000
 3531.00    0.50853   0.49930   -1.000
 3532.00    0.50353   0.49846   -1.000
 3533.00    0.50169   0.50375  870.568
 3534.00    0.52384   0.51327   -1.000
 3535.00    0.56135   0.52097   -1.000
 3536.00    0.53659   0.52548   -1.000
 3537.00    0.52297   0.53096   -1.000
 3538.00    0.53899   0.53959  870.568
 3539.00    0.54459   0.54645  870.568
 3540.00    0.53847   0.54538   -1.000
 3541.00    0.53013   0.54025   -1.000
 3542.00    0.53474   0.53987   -1.000
 3543.00    0.52433   0.54514   -1.000
 3544.00    0.53667   0.55145   -1.000
 3545.00    0.53857   0.55295   -1.000
 3546.00    0.52668   0.54867   -1.000
 3547.00    0.54517   0.54322  870.568
 3548.00    0.55721   0.54099   -1.000
 3549.00    0.56807   0.54273   -1.000
 3550.00    0.56597   0.54494   -1.000
 3551.00    0.54757   0.54286   -1.000
 3552.00    0.53225   0.53428  870.568
 3553.00    0.53172   0.52368   -1.000
 3554.00    0.52793   0.51749   -1.000
 3555.00    0.53925   0.51802   -1.000
 3556.00    0.50580   0.52113   -1.000
 3557.00    0.49300   0.52025   -1.000
 3558.00    0.49191   0.51543   -1.000
 3559.00    0.50373   0.51326   -1.000
 3560.00    0.49252   0.51974   -1.000
 3561.00    0.46839   0.53321   -1.000
 3562.00    0.49399   0.54159   -1.000
 3563.00    0.52107   0.52953   -1.000
 3564.00    0.51630   0.49372   -1.000
 3565.00    0.49928   0.45542   -1.000
 3566.00    0.44213   0.43509  226.869
 3567.00    0.43668   0.43059  228.329
 3568.00    0.40064   0.42681   -1.000
 3569.00    0.42069   0.41453  235.753
 3570.00    0.42833   0.40355   -1.000
 3571.00    0.44757   0.40742   -1.000
 3572.00    0.45118   0.42319   -1.000
 3573.00    0.45419   0.43950   -1.000
 3574.00    0.46625   0.44918   -1.000
 3575.00    0.46478   0.45341   -1.000
 3576.00    0.46663   0.45612   -1.000
 3577.00    0.46422   0.45496   -1.000
 3578.00    0.46389   0.44356   -1.000
 3579.00    0.44540   0.42058   -1.000
 3580.00    0.41023   0.39422   -1.000
 3581.00    0.39342   0.37627   -1.000
 3582.00    0.39136   0.37272   -1.000
 3583.00    0.41501   0.37723   -1.000
 3584.00    0.45894   0.37616   -1.000
 3585.00    0.41577   0.36709   -1.000
 3586.00    0.37200   0.36045   -1.000
 3587.00    0.39167   0.36585   -1.000
 3588.00    0.42305   0.38600   -1.000
 3589.00    0.45200   0.41595   -1.000
 3590.00    0.45358   0.44838   -1.000
 3591.00    0.46721   0.47470   -1.000
 3592.00    0.48961   0.48879  193.812
 3593.00    0.50093   0.49351  189.598
 3594.00    0.50134   0.49908  182.460
 3595.00    0.53311   0.51273   -1.000
 3596.00    0.57700   0.53078   -1.000
 3597.00    0.59065   0.54707   -1.000
 3598.00    0.60762   0.55927   -1.000
 3599.00    0.59910   0.56455   -1.000
 3600.00    0.59320   0.55859   -1.000
 3601.00    0.60000   0.53929   -1.000
 3602.00    0.57686   0.51169   -1.000
 3603.00    0.54931   0.48650   -1.000
 3604.00    0.50169   0.47264   -1.000
 3605.00    0.48159   0.47031  195.461
 3606.00    0.49837   0.47032   -1.000
 3607.00    0.52285   0.46412   -1.000
 3608.00    0.48172   0.45227   -1.000
 3609.00    0.45607   0.44527  204.236
 3610.00    0.47761   0.45213   -1.000
 3611.00    0.49283   0.46716   -1.000
 3612.00    0.50071   0.48131   -1.000
 3613.00    0.50275   0.49380  182.731
 3614.00    0.51521   0.50660  178.314
 3615.00    0.51367   0.51537  183.442
 3616.00    0.51694   0.50664  200.199
 3617.00    0.50384   0.47557   55.669
 3618.00    0.47966   0.44408   30.552
 3619.00    0.44971   0.43638  198.219
 3620.00    0.44699   0.45529  182.738
 3621.00    0.46800   0.48578  174.375
 3622.00    0.52021   0.51219  170.926
 3623.00    0.55691   0.53025   -1.000
 3624.00    0.56147   0.54712  160.862
 3625.00    0.60653   0.56991   -1.000
 3626.00    0.65453   0.59480   -1.000
 3627.00    0.65483   0.61047   -1.000
 3628.00    0.62949   0.60276   -1.000
 3629.00    0.57599   0.56613  191.787
 3630.00    0.51539   0.51612  203.238
 3631.00    0.50706   0.47790   -1.000
 3632.00    0.49588   0.46682   -1.000
 3633.00    0.48723   0.47773  189.717
 3634.00    0.47806   0.49489  184.428
 3635.00    0.48349   0.50820   -1.000
 3636.00    0.52274   0.51937  168.608
 3637.00    0.55218   0.53588  161.674
 3638.00    0.57959   0.55821   -1.000
 3639.00    0.59584   0.57919  159.274
 3640.00    0.57087   0.58776  163.803
 3641.00    0.59124   0.57881  170.472
 3642.00    0.60698   0.55715   -1.000
 3643.00    0.56666   0.53289   -1.000
 3644.00    0.52004   0.51469  185.835
 3645.00    0.49100   0.50320  188.868
 3646.00    0.49721   0.49394  191.234
 3647.00    0.50113   0.48728   -1.000
 3648.00    0.49239   0.48727  183.397
 3649.00    0.50110   0.49614  175.421
 3650.00    0.53732   0.51387   -1.000
 3651.00    0.59792   0.53813   -1.000
 3652.00    0.63139   0.56279   -1.000
 3653.00    0.59713   0.58231  156.324
 3654.00    0.60310   0.59462  155.375
 3655.00    0.64395   0.60300   -1.000
 3656.00    0.64910   0.61263   -1.000
 3657.00    0.63708   0.62263  150.006
 3658.00    0.65087   0.62952   -1.000
 3659.00    0.65418   0.63221   -1.000
 3660.00    0.65689   0.63016   -1.000
 3661.00    0.63886   0.62253  154.358
 3662.00    0.60335   0.61095  156.524
 3663.00    0.56936   0.59935   -1.000
 3664.00    0.59967   0.59285  155.359
 3665.00    0.64377   0.59227   -1.000
 3666.00    0.65785   0.59251   -1.000
 3667.00    0.63340   0.58757   -1.000
 3668.00    0.59261   0.57705  164.180
 3669.00    0.57085   0.57057  161.221
 3670.00    0.59388   0.57624  156.073
 3671.00    0.61741   0.59170   -1.000
 3672.00    0.63836   0.60685   -1.000
 3673.00    0.65818   0.61333   -1.000
 3674.00    0.65838   0.60961   -1.000
 3675.00    0.66040   0.59687   -1.000
 3676.00    0.64718   0.57826   -1.000
 3677.00    0.60412   0.55861   -1.000
 3678.00    0.56338   0.54212   -1.000
 3679.00    0.56170   0.53272   -1.000
 3680.00    0.56673   0.53164   -1.000
 3681.00    0.57818   0.53844   -1.000
 3682.00    0.57350   0.54966   -1.000
 3683.00    0.57495   0.55710   -1.000
 3684.00    0.59139   0.55228   -1.000
 3685.00    0.58384   0.53377   -1.000
 3686.00    0.54223   0.51317   -1.000
 3687.00    0.51293   0.50491  173.034
 3688.00    0.53258   0.51635  161.463
 3689.00    0.58551   0.54387   -1.000
 3690.00    0.60882   0.57570   -1.000
 3691.00    0.62433   0.59691   -1.000
 3692.00    0.62994   0.60137   -1.000
 3693.00    0.62246   0.59573   -1.000
 3694.00    0.60656   0.58839   -1.000
 3695.00    0.62394   0.58397   -1.000
 3696.00    0.63889   0.58565   -1.000
 3697.00    0.64019   0.59679   -1.000
 3698.00    0.67274   0.61665   -1.000
 3699.00    0.70444   0.63686   -1.000
 3700.00    0.72173   0.64507   -1.000
 3701.00    0.72847   0.63165   -1.000
 3702.00    0.66158   0.59517   -1.000
 3703.00    0.59094   0.54749   -1.000
 3704.00    0.54229   0.50435   -1.000
 3705.00    0.55637   0.47929   -1.000
 3706.00    0.54405   0.47458   -1.000
 3707.00    0.53393   0.48183   -1.000
 3708.00    0.54855   0.49314   -1.000
 3709.00    0.54630   0.50605   -1.000
 3710.00    0.57584   0.52255   -1.000
 3711.00    0.61695   0.54687   -1.000
 3712.00    0.63082   0.58015   -1.000
 3713.00    0.69086   0.61437   -1.000
 3714.00    0.71768   0.63913   -1.000
 3715.00    0.70064   0.64700   -1.000
 3716.00    0.70809   0.63546   -1.000
 3717.00    0.69796   0.60474   -1.000
 3718.00    0.62088   0.55558   -1.000
 3719.00    0.52582   0.49384   52.228
 3720.00    0.48919   0.44199   32.691
 3721.00    0.46008   0.42159   -1.000
 3722.00    0.46309   0.43875   -1.000
 3723.00    0.52844   0.48306   -1.000
 3724.00    0.61427   0.53283   -1.000
 3725.00    0.63548   0.56506   -1.000
 3726.00    0.61760   0.57435   -1.000
 3727.00    0.61043   0.57414   -1.000
 3728.00    0.61813   0.57595   -1.000
 3729.00    0.65957   0.57723   -1.000
 3730.00    0.66883   0.56657   -1.000
 3731.00    0.62478   0.53431   -1.000
 3732.00    0.56822   0.48391   22.692
 3733.00    0.49507   0.42877   24.768
 3734.00    0.42772   0.38547   24.861
 3735.00    0.41757   0.36845   23.172
 3736.00    0.45195   0.38356   32.210
 3737.00    0.48292   0.42583   -1.000
 3738.00    0.50422   0.48418   -1.000
 3739.00    0.57218   0.54050   -1.000
 3740.00    0.64198   0.57758   -1.000
 3741.00    0.65286   0.58772   -1.000
 3742.00    0.61184   0.57341   -1.000
 3743.00    0.60641   0.54317   -1.000
 3744.00    0.59001   0.50952   -1.000
 3745.00    0.52002   0.48030   50.881
 3746.00    0.49646   0.45363   22.617
 3747.00    0.46281   0.42491   23.638
 3748.00    0.42016   0.39688   35.439
 3749.00    0.42752   0.38683   -1.000
 3750.00    0.45704   0.40864   -1.000
 3751.00    0.51128   0.45894   -1.000
 3752.00    0.58186   0.52146   -1.000
 3753.00    0.63364   0.58037   -1.000
 3754.00    0.68422   0.62129   -1.000
 3755.00    0.69792   0.63359   -1.000
 3756.00    0.66481   0.61392   -1.000
 3757.00    0.60523   0.57460   -1.000
 3758.00    0.57386   0.53851   -1.000
 3759.00    0.58639   0.52433   -1.000
 3760.00    0.58565   0.53239   -1.000
 3761.00    0.59147   0.54817   -1.000
 3762.00    0.60793   0.56066   -1.000
 3763.00    0.61678   0.56762   -1.000
 3764.00    0.63895   0.56851   -1.000
 3765.00    0.64197   0.56225   -1.000
 3766.00    0.61185   0.55072   -1.000
 3767.00    0.58806   0.53766   -1.000
 3768.00    0.59539   0.52531   -1.000
 3769.00    0.59111   0.51556   -1.000
 3770.00    0.57500   0.51318   -1.000
 3771.00    0.58136   0.52598   -1.000
 3772.00    0.63115   0.55415   -1.000
 3773.00    0.67102   0.58490   -1.000
 3774.00    0.69736   0.60718   -1.000
 3775.00    0.69158   0.62149   -1.000
 3776.00    0.68741   0.63348   -1.000
 3777.00    0.69085   0.64818   -1.000
 3778.00    0.70155   0.66642   -1.000
 3779.00    0.72451   0.68569   -1.000
 3780.00    0.72273   0.70257  138.453
 3781.00    0.74019   0.71456   -1.000
 3782.00    0.76448   0.72116   -1.000
 3783.00    0.75802   0.71969   -1.000
 3784.00    0.74567   0.70481   -1.000
 3785.00    0.71966   0.67537   -1.000
 3786.00    0.66355   0.64008   -1.000
 3787.00    0.63629   0.61031   -1.000
 3788.00    0.63072   0.59306   -1.000
 3789.00    0.61394   0.58815   -1.000
 3790.00    0.60347   0.59000  167.262
 3791.00    0.61423   0.58985   -1.000
 3792.00    0.62449   0.57982   -1.000
 3793.00    0.60378   0.55938   -1.000
 3794.00    0.57402   0.53318   -1.000
 3795.00    0.56431   0.50573   -1.000
 3796.00    0.56204   0.47751   -1.000
 3797.00    0.54482   0.45175   -1.000
 3798.00    0.52788   0.44368   -1.000
 3799.00    0.54790   0.46679   -1.000
 3800.00    0.57187   0.51494   -1.000
 3801.00    0.61125   0.57200   -1.000
 3802.00    0.65533   0.62059   -1.000
 3803.00    0.66930   0.65048  154.437
 3804.00    0.67768   0.66022  158.252
 3805.00    0.67311   0.65361   -1.000
 3806.00    0.62268   0.64166   -1.000
 3807.00    0.60521   0.64092   -1.000
 3808.00    0.64303   0.65735  153.634
 3809.00    0.68669   0.68096  153.860
 3810.00    0.69445   0.69521  159.040
 3811.00    0.69210   0.68874  168.275
 3812.00    0.67126   0.66213  178.640
 3813.00    0.62326   0.62429  188.348
 3814.00    0.57241   0.58979   -1.000
 3815.00    0.55768   0.57281   -1.000
 3816.00    0.58444   0.57581  183.811
 3817.00    0.59924   0.58397  190.942
 3818.00    0.60896   0.58027   -1.000
 3819.00    0.60145   0.56129   -1.000
 3820.00    0.55136   0.54136  200.534
 3821.00    0.51765   0.53620   -1.000
 3822.00    0.56339   0.54041   -1.000
 3823.00    0.58357   0.53672   49.566
 3824.00    0.53957   0.51788   23.045
 3825.00    0.48593   0.49239   23.253
 3826.00    0.47568   0.47319   22.970
 3827.00    0.47329   0.46490   22.593
 3828.00    0.48918   0.46380   22.486
 3829.00    0.50593   0.46179   23.076
 3830.00    0.50792   0.45264   24.461
 3831.00    0.45743   0.43361   25.956
 3832.00    0.41973   0.40735   26.190
 3833.00    0.42615   0.38090   25.424
 3834.00    0.42500   0.36487   24.581
 3835.00    0.43647   0.36362   24.483
 3836.00    0.44860   0.37171   25.052
 3837.00    0.43864   0.38095   25.223
 3838.00    0.42385   0.39029   24.332
 3839.00    0.42310   0.40699   36.603
 3840.00    0.44451   0.43919  204.116
 3841.00    0.48123   0.48530  187.317
 3842.00    0.55446   0.53609   -1.000
 3843.00    0.61893   0.57982   -1.000
 3844.00    0.62206   0.60888  177.166
 3845.00    0.61504   0.62658  177.244
 3846.00    0.63234   0.63995  179.227
 3847.00    0.63981   0.65011  184.779
 3848.00    0.61649   0.65265   -1.000
 3849.00    0.59993   0.64953   -1.000
 3850.00    0.61220   0.64852   -1.000
 3851.00    0.62248   0.65462   -1.000
 3852.00    0.64591   0.66452   -1.000
 3853.00    0.66121   0.66768  190.823
 3854.00    0.62736   0.65823   -1.000
 3855.00    0.59720   0.64084   -1.000
 3856.00    0.56595   0.62042   45.868
 3857.00    0.54158   0.59763   22.188
 3858.00    0.53820   0.57578   22.795
 3859.00    0.51982   0.56436   35.349
 3860.00    0.50698   0.57410   -1.000
 3861.00    0.53420   0.60403   -1.000
 3862.00    0.60352   0.64128   -1.000
 3863.00    0.65627   0.66690  175.548
 3864.00    0.67393   0.67453  178.737
 3865.00    0.66894   0.67233  181.755
 3866.00    0.64635   0.66845   -1.000
 3867.00    0.64008   0.66581   -1.000
 3868.00    0.61239   0.66116   -1.000
 3869.00    0.57257   0.64769   -1.000
 3870.00    0.53446   0.62377   -1.000
 3871.00    0.54194   0.59669   -1.000
 3872.00    0.56281   0.58115   -1.000
 3873.00    0.57518   0.58712  172.172
 3874.00    0.62370   0.61121  170.786
 3875.00    0.65522   0.63196   -1.000
 3876.00    0.64535   0.63118  194.195
 3877.00    0.59756   0.61206  202.282
 3878.00    0.56591   0.59217   -1.000
 3879.00    0.57301   0.58374  205.053
 3880.00    0.56644   0.58480   -1.000
 3881.00    0.54825   0.58699   -1.000
 3882.00    0.56107   0.58533   -1.000
 3883.00    0.59167   0.57884  174.915
 3884.00    0.60562   0.56410   -1.000
 3885.00    0.59684   0.53675   -1.000
 3886.00    0.55761   0.49968   -1.000
 3887.00    0.54624   0.46852   -1.000
 3888.00    0.56242   0.45687   -1.000
 3889.00    0.55606   0.47191   -1.000
 3890.00    0.58188   0.50946   -1.000
 3891.00    0.63742   0.55569   -1.000
 3892.00    0.67569   0.59052   -1.000
 3893.00    0.69779   0.60580   -1.000
 3894.00    0.69524   0.61057   -1.000
 3895.00    0.70085   0.61829   -1.000
 3896.00    0.73984   0.63298   -1.000
 3897.00    0.75722   0.64696   -1.000
 3898.00    0.76506   0.65453   -1.000
 3899.00    0.73764   0.65897   -1.000
 3900.00    0.72917   0.66555   -1.000
 3901.00    0.74915   0.67239   -1.000
 3902.00    0.73984   0.67303   -1.000
 3903.00    0.69872   0.66391   -1.000
 3904.00    0.66367   0.65058  158.714
 3905.00    0.66785   0.64451   -1.000
 3906.00    0.69442   0.65383   -1.000
 3907.00    0.72974   0.67879   -1.000
 3908.00    0.75659   0.71154   -1.000
 3909.00    0.77007   0.73910   -1.000
 3910.00    0.79205   0.75657   -1.000
 3911.00    0.81726   0.76645   -1.000
 3912.00    0.81309   0.77009   -1.000
 3913.00    0.79637   0.76721   -1.000
 3914.00    0.78036   0.75930  140.371
 3915.00    0.76385   0.74860  142.170
 3916.00    0.77040   0.73718   -1.000
 3917.00    0.78735   0.72392   -1.000
 3918.00    0.77388   0.70623   -1.000
 3919.00    0.74982   0.68553   -1.000
 3920.00    0.72788   0.66690   -1.000
 3921.00    0.68653   0.65791   -1.000
 3922.00    0.68257   0.66049   -1.000
 3923.00    0.70335   0.66677   -1.000
 3924.00    0.68061   0.66410  176.636
 3925.00    0.64791   0.64453  195.762
 3926.00    0.62228   0.60756   48.400
 3927.00    0.57418   0.55628   25.852
 3928.00    0.51919   0.49699   30.288
 3929.00    0.44241   0.43466   35.602
 3930.00    0.36016   0.37022   41.949
 3931.00    0.30406   0.30897   47.698
 3932.00    0.26251   0.25849   49.168
 3933.00    0.23730   0.23062   44.929
 3934.00    0.23729   0.23435   38.051
 3935.00    0.27446   0.26977   31.341
 3936.00    0.33386   0.32751   26.028
 3937.00    0.40091   0.39713   38.782
 3938.00    0.47613   0.46612  202.638
 3939.00    0.53446   0.52563  191.168
 3940.00    0.56496   0.57070  186.466
 3941.00    0.59450   0.59829  185.546
 3942.00    0.62106   0.61176  181.179
 3943.00    0.61389   0.61910  168.374
 3944.00    0.60980   0.63024   -1.000
 3945.00    0.65850   0.64990  149.846
 3946.00    0.71452   0.67169   -1.000
 3947.00    0.73939   0.68773   -1.000
 3948.00    0.75517   0.69915   -1.000
 3949.00    0.75445   0.71065   -1.000
 3950.00    0.76226   0.72058   -1.000
 3951.00    0.80046   0.72536   -1.000
 3952.00    0.80992   0.72754   -1.000
 3953.00    0.79302   0.73124   -1.000
 3954.00    0.78026   0.73411   -1.000
 3955.00    0.78773   0.72968   -1.000
 3956.00    0.79341   0.71947   -1.000
 3957.00    0.77656   0.71136   -1.000
 3958.00    0.76017   0.70425   -1.000
 3959.00    0.74815   0.68609   -1.000
 3960.00    0.72109   0.64870   -1.000
 3961.00    0.66162   0.59810   -1.000
 3962.00    0.61513   0.54963   -1.000
 3963.00    0.57143   0.50879   24.388
 3964.00    0.49288   0.46672   29.236
 3965.00    0.41690   0.41205   35.978
 3966.00    0.34725   0.34352   42.172
 3967.00    0.29118   0.28046   43.019
 3968.00    0.27682   0.24398   37.626
 3969.00    0.28504   0.24417   30.932
 3970.00    0.30615   0.27860   25.641
 3971.00    0.35410   0.33681   38.817
 3972.00    0.45313   0.40463   -1.000
 3973.00    0.55307   0.47406   -1.000
 3974.00    0.60666   0.54025   -1.000
 3975.00    0.67938   0.59971   -1.000
 3976.00    0.74472   0.65240   -1.000
 3977.00    0.77014   0.69855   -1.000
 3978.00    0.80306   0.73995   -1.000
 3979.00    0.83505   0.77206   -1.000
 3980.00    0.85932   0.78929   -1.000
 3981.00    0.87146   0.79251   -1.000
 3982.00    0.86168   0.79058   -1.000
 3983.00    0.85901   0.79331   -1.000
 3984.00    0.86218   0.80331   -1.000
 3985.00    0.88711   0.81675   -1.000
 3986.00    0.91507   0.83115   -1.000
 3987.00    0.91695   0.84593   -1.000
 3988.00    0.91145   0.85935   -1.000
 3989.00    0.92382   0.87002   -1.000
 3990.00    0.94308   0.87914   -1.000
 3991.00    0.93475   0.88947   -1.000
 3992.00    0.93805   0.89957   -1.000
 3993.00    0.95126   0.90292   -1.000
 3994.00    0.92818   0.89513   -1.000
 3995.00    0.89321   0.87899  119.068
 3996.00    0.87187   0.86329  118.280
 3997.00    0.88952   0.85749   -1.000
 3998.00    0.91038   0.86577   -1.000
 3999.00    0.93411   0.88475   -1.000
 4000.00    0.95990   0.90823   -1.000
 4001.00    0.96917   0.92648   -1.000
 4002.00    0.99352   0.93005   -1.000
 4003.00    0.98689   0.91423   -1.000
 4004.00    0.94001   0.88393   -1.000
 4005.00    0.90783   0.85550   -1.000
 4006.00    0.89653   0.85002   -1.000
 4007.00    0.90238   0.87094   -1.000
 4008.00    0.93807   0.90330   -1.000
 4009.00    0.97620   0.93035   -1.000
 4010.00    0.98312   0.94544   -1.000
 4011.00    0.99199   0.95140   -1.000
 4012.00    0.99695   0.95370   -1.000
 4013.00    0.97870   0.95583  104.345
 4014.00    0.98903   0.95780   -1.000
 4015.00    1.01833   0.95806   -1.000
 4016.00    1.01502   0.95666   -1.000
 4017.00    0.99947   0.95648   -1.000
 4018.00    0.97331   0.96079  103.726
 4019.00    0.99378   0.96768  104.624
 4020.00    1.02547   0.97319   -1.000
 4021.00    1.03024   0.97456   -1.000
 4022.00    1.02124   0.97278   -1.000
 4023.00    1.00557   0.96976   -1.000
 4024.00    1.00000   0.96856   -1.000
 4025.00    0.99999   0.97435  100.070
 4026.00    1.01245   0.98765   99.488
 4027.00    1.02935   0.99932  101.979
 4028.00    1.04685   0.99388   -1.000
 4029.00    1.01785   0.96608   -1.000
 4030.00    0.96969   0.92672   -1.000
 4031.00    0.93692   0.89185   -1.000
 4032.00    0.90994   0.87398   -1.000
 4033.00    0.90758   0.87624   -1.000
 4034.00    0.95144   0.89648   -1.000
 4035.00    1.01250   0.93008   -1.000
 4036.00    1.05581   0.97149   -1.000
 4037.00    1.07752   1.00880   -1.000
 4038.00    1.07203   1.02753   -1.000
 4039.00    1.06900   1.02444   -1.000
 4040.00    1.06310   1.01133   -1.000
 4041.00    1.04702   0.99726   -1.000
 4042.00    1.04546   0.97733   -1.000
 4043.00    1.01851   0.94055   -1.000
 4044.00    0.91350   0.88988  125.931
 4045.00    0.82885   0.85363   -1.000
 4046.00    0.86313   0.85483  107.527
 4047.00    0.96660   0.89149   -1.000
 4048.00    1.00863   0.94291   -1.000
 4049.00    1.00215   0.98580  100.542
 4050.00    1.04538   1.00836   -1.000
 4051.00    1.06858   1.01088   -1.000
 4052.00    1.01701   0.99924  107.260
 4053.00    0.98346   0.98155  108.507
 4054.00    0.97143   0.96645  109.293
 4055.00    0.96504   0.95579  110.235
 4056.00    0.97746   0.94746   -1.000
 4057.00    0.97838   0.94431   -1.000
 4058.00    0.96716   0.95120  104.382
 4059.00    0.97577   0.96643  104.252
 4060.00    1.00515   0.97585   -1.000
 4061.00    1.01171   0.96268   -1.000
 4062.00    0.96906   0.92806   -1.000
 4063.00    0.91029   0.89093  115.904
 4064.00    0.89279   0.87272  111.572
 4065.00    0.91765   0.87819   -1.000
 4066.00    0.94815   0.89840   -1.000
 4067.00    0.96590   0.92347   -1.000
 4068.00    1.00788   0.94492   -1.000
 4069.00    1.05716   0.95177   -1.000
 4070.00    1.03619   0.93952   -1.000
 4071.00    0.97413   0.91987   -1.000
 4072.00    0.95501   0.91089   -1.000
 4073.00    0.95951   0.91645   -1.000
 4074.00    0.97633   0.92019   -1.000
 4075.00    0.98600   0.90724   -1.000
 4076.00    0.95514   0.88227   -1.000
 4077.00    0.90841   0.86364   -1.000
 4078.00    0.88979   0.86810  107.861
 4079.00    0.93267   0.89688   -1.000
 4080.00    1.00014   0.93582   -1.000
 4081.00    1.06659   0.96193   -1.000
 4082.00    1.07681   0.96429   -1.000
 4083.00    1.02292   0.95075   -1.000
 4084.00    0.98489   0.93998   -1.000
 4085.00    0.97834   0.94613   -1.000
 4086.00    1.01459   0.96895   -1.000
 4087.00    1.06896   0.99750   -1.000
 4088.00    1.07362   1.01725   -1.000
 4089.00    1.05216   1.02061   -1.000
 4090.00    1.04886   1.01038   -1.000
 4091.00    1.05583   0.99589   -1.000
 4092.00    1.04854   0.98331   -1.000
 4093.00    1.03063   0.97074   -1.000
 4094.00    1.01475   0.95319   -1.000
 4095.00    0.99318   0.92834   -1.000
 4096.00    0.97170   0.89991   -1.000
 4097.00    0.95672   0.87002   -1.000
 4098.00    0.94831   0.83451   -1.000
 4099.00    0.90792   0.78757   -1.000
 4100.00    0.81713   0.73420   -1.000
 4101.00    0.76272   0.69642   -1.000
 4102.00    0.78519   0.69517   -1.000
 4103.00    0.82763   0.73295   -1.000
 4104.00    0.88035   0.79330   -1.000
 4105.00    0.94323   0.85043   -1.000
 4106.00    0.99843   0.88979   -1.000
 4107.00    1.02695   0.91217   -1.000
 4108.00    1.01873   0.92232   -1.000
 4109.00    1.00568   0.92675   -1.000
 4110.00    0.99513   0.93233   -1.000
 4111.00    0.98381   0.94212   -1.000
 4112.00    0.99970   0.95622   -1.000
 4113.00    1.02200   0.97355   -1.000
 4114.00    1.03526   0.99196   -1.000
 4115.00    1.05346   1.00530   -1.000
 4116.00    1.05076   1.00839   -1.000
 4117.00    1.04426   1.00137   -1.000
 4118.00    1.03037   0.99013   -1.000
 4119.00    0.99682   0.98159  108.247
 4120.00    0.99175   0.98026  107.776
 4121.00    1.00354   0.98486  107.239
 4122.00    0.99689   0.99159  105.660
 4123.00    1.00141   0.99932  104.564
 4124.00    1.02051   1.00746  105.162
 4125.00    1.02197   1.01252  107.067
 4126.00    1.00848   1.01057  108.657
 4127.00    1.00210   1.00342  109.345
 4128.00    0.98369   0.99635  110.326
 4129.00    0.98047   0.98991  112.833
 4130.00    0.98715   0.97789  116.452
 4131.00    0.97133   0.95796  118.363
 4132.00    0.95546   0.93911  116.353
 4133.00    0.93931   0.93447  111.325
 4134.00    0.95418   0.95074  106.722
 4135.00    1.00429   0.98237  104.214
 4136.00    1.03116   1.01804  102.588
 4137.00    1.04601   1.04732  101.619
 4138.00    1.06311   1.06625  102.550
 4139.00    1.06066   1.07101  106.434
 4140.00    1.05477   1.05589  113.892
 4141.00    1.03115   1.02113  121.763
 4142.00    0.97510   0.97984  122.241
 4143.00    0.91814   0.95089   -1.000
 4144.00    0.91599   0.95000   -1.000
 4145.00    0.98891   0.97421  107.896
 4146.00    1.03812   1.00367   -1.000
 4147.00    1.03421   1.02121  111.167
 4148.00    1.04075   1.02469  113.389
 4149.00    1.02866   1.02365  113.567
 4150.00    1.00985   1.02470  112.791
 4151.00    1.01106   1.02466  113.057
 4152.00    1.00742   1.01774  114.585
 4153.00    0.98979   1.00409  113.902
 4154.00    0.95914   0.99200   -1.000
 4155.00    0.95530   0.99001   -1.000
 4156.00    0.97830   0.99954  110.369
 4157.00    1.05590   1.01621   -1.000
 4158.00    1.25488   1.03544   -1.000
 4159.00    1.24410   1.05323   -1.000
 4160.00    0.91422   1.06728   -1.000
 4161.00    0.84928   1.07817   -1.000
 4162.00    1.04088   1.08734   -1.000
 4163.00    1.08708   1.09359  107.217
 4164.00    1.05990   1.09275   -1.000
 4165.00    1.04188   1.08192   -1.000
 4166.00    1.01124   1.06532   -1.000
 4167.00    0.99835   1.05142   -1.000
 4168.00    0.99969   1.04421   -1.000
 4169.00    1.01151   1.03724   -1.000
 4170.00    1.02520   1.01956  120.969
 4171.00    1.00952   0.99022  124.549
 4172.00    0.95570   0.96119  122.091
 4173.00    0.90895   0.95017   -1.000
 4174.00    0.92022   0.96175   -1.000
 4175.00    0.95291   0.98382   -1.000
 4176.00    0.96410   1.00241   -1.000
 4177.00    0.96116   1.01601   -1.000
 4178.00    0.95313   1.02924   -1.000
 4179.00    0.95329   1.04078   -1.000
 4180.00    0.97758   1.04366   -1.000
 4181.00    1.00430   1.03735   -1.000
 4182.00    0.99729   1.03123   -1.000
 4183.00    0.99709   1.03317   -1.000
 4184.00    1.01280   1.03886   -1.000
 4185.00    1.01105   1.03730   -1.000
 4186.00    1.00017   1.02597   -1.000
 4187.00    0.98637   1.01343   -1.000
 4188.00    0.96932   1.00975   -1.000
 4189.00    0.98272   1.01727   -1.000
 4190.00    1.01311   1.03114  107.497
 4191.00    1.02016   1.04714   -1.000
 4192.00    1.02858   1.06210   -1.000
 4193.00    1.03245   1.06957   -1.000
 4194.00    1.02002   1.06285   -1.000
 4195.00    0.99917   1.04140   -1.000
 4196.00    0.97856   1.01225   -1.000
 4197.00    0.97265   0.98577  119.261
 4198.00    0.96876   0.96777  117.574
 4199.00    0.96480   0.95904  116.548
 4200.00    0.96034   0.95881  116.021
 4201.00    0.95685   0.96500  114.648
 4202.00    0.96625   0.97563  113.370
 4203.00    0.97507   0.99156  111.787
 4204.00    0.98678   1.01324   -1.000
 4205.00    1.02719   1.03764  106.815
 4206.00    1.06986   1.06052  105.618
 4207.00    1.07290   1.07739  105.668
 4208.00    1.06971   1.08555  105.755
 4209.00    1.05928   1.08659   -1.000
 4210.00    1.02843   1.08644   -1.000
 4211.00    1.02022   1.08945   -1.000
 4212.00    1.03753   1.09083   -1.000
 4213.00    1.02567   1.08098   -1.000
 4214.00    0.98716   1.05902   -1.000
 4215.00    0.97140   1.03635   -1.000
 4216.00    0.99155   1.02675   -1.000
 4217.00    1.00957   1.03718   99.559
 4218.00    1.04452   1.06216   97.783
 4219.00    1.07049   1.08668   97.857
 4220.00    1.09220   1.09825  100.550
 4221.00    1.10973   1.08963  106.401
 4222.00    1.09494   1.05693   -1.000
 4223.00    1.05762   1.00055   -1.000
 4224.00    0.97078   0.93071   -1.000
 4225.00    0.87274   0.86669  142.752
 4226.00    0.80440   0.83386   -1.000
 4227.00    0.82377   0.84970   -1.000
 4228.00    0.92218   0.90784  104.178
 4229.00    1.00387   0.97500   -1.000
 4230.00    1.04223   1.02221  102.527
 4231.00    1.07089   1.04092   -1.000
 4232.00    1.05740   1.03887  106.927
 4233.00    1.03007   1.02767  108.781
 4234.00    1.02650   1.01472  111.049
 4235.00    1.01015   1.00340  111.415
 4236.00    0.99058   0.99699  109.484
 4237.00    0.98495   0.99933  107.465
 4238.00    0.98179   1.01172   -1.000
 4239.00    1.00223   1.02975  103.943
 4240.00    1.04416   1.04757  103.105
 4241.00    1.05735   1.06188  101.901
 4242.00    1.05767   1.07341   99.880
 4243.00    1.08082   1.08382   99.576
 4244.00    1.09994   1.09080  102.733
 4245.00    1.09327   1.08714  107.110
 4246.00    1.07818   1.06807  110.402
 4247.00    1.03868   1.03948  112.144
 4248.00    0.99495   1.01501  112.460
 4249.00    0.97885   1.00502  110.468
 4250.00    0.97073   1.01076   -1.000
 4251.00    1.00526   1.02346  106.335
 4252.00    1.04096   1.03157  108.365
 4253.00    1.02930   1.02785  108.833
 4254.00    1.02473   1.01928  105.620
 4255.00    1.01334   1.02103  103.330
 4256.00    1.04091   1.03432  105.337
 4257.00    1.08752   1.04277   -1.000
 4258.00    1.05502   1.03169  114.880
 4259.00    0.99267   1.00708  113.472
 4260.00    0.94573   0.99274   -1.000
 4261.00    0.95717   1.00561   -1.000
 4262.00    1.02849   1.04142   98.199
 4263.00    1.08402   1.08031   97.160
 4264.00    1.10085   1.10670   98.036
 4265.00    1.08772   1.11549  100.657
 4266.00    1.09180   1.10964  103.884
 4267.00    1.07924   1.09234  107.530
 4268.00    1.06002   1.06388  113.418
 4269.00    1.02425   1.02477  120.735
 4270.00    0.97203   0.98140  124.562
 4271.00    0.91658   0.94423   -1.000
 4272.00    0.90351   0.92420  120.233
 4273.00    0.93237   0.92559  115.771
 4274.00    0.93546   0.94534  109.096
 4275.00    0.95771   0.97927  103.160
 4276.00    1.03330   1.02198  101.200
 4277.00    1.10221   1.05944   -1.000
 4278.00    1.10334   1.07641   -1.000
 4279.00    1.04200   1.07041  109.788
 4280.00    1.00810   1.05515   -1.000
 4281.00    1.02034   1.04540  107.639
 4282.00    1.03538   1.04430  108.078
 4283.00    1.03616   1.04306  110.600
 4284.00    1.00921   1.03459  113.638
 4285.00    0.98578   1.02040   -1.000
 4286.00    0.98735   1.00272  119.031
 4287.00    0.97312   0.98120  124.519
 4288.00    0.94181   0.95470  127.238
 4289.00    0.90143   0.92967   -1.000
 4290.00    0.88870   0.92111   -1.000
 4291.00    0.90622   0.93622   -1.000
 4292.00    0.96737   0.96432  111.481
 4293.00    1.02114   0.98718   -1.000
 4294.00    1.01502   0.99206  115.389
 4295.00    0.98586   0.97843  119.949
 4296.00    0.95094   0.95044  128.672
 4297.00    0.90867   0.91121  139.093
 4298.00    0.86471   0.86496  144.275
 4299.00    0.80369   0.82364  142.173
 4300.00    0.78187   0.79877  139.062
 4301.00    0.80132   0.79323  136.996
 4302.00    0.81149   0.80140  135.168
 4303.00    0.81263   0.81568  134.877
 4304.00    0.82581   0.82802  137.968
 4305.00    0.83038   0.82932  144.479
 4306.00    0.80943   0.81487  149.856
 4307.00    0.78588   0.79139  149.394
 4308.00    0.76132   0.77420  143.109
 4309.00    0.76380   0.77759  134.252
 4310.00    0.80406   0.80346  126.662
 4311.00    0.83344   0.84317  121.108
 4312.00    0.85592   0.89066   -1.000
 4313.00    0.91204   0.94710   -1.000
 4314.00    0.97503   1.01267   -1.000
 4315.00    1.06124   1.08300   92.620
 4316.00    1.13892   1.14552   91.419
 4317.00    1.15974   1.18737   92.361
 4318.00    1.18290   1.20291   94.242
 4319.00    1.18619   1.19643   97.045
 4320.00    1.16932   1.17330  101.275
 4321.00    1.14196   1.13306  107.825
 4322.00    1.08809   1.07536  116.938
 4323.00    1.00467   1.01017  124.036
 4324.00    0.91506   0.95814   -1.000
 4325.00    0.87418   0.94020   -1.000
 4326.00    0.91584   0.96465   -1.000
 4327.00    1.01924   1.02051   96.243
 4328.00    1.10628   1.07966   95.904
 4329.00    1.13414   1.12005   95.782
 4330.00    1.14369   1.13851   94.505
 4331.00    1.15223   1.14562   93.247
 4332.00    1.14369   1.15070   92.777
 4333.00    1.14975   1.15242   93.702
 4334.00    1.15117   1.14263   98.056
 4335.00    1.12803   1.11142  106.471
 4336.00    1.09646   1.05314   -1.000
 4337.00    1.02695   0.97302   -1.000
 4338.00    0.93842   0.89183   -1.000
 4339.00    0.86321   0.83451   -1.000
 4340.00    0.82364   0.82045  115.701
 4341.00    0.87047   0.85349  106.946
 4342.00    0.94957   0.91743   -1.000
 4343.00    1.00179   0.98431   99.588
 4344.00    1.05042   1.03818   97.528
 4345.00    1.08518   1.07854   96.292
 4346.00    1.11913   1.11025   94.929
 4347.00    1.15737   1.13557   94.492
 4348.00    1.16647   1.14980   97.880
 4349.00    1.13434   1.14388  104.666
 4350.00    1.08266   1.11559   -1.000
 4351.00    1.04158   1.07931   -1.000
 4352.00    1.01517   1.05879   -1.000
 4353.00    1.02921   1.06690   -1.000
 4354.00    1.07219   1.09690   95.345
 4355.00    1.10391   1.12979   94.658
 4356.00    1.12540   1.15270   96.027
 4357.00    1.12128   1.16396   -1.000
 4358.00    1.11815   1.16775   -1.000
 4359.00    1.12620   1.17096   -1.000
 4360.00    1.13810   1.18047   -1.000
 4361.00    1.16960   1.19700   91.866
 4362.00    1.18936   1.21444   91.082
 4363.00    1.18859   1.22812   -1.000
 4364.00    1.19434   1.23588   -1.000
 4365.00    1.19667   1.23352   -1.000
 4366.00    1.17614   1.21906   -1.000
 4367.00    1.14783   1.19873   -1.000
 4368.00    1.12423   1.18034   -1.000
 4369.00    1.13642   1.16676   96.336
 4370.00    1.14565   1.15623   96.931
 4371.00    1.14178   1.14437   99.824
 4372.00    1.12798   1.12717  103.941
 4373.00    1.10941   1.10534  105.477
 4374.00    1.06114   1.08715  102.566
 4375.00    1.02346   1.08482   -1.000
 4376.00    1.05304   1.10340   -1.000
 4377.00    1.10917   1.13284   94.567
 4378.00    1.14601   1.15678   95.908
 4379.00    1.16150   1.16141   99.442
 4380.00    1.15216   1.13860  108.177
 4381.00    1.11729   1.08722   -1.000
 4382.00    1.02630   1.01952  126.365
 4383.00    0.94023   0.96213  118.765
 4384.00    0.91691   0.94565   -1.000
 4385.00    0.96239   0.97673  101.530
 4386.00    1.01561   1.02995  100.544
 4387.00    1.07249   1.07364  101.354
 4388.00    1.11130   1.09524  101.982
 4389.00    1.10875   1.10270  100.786
 4390.00    1.11923   1.10878   98.563
 4391.00    1.12291   1.11980   98.198
 4392.00    1.13287   1.13283   99.926
 4393.00    1.11986   1.14108  100.510
 4394.00    1.09790   1.14507   -1.000
 4395.00    1.09320   1.15326   -1.000
 4396.00    1.12636   1.16908   -1.000
 4397.00    1.17215   1.18329   96.519
 4398.00    1.16572   1.18453   99.709
 4399.00    1.14141   1.17340   -1.000
 4400.00    1.12492   1.15944   -1.000
 4401.00    1.11675   1.14910   -1.000
 4402.00    1.11439   1.13803  105.025
 4403.00    1.09238   1.11835  107.813
 4404.00    1.03797   1.09383   -1.000
 4405.00    1.03261   1.07884   -1.000
 4406.00    1.05503   1.08233  102.173
 4407.00    1.07411   1.10094   99.276
 4408.00    1.09660   1.12828   -1.000
 4409.00    1.14416   1.16416   91.564
 4410.00    1.17575   1.20517   89.809
 4411.00    1.18503   1.23655   -1.000
 4412.00    1.20870   1.24349   -1.000
 4413.00    1.18515   1.22340   -1.000
 4414.00    1.13526   1.18717   -1.000
 4415.00    1.10428   1.15593   -1.000
 4416.00    1.07934   1.15052   -1.000
 4417.00    1.10854   1.17570   -1.000
 4418.00    1.17942   1.21702   -1.000
 4419.00    1.20970   1.25385   -1.000
 4420.00    1.20170   1.27019   -1.000
 4421.00    1.20424   1.26508   -1.000
 4422.00    1.16455   1.25027   -1.000
 4423.00    1.14622   1.23788   -1.000
 4424.00    1.15706   1.23127   -1.000
 4425.00    1.15063   1.22674   -1.000
 4426.00    1.14323   1.22304   -1.000
 4427.00    1.15124   1.22391   -1.000
 4428.00    1.17949   1.22996   -1.000
 4429.00    1.19187   1.23792   -1.000
 4430.00    1.18730   1.24406   -1.000
 4431.00    1.18512   1.24484   -1.000
 4432.00    1.18362   1.23633   -1.000
 4433.00    1.15870   1.21609   -1.000
 4434.00    1.11548   1.19107   -1.000
 4435.00    1.09990   1.17942   -1.000
 4436.00    1.13679   1.19513   -1.000
 4437.00    1.18065   1.23288   -1.000
 4438.00    1.23210   1.27125   -1.000
 4439.00    1.25353   1.28931   -1.000
 4440.00    1.21981   1.27922   -1.000
 4441.00    1.17733   1.24959   -1.000
 4442.00    1.15358   1.22203   -1.000
 4443.00    1.15617   1.21611   -1.000
 4444.00    1.16742   1.23589   -1.000
 4445.00    1.18573   1.26778   -1.000
 4446.00    1.21216   1.29427   -1.000
 4447.00    1.24386   1.30733   -1.000
 4448.00    1.25835   1.31010   -1.000
 4449.00    1.25584   1.30839   -1.000
 4450.00    1.25133   1.30343   -1.000
 4451.00    1.23322   1.29208   -1.000
 4452.00    1.21283   1.26954   -1.000
 4453.00    1.19075   1.23385   -1.000
 4454.00    1.15561   1.19384   -1.000
 4455.00    1.12207   1.16530   -1.000
 4456.00    1.12991   1.15775   98.006
 4457.00    1.15719   1.16677   98.415
 4458.00    1.15275   1.18049   99.289
 4459.00    1.15480   1.19130   -1.000
 4460.00    1.14571   1.19953   -1.000
 4461.00    1.14079   1.20892   -1.000
 4462.00    1.16033   1.22309   -1.000
 4463.00    1.18238   1.24286   -1.000
 4464.00    1.19035   1.26285   -1.000
 4465.00    1.20602   1.27505   -1.000
 4466.00    1.22082   1.27575   -1.000
 4467.00    1.19758   1.26840   -1.000
 4468.00    1.19321   1.26082   -1.000
 4469.00    1.18974   1.26149   -1.000
 4470.00    1.20007   1.27555   -1.000
 4471.00    1.23654   1.30150   -1.000
 4472.00    1.28366   1.33160   -1.000
 4473.00    1.29838   1.35611   -1.000
 4474.00    1.31555   1.36937   -1.000
 4475.00    1.31762   1.37336   -1.000
 4476.00    1.31461   1.37319   -1.000
 4477.00    1.32614   1.37006   -1.000
 4478.00    1.30968   1.35926   -1.000
 4479.00    1.28342   1.33629   -1.000
 4480.00    1.24485   1.30524   -1.000
 4481.00    1.19190   1.28068   -1.000
 4482.00    1.20593   1.27634   -1.000
 4483.00    1.26315   1.29508   84.854
 4484.00    1.31101   1.32821   84.396
 4485.00    1.33177   1.35936   85.793
 4486.00    1.34338   1.37408   88.715
 4487.00    1.30975   1.36852   -1.000
 4488.00    1.26451   1.35048   -1.000
 4489.00    1.25000   1.33266   -1.000
 4490.00    1.24341   1.32612   -1.000
 4491.00    1.27782   1.33275   -1.000
 4492.00    1.31031   1.34359   -1.000
 4493.00    1.29185   1.34672   -1.000
 4494.00    1.26692   1.33945   -1.000
 4495.00    1.24476   1.33148   -1.000
 4496.00    1.26852   1.33243   -1.000
 4497.00    1.29481   1.34292   -1.000
 4498.00    1.30166   1.35704   -1.000
 4499.00    1.30491   1.36867   -1.000
 4500.00    1.29619   1.37603   -1.000
 4501.00    1.27653   1.38404   -1.000
 4502.00    1.28530   1.39894   -1.000
 4503.00    1.33116   1.42002   -1.000
 4504.00    1.37108   1.44047   -1.000
 4505.00    1.39013   1.45240   -1.000
 4506.00    1.36119   1.45327   -1.000
 4507.00    1.33742   1.44721   -1.000
 4508.00    1.34870   1.44121   -1.000
 4509.00    1.35147   1.43881   -1.000
 4510.00    1.36563   1.43773   -1.000
 4511.00    1.36655   1.43316   -1.000
 4512.00    1.31533   1.42300   -1.000
 4513.00    1.30783   1.41014   -1.000
 4514.00    1.33083   1.39896   -1.000
 4515.00    1.32636   1.39193   -1.000
 4516.00    1.31216   1.38853   -1.000
 4517.00    1.28915   1.38574   -1.000
 4518.00    1.29442   1.38289   -1.000
 4519.00    1.32689   1.38345   -1.000
 4520.00    1.34823   1.38827   -1.000
 4521.00    1.35283   1.39215   -1.000
 4522.00    1.32848   1.38851   -1.000
 4523.00    1.28614   1.37574   -1.000
 4524.00    1.29394   1.35704   -1.000
 4525.00    1.30892   1.33458   95.392
 4526.00    1.26965   1.30789   -1.000
 4527.00    1.21617   1.27924   -1.000
 4528.00    1.18464   1.25680   -1.000
 4529.00    1.18148   1.24883   -1.000
 4530.00    1.19061   1.25477   -1.000
 4531.00    1.22330   1.26537   -1.000
 4532.00    1.23197   1.26917   -1.000
 4533.00    1.22584   1.26232   -1.000
 4534.00    1.24296   1.25352   93.282
 4535.00    1.23949   1.25821   87.741
 4536.00    1.25946   1.28615   84.548
 4537.00    1.31006   1.33161   84.492
 4538.00    1.33381   1.37636   -1.000
 4539.00    1.34290   1.40338   -1.000
 4540.00    1.33805   1.41021   -1.000
 4541.00    1.33731   1.40693   -1.000
 4542.00    1.33365   1.40340   -1.000
 4543.00    1.32007   1.40042   -1.000
 4544.00    1.31001   1.39321   -1.000
 4545.00    1.34498   1.38072   51.216
 4546.00    1.13129   1.36631   -1.000
 4547.00    0.35015   1.35156   -1.000
 4548.00   -0.02660   1.33664    0.000
 4549.00    0.15986   1.32570   -1.000
 4550.00    0.63661   1.32519   -1.000
 4551.00    0.44920   1.33467   -1.000
 4552.00    0.90936   1.34423   -1.000
 4553.00    1.27755   1.34573   -1.000
 4554.00    1.27276   1.34204   -1.000
 4555.00    1.26435   1.34339   -1.000
 4556.00    1.29893   1.35843   -1.000
 4557.00    1.33604   1.38611   -1.000
 4558.00    1.37908   1.41628   -1.000
 4559.00    1.40004   1.43935   -1.000
 4560.00    1.40670   1.45152   -1.000
 4561.00    1.40388   1.45303   -1.000
 4562.00    1.37828   1.44489   -1.000
 4563.00    1.34428   1.42916   -1.000
 4564.00    1.31463   1.41195   -1.000
 4565.00    1.30074   1.40300   -1.000
 4566.00    1.32041   1.40885   -1.000
 4567.00    1.37293   1.42586   -1.000
 4568.00    1.40255   1.44136   -1.000
 4569.00    1.37894   1.44408   -1.000
 4570.00    1.34792   1.43247   -1.000
 4571.00    1.33099   1.41584   -1.000
 4572.00    1.33038   1.40756   -1.000
 4573.00    1.33829   1.41452   -1.000
 4574.00    1.35682   1.43111   -1.000
 4575.00    1.37516   1.44570   -1.000
 4576.00    1.37134   1.45107   -1.000
 4577.00    1.35049   1.44564   -1.000
 4578.00    1.32496   1.42995   -1.000
 4579.00    1.31783   1.40666   -1.000
 4580.00    1.30718   1.38239   -1.000
 4581.00    1.29650   1.36530   -1.000
 4582.00    1.31032   1.36020   -1.000
 4583.00    1.31496   1.36452   -1.000
 4584.00    1.29262   1.37094   -1.000
 4585.00    1.28722   1.37561   -1.000
 4586.00    1.30986   1.38228   -1.000
 4587.00    1.34610   1.39574   -1.000
 4588.00    1.39509   1.41429   83.800
 4589.00    1.39597   1.42947   85.297
 4590.00    1.36996   1.43314   -1.000
 4591.00    1.35773   1.42458   -1.000
 4592.00    1.33299   1.41124   -1.000
 4593.00    1.30373   1.40282   -1.000
 4594.00    1.31436   1.40352   -1.000
 4595.00    1.35186   1.41042   -1.000
 4596.00    1.35506   1.41872   -1.000
 4597.00    1.35650   1.42507   -1.000
 4598.00    1.36435   1.42703   -1.000
 4599.00    1.33225   1.42326   -1.000
 4600.00    1.31038   1.41539   -1.000
 4601.00    1.31770   1.40764   -1.000
 4602.00    1.32314   1.40437   -1.000
 4603.00    1.32329   1.40697   -1.000
 4604.00    1.31558   1.41383   -1.000
 4605.00    1.35038   1.42273   -1.000
 4606.00    1.39042   1.43310   -1.000
 4607.00    1.39420   1.44602   -1.000
 4608.00    1.41748   1.46152   -1.000
 4609.00    1.44124   1.47602   81.007
 4610.00    1.44080   1.48293   -1.000
 4611.00    1.42252   1.47944   -1.000
 4612.00    1.40317   1.47060   -1.000
 4613.00    1.37197   1.46321   -1.000
 4614.00    1.36006   1.46046   -1.000
 4615.00    1.37495   1.46103   -1.000
 4616.00    1.38850   1.46132   -1.000
 4617.00    1.39439   1.45934   -1.000
 4618.00    1.37026   1.45674   -1.000
 4619.00    1.36456   1.45748   -1.000
 4620.00    1.37516   1.46435   -1.000
 4621.00    1.40668   1.47554   -1.000
 4622.00    1.42088   1.48488   -1.000
 4623.00    1.43726   1.48760   -1.000
 4624.00    1.42201   1.48481   -1.000
 4625.00    1.40847   1.48021   -1.000
 4626.00    1.41866   1.47615   -1.000
 4627.00    1.43008   1.47417   -1.000
 4628.00    1.40092   1.47454   -1.000
 4629.00    1.37894   1.47632   -1.000
 4630.00    1.38239   1.47914   -1.000
 4631.00    1.41295   1.48288   -1.000
 4632.00    1.42231   1.48467   -1.000
 4633.00    1.39757   1.48103   -1.000
 4634.00    1.38363   1.47303   -1.000
 4635.00    1.39859   1.46430   -1.000
 4636.00    1.39694   1.45649   -1.000
 4637.00    1.38982   1.44970   -1.000
 4638.00    1.36260   1.44547   -1.000
 4639.00    1.35422   1.44677   -1.000
 4640.00    1.39320   1.45554   -1.000
 4641.00    1.43269   1.46978   -1.000
 4642.00    1.43870   1.48285   -1.000
 4643.00    1.44291   1.48661   -1.000
 4644.00    1.42592   1.47717   -1.000
 4645.00    1.39216   1.45707   -1.000
 4646.00    1.35815   1.43344   -1.000
 4647.00    1.35603   1.41654   -1.000
 4648.00    1.37472   1.41498   -1.000
 4649.00    1.37460   1.42828   -1.000
 4650.00    1.38373   1.44693   -1.000
 4651.00    1.40228   1.46023   -1.000
 4652.00    1.40851   1.46381   -1.000
 4653.00    1.38608   1.45935   -1.000
 4654.00    1.35889   1.45074   -1.000
 4655.00    1.35299   1.44397   -1.000
 4656.00    1.36588   1.44665   -1.000
 4657.00    1.39994   1.46358   -1.000
 4658.00    1.43410   1.49196   -1.000
 4659.00    1.46334   1.52105   -1.000
 4660.00    1.46478   1.53838   -1.000
 4661.00    1.45374   1.53862   -1.000
 4662.00    1.44890   1.52509   -1.000
 4663.00    1.41975   1.50430   -1.000
 4664.00    1.40837   1.48004   -1.000
 4665.00    1.38010   1.45214   -1.000
 4666.00    1.32663   1.42055   -1.000
 4667.00    1.30351   1.39169   -1.000
 4668.00    1.28770   1.37778   -1.000
 4669.00    1.28971   1.38657   -1.000
 4670.00    1.34574   1.41300   -1.000
 4671.00    1.40694   1.44329   -1.000
 4672.00    1.43932   1.46600   82.004
 4673.00    1.41461   1.47912   -1.000
 4674.00    1.40736   1.48761   -1.000
 4675.00    1.44384   1.49585   -1.000
 4676.00    1.45015   1.50129   -1.000
 4677.00    1.44493   1.49721   -1.000
 4678.00    1.39875   1.48180   -1.000
 4679.00    1.37222   1.46112   -1.000
 4680.00    1.36513   1.44392   -1.000
 4681.00    1.38044   1.43559   -1.000
 4682.00    1.39946   1.43713   -1.000
 4683.00    1.43771   1.44676   81.563
 4684.00    1.44392   1.46011   81.677
 4685.00    1.45349   1.47174   82.035
 4686.00    1.43078   1.47852   -1.000
 4687.00    1.41158   1.48066   -1.000
 4688.00    1.43679   1.47987   -1.000
 4689.00    1.42406   1.47792   -1.000
 4690.00    1.41212   1.47600   -1.000
 4691.00    1.39827   1.47530   -1.000
 4692.00    1.41087   1.47790   -1.000
 4693.00    1.42512   1.48465   -1.000
 4694.00    1.42930   1.49300   -1.000
 4695.00    1.45553   1.49915   -1.000
 4696.00    1.47542   1.49984   82.449
 4697.00    1.42671   1.49235   -1.000
 4698.00    1.40254   1.47675   -1.000
 4699.00    1.38719   1.45713   -1.000
 4700.00    1.36568   1.43808   -1.000
 4701.00    1.37001   1.42180   -1.000
 4702.00    1.35775   1.40970   -1.000
 4703.00    1.34381   1.40552   -1.000
 4704.00    1.36764   1.41171   -1.000
 4705.00    1.38771   1.42289   85.456
 4706.00    1.39363   1.42887   86.502
 4707.00    1.37663   1.42584   -1.000
 4708.00    1.36550   1.42060   -1.000
 4709.00    1.37070   1.42259   -1.000
 4710.00    1.38877   1.43473   -1.000
 4711.00    1.41682   1.45274   81.147
 4712.00    1.43488   1.46876   82.538
 4713.00    1.43530   1.47601   -1.000
 4714.00    1.41001   1.47541   -1.000
 4715.00    1.38961   1.47551   -1.000
 4716.00    1.41293   1.48371   -1.000
 4717.00    1.44459   1.49914   -1.000
 4718.00    1.46205   1.51492   -1.000
 4719.00    1.47933   1.52525   -1.000
 4720.00    1.47049   1.52914   -1.000
 4721.00    1.43578   1.52909   -1.000
 4722.00    1.42633   1.52846   -1.000
 4723.00    1.45209   1.52919   -1.000
 4724.00    1.46326   1.53013   -1.000
 4725.00    1.45129   1.52692   -1.000
 4726.00    1.43738   1.51487   -1.000
 4727.00    1.42257   1.49401   -1.000
 4728.00    1.40066   1.47173   -1.000
 4729.00    1.37186   1.45739   -1.000
 4730.00    1.38224   1.45425   -1.000
 4731.00    1.39934   1.45919   -1.000
 4732.00    1.44482   1.46797   81.583
 4733.00    1.45832   1.47689   81.130
 4734.00    1.45287   1.48268   81.707
 4735.00    1.43060   1.48431   -1.000
 4736.00    1.44863   1.48345   81.186
 4737.00    1.44614   1.48324   80.962
 4738.00    1.45533   1.48669   81.356
 4739.00    1.47081   1.49373   81.551
 4740.00    1.45263   1.50072   -1.000
 4741.00    1.45455   1.50543   -1.000
 4742.00    1.48738   1.50971   80.139
 4743.00    1.49824   1.51527   80.247
 4744.00    1.49438   1.52100   79.790
 4745.00    1.49041   1.52543   79.016
 4746.00    1.47225   1.52952   -1.000
 4747.00    1.48275   1.53558   -1.000
 4748.00    1.52200   1.54369   78.847
 4749.00    1.51069   1.55139   -1.000
 4750.00    1.49490   1.55597   -1.000
 4751.00    1.48371   1.55493   -1.000
 4752.00    1.46405   1.54664   -1.000
 4753.00    1.43054   1.53272   -1.000
 4754.00    1.41809   1.51881   -1.000
 4755.00    1.42068   1.51098   -1.000
 4756.00    1.42693   1.51125   -1.000
 4757.00    1.43068   1.51756   -1.000
 4758.00    1.44177   1.52639   -1.000
 4759.00    1.44626   1.53362   -1.000
 4760.00    1.44868   1.53411   -1.000
 4761.00    1.44128   1.52383   -1.000
 4762.00    1.42370   1.50363   -1.000
 4763.00    1.39388   1.48073   -1.000
 4764.00    1.38859   1.46368   -1.000
 4765.00    1.39274   1.45617   -1.000
 4766.00    1.37503   1.45820   -1.000
 4767.00    1.38844   1.46987   -1.000
 4768.00    1.43212   1.48954   -1.000
 4769.00    1.45539   1.51062   -1.000
 4770.00    1.45993   1.52481   -1.000
 4771.00    1.47853   1.52960   -1.000
 4772.00    1.47885   1.53027   -1.000
 4773.00    1.46023   1.53427   -1.000
 4774.00    1.47126   1.54400   -1.000
 4775.00    1.48505   1.55513   -1.000
 4776.00    1.48382   1.56176   -1.000
 4777.00    1.46983   1.56170   -1.000
 4778.00    1.48499   1.55664   -1.000
 4779.00    1.49439   1.54954   -1.000
 4780.00    1.48541   1.54237   -1.000
 4781.00    1.48483   1.53528   -1.000
 4782.00    1.48320   1.52750   -1.000
 4783.00    1.48909   1.51935   83.123
 4784.00    1.47863   1.51218   83.845
 4785.00    1.45527   1.50668   -1.000
 4786.00    1.41665   1.50284   -1.000
 4787.00    1.41562   1.50121   -1.000
 4788.00    1.42717   1.50307   -1.000
 4789.00    1.44013   1.50950   -1.000
 4790.00    1.45227   1.52082   -1.000
 4791.00    1.45585   1.53650   -1.000
 4792.00    1.48544   1.55507   -1.000
 4793.00    1.49853   1.57439   -1.000
 4794.00    1.51542   1.59169   -1.000
 4795.00    1.53658   1.60312   -1.000
 4796.00    1.55330   1.60505   -1.000
 4797.00    1.51392   1.59727   -1.000
 4798.00    1.48404   1.58387   -1.000
 4799.00    1.46808   1.57152   -1.000
 4800.00    1.47573   1.56688   -1.000
 4801.00    1.50350   1.57231   -1.000
 4802.00    1.49083   1.58309   -1.000
 4803.00    1.48689   1.59115   -1.000
 4804.00    1.48748   1.59171   -1.000
 4805.00    1.50422   1.58586   -1.000
 4806.00    1.50174   1.57790   -1.000
 4807.00    1.48928   1.57168   -1.000
 4808.00    1.48478   1.56950   -1.000
 4809.00    1.48447   1.57235   -1.000
 4810.00    1.49160   1.57877   -1.000
 4811.00    1.51783   1.58560   -1.000
 4812.00    1.51013   1.59107   -1.000
 4813.00    1.50820   1.59593   -1.000
 4814.00    1.53211   1.60190   -1.000
 4815.00    1.53153   1.61001   -1.000
 4816.00    1.53402   1.61928   -1.000
 4817.00    1.54421   1.62689   -1.000
 4818.00    1.53106   1.63061   -1.000
 4819.00    1.52799   1.63052   -1.000
 4820.00    1.53851   1.62661   -1.000
 4821.00    1.52160   1.61642   -1.000
 4822.00    1.50352   1.59809   -1.000
 4823.00    1.49540   1.57587   -1.000
 4824.00    1.49160   1.56014   -1.000
 4825.00    1.50953   1.55899   -1.000
 4826.00    1.51546   1.56962   -1.000
 4827.00    1.51104   1.58144   -1.000
 4828.00    1.50901   1.58677   -1.000
 4829.00    1.49892   1.58531   -1.000
 4830.00    1.49593   1.57981   -1.000
 4831.00    1.49166   1.57181   -1.000
 4832.00    1.48273   1.56394   -1.000
 4833.00    1.50168   1.56106   -1.000
 4834.00    1.51866   1.56549   -1.000
 4835.00    1.51655   1.57417   -1.000
 4836.00    1.52968   1.58092   -1.000
 4837.00    1.54700   1.58104   82.051
 4838.00    1.50082   1.57368   -1.000
 4839.00    1.46268   1.56128   -1.000
 4840.00    1.46206   1.54841   -1.000
 4841.00    1.48228   1.53993   -1.000
 4842.00    1.49001   1.53816   -1.000
 4843.00    1.46884   1.54204   -1.000
 4844.00    1.49193   1.55000   -1.000
 4845.00    1.53037   1.56074   79.975
 4846.00    1.53840   1.57007   81.277
 4847.00    1.51951   1.57242   -1.000
 4848.00    1.50380   1.56799   -1.000
 4849.00    1.47245   1.56315   -1.000
 4850.00    1.47249   1.56218   -1.000
 4851.00    1.47500   1.56228   -1.000
 4852.00    1.48963   1.55698   -1.000
 4853.00    1.47078   1.54159   -1.000
 4854.00    1.44295   1.51597   -1.000
 4855.00    1.41464   1.48554   -1.000
 4856.00    1.40754   1.45742   -1.000
 4857.00    1.38898   1.43096   -1.000
 4858.00    1.34418   1.39275   -1.000
 4859.00    1.27384   1.32892   -1.000
 4860.00    1.14985   1.24768   -1.000
 4861.00    1.06594   1.18217   -1.000
 4862.00    1.08762   1.16637   -1.000
 4863.00    1.18663   1.20742   86.944
 4864.00    1.28761   1.28207   84.896
 4865.00    1.34817   1.35916   83.946
 4866.00    1.38115   1.42022   -1.000
 4867.00    1.41976   1.46095   -1.000
 4868.00    1.45198   1.48230   86.137
 4869.00    1.43280   1.48435   -1.000
 4870.00    1.39100   1.46863   -1.000
 4871.00    1.35503   1.44460   -1.000
 4872.00    1.35018   1.43020   -1.000
 4873.00    1.37154   1.43924   -1.000
 4874.00    1.38621   1.46766   -1.000
 4875.00    1.42025   1.49804   -1.000
 4876.00    1.45991   1.51748   -1.000
 4877.00    1.46692   1.52794   -1.000
 4878.00    1.45513   1.53908   -1.000
 4879.00    1.47474   1.55487   -1.000
 4880.00    1.48947   1.56971   -1.000
 4881.00    1.48331   1.57605   -1.000
 4882.00    1.47502   1.57287   -1.000
 4883.00    1.46966   1.56475   -1.000
 4884.00    1.44002   1.55444   -1.000
 4885.00    1.42202   1.54196   -1.000
 4886.00    1.41860   1.52903   -1.000
 4887.00    1.45193   1.51848   -1.000
 4888.00    1.46582   1.50932   -1.000
 4889.00    1.41897   1.49701   -1.000
 4890.00    1.40388   1.48187   -1.000
 4891.00    1.39249   1.47512   -1.000
 4892.00    1.42695   1.49169   -1.000
 4893.00    1.50584   1.53531   76.014
 4894.00    1.56234   1.59157   75.466
 4895.00    1.58845   1.63925   -1.000
 4896.00    1.58205   1.66683   -1.000
 4897.00    1.58077   1.67502   -1.000
 4898.00    1.55536   1.66951   -1.000
 4899.00    1.53064   1.65689   -1.000
 4900.00    1.51196   1.64310   -1.000
 4901.00    1.51879   1.63125   -1.000
 4902.00    1.53102   1.62077   -1.000
 4903.00    1.52527   1.61167   -1.000
 4904.00    1.52836   1.60876   -1.000
 4905.00    1.55479   1.61683   -1.000
 4906.00    1.59392   1.63110   79.724
 4907.00    1.57577   1.63891   -1.000
 4908.00    1.51234   1.63138   -1.000
 4909.00    1.50080   1.61067   -1.000
 4910.00    1.48837   1.58787   -1.000
 4911.00    1.48950   1.57554   -1.000
 4912.00    1.49439   1.57958   -1.000
 4913.00    1.49842   1.59618   -1.000
 4914.00    1.54424   1.61598   -1.000
 4915.00    1.57019   1.62918   -1.000
 4916.00    1.55031   1.62595   -1.000
 4917.00    1.52247   1.59853   -1.000
 4918.00    1.47948   1.54854   -1.000
 4919.00    1.40383   1.49104   -1.000
 4920.00    1.35933   1.44869   -1.000
 4921.00    1.39057   1.43789   -1.000
 4922.00    1.43741   1.45736   83.250
 4923.00    1.47562   1.49100   82.362
 4924.00    1.49218   1.52324   80.378
 4925.00    1.48831   1.55051   -1.000
 4926.00    1.52446   1.57755   -1.000
 4927.00    1.57043   1.60685   77.405
 4928.00    1.58648   1.63475   -1.000
 4929.00    1.58721   1.65519   -1.000
 4930.00    1.55743   1.66370   -1.000
 4931.00    1.55242   1.65751   -1.000
 4932.00    1.52615   1.63655   -1.000
 4933.00    1.49409   1.60769   -1.000
 4934.00    1.48181   1.58341   -1.000
 4935.00    1.50305   1.57158   -1.000
 4936.00    1.50131   1.56720   -1.000
 4937.00    1.47523   1.55848   -1.000
 4938.00    1.47079   1.54321   -1.000
 4939.00    1.46133   1.53446   -1.000
 4940.00    1.47337   1.54626   -1.000
 4941.00    1.54352   1.57836   77.653
 4942.00    1.57700   1.61640   77.586
 4943.00    1.62036   1.64447   78.065
 4944.00    1.59593   1.65651   -1.000
 4945.00    1.57144   1.65678   -1.000
 4946.00    1.56699   1.65420   -1.000
 4947.00    1.57592   1.65689   -1.000
 4948.00    1.59524   1.66713   -1.000
 4949.00    1.59236   1.67987   -1.000
 4950.00    1.58719   1.68753   -1.000
 4951.00    1.59795   1.68700   -1.000
 4952.00    1.57984   1.68033   -1.000
 4953.00    1.56247   1.66957   -1.000
 4954.00    1.56393   1.65191   -1.000
 4955.00    1.55277   1.62037   -1.000
 4956.00    1.51063   1.57291   -1.000
 4957.00    1.44470   1.52429   -1.000
 4958.00    1.46074   1.50085   79.519
 4959.00    1.51776   1.51752   78.575
 4960.00    1.56706   1.56312   78.798
 4961.00    1.57563   1.61068   79.393
 4962.00    1.60366   1.64035   80.287
 4963.00    1.62483   1.64885   81.880
 4964.00    1.59670   1.64179   -1.000
 4965.00    1.57763   1.62619   -1.000
 4966.00    1.56319   1.60892   -1.000
 4967.00    1.54732   1.59560   -1.000
 4968.00    1.53447   1.58914   -1.000
 4969.00    1.52899   1.59024   -1.000
 4970.00    1.53243   1.59841   -1.000
 4971.00    1.56741   1.61187   -1.000
 4972.00    1.61923   1.62780   78.632
 4973.00    1.63328   1.64300   79.047
 4974.00    1.59707   1.65415   -1.000
 4975.00    1.60214   1.65839   -1.000
 4976.00    1.59562   1.65468   -1.000
 4977.00    1.57110   1.64385   -1.000
 4978.00    1.55309   1.62745   -1.000
 4979.00    1.53601   1.60626   -1.000
 4980.00    1.51212   1.57852   -1.000
 4981.00    1.46648   1.54186   -1.000
 4982.00    1.43268   1.50006   -1.000
 4983.00    1.41456   1.46682   -1.000
 4984.00    1.42413   1.45797   83.699
 4985.00    1.46241   1.47830   81.532
 4986.00    1.52049   1.51728   81.286
 4987.00    1.57677   1.55750   82.328
 4988.00    1.58785   1.58512   83.240
 4989.00    1.55048   1.59446   -1.000
 4990.00    1.51139   1.58963   -1.000
 4991.00    1.52263   1.58132   -1.000
 4992.00    1.52969   1.57857   -1.000
 4993.00    1.52015   1.58308   -1.000
 4994.00    1.56005   1.59126   81.492
 4995.00    1.59987   1.59967   81.852
 4996.00    1.58714   1.60603   82.866
 4997.00    1.54206   1.60674   -1.000
 4998.00    1.54071   1.59717   -1.000
 4999.00    1.49757   1.57652   -1.000
 5000.00    1.49620   1.55130   -1.000
 5001.00    1.49388   1.53204   84.538
 5002.00    1.49180   1.52515   85.492
 5003.00    1.48392   1.52693   -1.000
 5004.00    1.48797   1.52615   88.308
 5005.00    1.48605   1.51534   86.511
 5006.00    1.46058   1.50046   -1.000
 5007.00    1.46727   1.49674   82.786
 5008.00    1.52077   1.51204   83.593
 5009.00    1.56614   1.53709   85.915
 5010.00    1.55136   1.55321   89.064
 5011.00    1.51824   1.54729   91.337
 5012.00    1.48184   1.52143   -1.000
 5013.00    1.44138   1.49007   -1.000
 5014.00    1.46532   1.46876   87.541
 5015.00    1.50869   1.46373   -1.000
 5016.00    1.50128   1.47107   86.938
 5017.00    1.48635   1.48359   86.088
 5018.00    1.48282   1.49734   85.339
 5019.00    1.49503   1.51178   85.569
 5020.00    1.53187   1.52496   85.791
 5021.00    1.53873   1.53323   85.393
 5022.00    1.53464   1.53664   84.539
 5023.00    1.53432   1.54066   83.924
 5024.00    1.52652   1.55044   84.195
 5025.00    1.54043   1.56279   84.605
 5026.00    1.53814   1.56926   83.990
 5027.00    1.51088   1.56832   -1.000
 5028.00    1.51095   1.56723   -1.000
 5029.00    1.54851   1.57338   79.973
 5030.00    1.58609   1.58861   78.999
 5031.00    1.61324   1.60901   78.990
 5032.00    1.62668   1.62717   81.208
 5033.00    1.60313   1.63474   84.377
 5034.00    1.60292   1.62565   86.047
 5035.00    1.55386   1.60125   -1.000
 5036.00    1.54158   1.57167   87.454
 5037.00    1.56075   1.54654   90.590
 5038.00    1.55713   1.52490   -1.000
 5039.00    1.50024   1.49808   94.835
 5040.00    1.42394   1.46593   -1.000
 5041.00    1.39197   1.44504   -1.000
 5042.00    1.44406   1.45420   81.589
 5043.00    1.52893   1.49584   79.675
 5044.00    1.60146   1.55346   -1.000
 5045.00    1.62572   1.60484   78.468
 5046.00    1.61668   1.63581   25.120
 5047.00    1.67108   1.64166   80.714
 5048.00    0.76383   1.62481   -1.000
 5049.00    0.02272   1.59466   -1.000
 5050.00   -0.02504   1.56591    0.000
 5051.00    0.24505   1.55212   -1.000
 5052.00    1.04100   1.55904   -1.000
 5053.00    1.57532   1.58202   78.996
 5054.00    1.61503   1.60981   78.684
 5055.00    1.63686   1.63244   78.782
 5056.00    1.63674   1.64767   78.931
 5057.00    1.63516   1.65814   78.921
 5058.00    1.64994   1.66595   78.441
 5059.00    1.64204   1.67151   78.413
 5060.00    1.64211   1.67435   79.354
 5061.00    1.66455   1.67313   81.528
 5062.00    1.67850   1.66441   84.391
 5063.00    1.62387   1.64423   85.612
 5064.00    1.56468   1.61522   -1.000
 5065.00    1.56930   1.58863   83.526
 5066.00    1.57490   1.57458   83.143
 5067.00    1.56769   1.57393   82.768
 5068.00    1.57788   1.57981   82.237
 5069.00    1.59905   1.58594   82.765
 5070.00    1.60639   1.59011   83.431
 5071.00    1.60125   1.59083   82.589
 5072.00    1.60210   1.58746   81.892
 5073.00    1.61396   1.58381   81.725
 5074.00    1.61200   1.58516   81.658
 5075.00    1.61716   1.59097   82.359
 5076.00    1.61435   1.59407   85.010
 5077.00    1.59675   1.58645   88.967
 5078.00    1.55615   1.56518   90.365
 5079.00    1.51646   1.53578   88.757
 5080.00    1.48649   1.51109   86.846
 5081.00    1.50686   1.50181   85.605
 5082.00    1.53309   1.50868   84.038
 5083.00    1.54359   1.52590   82.577
 5084.00    1.57563   1.54833   81.900
 5085.00    1.62802   1.57355   -1.000
 5086.00    1.63475   1.59799   -1.000
 5087.00    1.63614   1.61667   80.790
 5088.00    1.61983   1.62796   80.329
 5089.00    1.64670   1.63464   79.911
 5090.00    1.62317   1.64044   79.038
 5091.00    1.64638   1.64768   78.303
 5092.00    1.68233   1.65667   78.875
 5093.00    1.69581   1.66460   -1.000
 5094.00    1.65231   1.66508   82.181
 5095.00    1.68765   1.65179   -1.000
 5096.00    1.70389   1.62455   -1.000
 5097.00    1.59151   1.59147   86.378
 5098.00    1.52455   1.56422   84.479
 5099.00    1.53418   1.55220   82.047
 5100.00    1.55531   1.55855   81.164
 5101.00    1.60178   1.57833   81.533
 5102.00    1.64119   1.59979   -1.000
 5103.00    1.62472   1.61184   83.613
 5104.00    1.62587   1.61109   84.641
 5105.00    1.61059   1.60007   85.703
 5106.00    1.58182   1.58321   85.687
 5107.00    1.56775   1.56576   85.169
 5108.00    1.56231   1.55364   84.562
 5109.00    1.57735   1.55148   83.399
 5110.00    1.60162   1.56055   -1.000
 5111.00    1.61956   1.57847   -1.000
 5112.00    1.66559   1.60034   -1.000
 5113.00    1.65092   1.62120   80.138
 5114.00    1.64060   1.63919   79.328
 5115.00    1.63754   1.65442   78.646
 5116.00    1.65468   1.66661   78.800
 5117.00    1.68728   1.67425   79.767
 5118.00    1.71530   1.67567   -1.000
 5119.00    1.69237   1.66976   82.290
 5120.00    1.67650   1.65621   84.347
 5121.00    1.63972   1.63639   86.871
 5122.00    1.59606   1.61278   87.655
 5123.00    1.57999   1.58805   86.983
 5124.00    1.58777   1.56571   86.521
 5125.00    1.56842   1.55074   86.014
 5126.00    1.59654   1.54544   -1.000
 5127.00    1.59814   1.54707   -1.000
 5128.00    1.57964   1.55097   84.987
 5129.00    1.57890   1.55553   83.556
 5130.00    1.58278   1.56235   82.815
 5131.00    1.60038   1.57295   82.037
 5132.00    1.62058   1.58639   -1.000
 5133.00    1.66378   1.59946   -1.000
 5134.00    1.64238   1.60917   -1.000
 5135.00    1.65267   1.61322   -1.000
 5136.00    1.64348   1.60931   -1.000
 5137.00    1.59346   1.59643   85.989
 5138.00    1.55753   1.57793   85.278
 5139.00    1.54058   1.56044   85.799
 5140.00    1.53937   1.54999   87.151
 5141.00    1.55205   1.54755   86.795
 5142.00    1.55746   1.55018   85.390
 5143.00    1.56803   1.55543   85.003
 5144.00    1.60082   1.56197   -1.000
 5145.00    1.59425   1.56725   85.987
 5146.00    1.57796   1.56803   85.018
 5147.00    1.58981   1.56523   84.491
 5148.00    1.57767   1.56454   85.431
 5149.00    1.57222   1.56787   86.968
 5150.00    1.59275   1.56935   87.619
 5151.00    1.58866   1.56448   87.242
 5152.00    1.58235   1.55591   85.652
 5153.00    1.59965   1.55013   -1.000
 5154.00    1.60335   1.55338   -1.000
 5155.00    1.63622   1.56878   -1.000
 5156.00    1.66695   1.59447   -1.000
 5157.00    1.68828   1.62333   -1.000
 5158.00    1.66993   1.64770   79.366
 5159.00    1.68321   1.66300   79.811
 5160.00    1.69665   1.66817   80.685
 5161.00    1.69998   1.66339   -1.000
 5162.00    1.68313   1.64821   -1.000
 5163.00    1.63673   1.62096   91.712
 5164.00    1.61902   1.57735   -1.000
 5165.00    1.50788   1.51210  108.315
 5166.00    1.38089   1.42925   -1.000
 5167.00    1.30561   1.35118   -1.000
 5168.00    1.30356   1.30573   99.099
 5169.00    1.37562   1.30091   -1.000
 5170.00    1.41030   1.31132   -1.000
 5171.00    1.36017   1.30610   -1.000
 5172.00    1.26428   1.28741   96.903
 5173.00    1.28742   1.28656   88.735
 5174.00    1.42707   1.33082   -1.000
 5175.00    1.55245   1.41208   -1.000
 5176.00    1.59485   1.49660   -1.000
 5177.00    1.62942   1.55737   -1.000
 5178.00    1.66916   1.58578   -1.000
 5179.00    1.65423   1.58339   -1.000
 5180.00    1.61145   1.54972   -1.000
 5181.00    1.52664   1.48352   -1.000
 5182.00    1.37759   1.39707  108.335
 5183.00    1.26269   1.32085   -1.000
 5184.00    1.27354   1.29209   87.989
 5185.00    1.39539   1.32633   -1.000
 5186.00    1.53392   1.40444   -1.000
 5187.00    1.61834   1.48788   -1.000
 5188.00    1.65373   1.54666   -1.000
 5189.00    1.65161   1.57552   -1.000
 5190.00    1.62813   1.58129   -1.000
 5191.00    1.59138   1.57062   89.145
 5192.00    1.55463   1.55247   87.636
 5193.00    1.55286   1.53914   86.325
 5194.00    1.58345   1.53847   -1.000
 5195.00    1.61679   1.55056   -1.000
 5196.00    1.63244   1.57053   -1.000
 5197.00    1.65585   1.59498   -1.000
 5198.00    1.67740   1.62168   -1.000
 5199.00    1.69984   1.64551   -1.000
 5200.00    1.69136   1.65963   -1.000
 5201.00    1.69756   1.65890   -1.000
 5202.00    1.67930   1.64082   -1.000
 5203.00    1.65327   1.60682   -1.000
 5204.00    1.60224   1.56294   -1.000
 5205.00    1.55740   1.51881   -1.000
 5206.00    1.57545   1.48408   -1.000
 5207.00    1.56443   1.46440   -1.000
 5208.00    1.55877   1.46061   -1.000
 5209.00    1.56145   1.47329   -1.000
 5210.00    1.60097   1.50446   -1.000
 5211.00    1.64146   1.55217   -1.000
 5212.00    1.70978   1.60628   -1.000
 5213.00    1.75054   1.64966   -1.000
 5214.00    1.72572   1.66914   -1.000
 5215.00    1.67430   1.66488   82.266
 5216.00    1.62763   1.65153   80.516
 5217.00    1.62643   1.64745   79.272
 5218.00    1.68067   1.66140   78.644
 5219.00    1.72964   1.68882   -1.000
 5220.00    1.72620   1.71729   79.292
 5221.00    1.74233   1.73594   81.677
 5222.00    1.76523   1.73774   85.037
 5223.00    1.71168   1.71890   89.019
 5224.00    1.64652   1.67867   91.548
 5225.00    1.57700   1.62294   -1.000
 5226.00    1.53549   1.56900   84.800
 5227.00    1.52420   1.54066   81.284
 5228.00    1.57913   1.55027   79.785
 5229.00    1.66524   1.58889   -1.000
 5230.00    1.70844   1.63098   -1.000
 5231.00    1.71462   1.65531   -1.000
 5232.00    1.68121   1.65744   82.526
 5233.00    1.66101   1.64850   80.668
 5234.00    1.63332   1.64554   78.736
 5235.00    1.66520   1.65959   77.825
 5236.00    1.69574   1.68867   77.737
 5237.00    1.73927   1.72116   77.980
 5238.00    1.74935   1.74587   77.851
 5239.00    1.76202   1.75823   77.395
 5240.00    1.75418   1.76053   77.501
 5241.00    1.75213   1.75761   77.349
 5242.00    1.72577   1.75422   77.224
 5243.00    1.74836   1.75368   78.743
 5244.00    1.77878   1.75506   81.208
 5245.00    1.78026   1.75186   83.116
 5246.00    1.73281   1.73810   83.361
 5247.00    1.69078   1.71601   83.512
 5248.00    1.67331   1.69402   84.044
 5249.00    1.69500   1.67951   83.662
 5250.00    1.70220   1.67359   82.509
 5251.00    1.69590   1.67400   81.684
 5252.00    1.67946   1.67860   81.685
 5253.00    1.69662   1.68526   81.108
 5254.00    1.70101   1.69247   79.225
 5255.00    1.71717   1.70252   77.082
 5256.00    1.74470   1.71925   76.381
 5257.00    1.76129   1.74089   77.081
 5258.00    1.82021   1.75896   -1.000
 5259.00    1.79677   1.76206   -1.000
 5260.00    1.75363   1.74277   86.478
 5261.00    1.69888   1.70124   89.491
 5262.00    1.61633   1.64487   91.352
 5263.00    1.55652   1.58571   91.619
 5264.00    1.53943   1.53658   90.036
 5265.00    1.55973   1.50682   -1.000
 5266.00    1.58549   1.49747   -1.000
 5267.00    1.58574   1.49801   -1.000
 5268.00    1.55982   1.49393   -1.000
 5269.00    1.52302   1.48197   -1.000
 5270.00    1.52034   1.47523   -1.000
 5271.00    1.56481   1.49228   -1.000
 5272.00    1.64345   1.53343   -1.000
 5273.00    1.69726   1.58055   -1.000
 5274.00    1.68195   1.61877   -1.000
 5275.00    1.66352   1.64691   77.837
 5276.00    1.69846   1.67374   76.379
 5277.00    1.77379   1.70487   -1.000
 5278.00    1.79567   1.73488   -1.000
 5279.00    1.77409   1.75118   80.747
 5280.00    1.76129   1.74493   82.227
 5281.00    1.72506   1.72082   82.636
 5282.00    1.71018   1.69273   80.964
 5283.00    1.68885   1.67537   78.479
 5284.00    1.68659   1.67873   76.003
 5285.00    1.75448   1.70454   -1.000
 5286.00    1.78443   1.74326   -1.000
 5287.00    1.68454   1.78015   -1.000
 5288.00    1.80732   1.80486   75.375
 5289.00    1.84600   1.81698   75.215
 5290.00    1.83773   1.82145   75.660
 5291.00    1.82914   1.82151   76.379
 5292.00    1.79561   1.81841   77.397
 5293.00    1.82024   1.81184   79.507
 5294.00    1.82288   1.79817   82.580
 5295.00    1.77187   1.77299   84.795
 5296.00    1.73465   1.73639   84.252
 5297.00    1.66682   1.69708   82.096
 5298.00    1.65936   1.67043   80.571
 5299.00    1.67858   1.66621   80.063
 5300.00    1.72915   1.68060   -1.000
 5301.00    1.74729   1.70303   -1.000
 5302.00    1.76258   1.72623   -1.000
 5303.00    1.78713   1.75027   -1.000
 5304.00    1.80717   1.77474   76.079
 5305.00    1.81268   1.79358   76.741
 5306.00    1.84024   1.80232   -1.000
 5307.00    1.83461   1.80349   75.421
 5308.00    1.81747   1.80474   74.943
 5309.00    1.83496   1.81215   75.023
 5310.00    1.85093   1.82378   75.452
 5311.00    1.87280   1.83301   -1.000
 5312.00    1.89237   1.83434   -1.000
 5313.00    1.84547   1.82670   77.092
 5314.00    1.81564   1.81253   77.776
 5315.00    1.81290   1.79566   77.791
 5316.00    1.77789   1.78094   77.203
 5317.00    1.77691   1.77454   76.879
 5318.00    1.78072   1.77881   77.171
 5319.00    1.81987   1.78875   77.721
 5320.00    1.84665   1.79407   -1.000
 5321.00    1.82148   1.78746   -1.000
 5322.00    1.80956   1.76890   -1.000
 5323.00    1.77211   1.74260   80.718
 5324.00    1.74532   1.71416   -1.000
 5325.00    1.71052   1.68519   88.424
 5326.00    1.69372   1.65204   -1.000
 5327.00    1.64477   1.61251   -1.000
 5328.00    1.57037   1.57738   82.262
 5329.00    1.59537   1.56869   79.661
 5330.00    1.72035   1.59616   -1.000
 5331.00    1.75969   1.64777   -1.000
 5332.00    1.76361   1.69913   -1.000
 5333.00    1.78537   1.73571   -1.000
 5334.00    1.80113   1.75913   -1.000
 5335.00    1.80258   1.77381   77.886
 5336.00    1.80540   1.77965   78.750
 5337.00    1.78905   1.77483   80.780
 5338.00    1.79251   1.75899   -1.000
 5339.00    1.76728   1.73503   -1.000
 5340.00    1.71929   1.71104   79.199
 5341.00    1.69402   1.69924   77.801
 5342.00    1.74235   1.70644   -1.000
 5343.00    1.81093   1.72724   -1.000
 5344.00    1.81215   1.74624   -1.000
 5345.00    1.78101   1.75244   79.245
 5346.00    1.76616   1.74645   79.973
 5347.00    1.79425   1.73590   -1.000
 5348.00    1.80499   1.72871   -1.000
 5349.00    1.77214   1.72941   -1.000
 5350.00    1.78695   1.73986   -1.000
 5351.00    1.81904   1.75868   -1.000
 5352.00    1.82911   1.78091   -1.000
 5353.00    1.81179   1.80046   74.265
 5354.00    1.83130   1.81610   73.722
 5355.00    1.87275   1.83071   -1.000
 5356.00    1.87708   1.84459   73.924
 5357.00    1.87204   1.85518   74.201
 5358.00    1.86859   1.85956   75.096
 5359.00    1.88999   1.85717   -1.000
 5360.00    1.87937   1.84838   77.487
 5361.00    1.83597   1.83316   78.010
 5362.00    1.83259   1.81294   78.460
 5363.00    1.82269   1.79105   -1.000
 5364.00    1.78883   1.77127   78.661
 5365.00    1.77598   1.75708   78.669
 5366.00    1.77784   1.74918   79.506
 5367.00    1.76948   1.74360   81.544
 5368.00    1.77748   1.73253   -1.000
 5369.00    1.73140   1.71064   84.207
 5370.00    1.71583   1.68118   -1.000
 5371.00    1.68970   1.65797   77.212
 5372.00    1.73067   1.65762   -1.000
 5373.00    1.78415   1.68615   -1.000
 5374.00    1.85387   1.73391   -1.000
 5375.00    1.90550   1.78078   -1.000
 5376.00    1.87261   1.81272   -1.000
 5377.00    1.85267   1.82701   75.774
 5378.00    1.84791   1.82872   76.542
 5379.00    1.82296   1.82361   77.295
 5380.00    1.83164   1.81473   77.654
 5381.00    1.82161   1.80354   77.582
 5382.00    1.81401   1.79218   77.198
 5383.00    1.83280   1.78487   -1.000
 5384.00    1.81370   1.78649   76.231
 5385.00    1.83319   1.79789   -1.000
 5386.00    1.85358   1.81338   -1.000
 5387.00    1.85849   1.82373   -1.000
 5388.00    1.81926   1.82335   79.439
 5389.00    1.82218   1.81235   79.764
 5390.00    1.80174   1.79508   79.787
 5391.00    1.78316   1.77675   80.045
 5392.00    1.76106   1.76068   80.661
 5393.00    1.79487   1.74781   -1.000
 5394.00    1.80048   1.73687   -1.000
 5395.00    1.76607   1.72400   -1.000
 5396.00    1.76931   1.70780   -1.000
 5397.00    1.76177   1.69454   -1.000
 5398.00    1.76619   1.69366   -1.000
 5399.00    1.77620   1.70999   -1.000
 5400.00    1.78176   1.73518   -1.000
 5401.00    1.80222   1.75437   -1.000
 5402.00    1.79808   1.75648   -1.000
 5403.00    1.77707   1.73809   -1.000
 5404.00    1.73094   1.70510   84.243
 5405.00    1.67416   1.67299   82.404
 5406.00    1.68116   1.65713   81.767
 5407.00    1.73663   1.66107   -1.000
 5408.00    1.77551   1.67612   -1.000
 5409.00    1.76396   1.68966   -1.000
 5410.00    1.73834   1.69985   -1.000
 5411.00    1.77267   1.71432   -1.000
 5412.00    1.82166   1.73618   -1.000
 5413.00    1.84683   1.76021   -1.000
 5414.00    1.81850   1.77847   -1.000
 5415.00    1.78528   1.79029   76.255
 5416.00    1.79059   1.80131   76.627
 5417.00    1.83199   1.81306   77.422
 5418.00    1.82996   1.82264   77.859
 5419.00    1.83323   1.82680   77.487
 5420.00    1.84683   1.82487   77.182
 5421.00    1.84516   1.81841   78.375
 5422.00    1.81738   1.80861   79.054
 5423.00    1.80249   1.79697   78.094
 5424.00    1.77627   1.78871   76.738
 5425.00    1.78991   1.78896   77.109
 5426.00    1.82139   1.79701   79.392
 5427.00    1.84715   1.80167   -1.000
 5428.00    1.81524   1.79034   81.912
 5429.00    1.76638   1.76571   80.324
 5430.00    1.75841   1.74194   80.412
 5431.00    1.78875   1.73138   -1.000
 5432.00    1.78512   1.73179   -1.000
 5433.00    1.78025   1.73171   -1.000
 5434.00    1.78478   1.72818   -1.000
 5435.00    1.76078   1.72890   78.161
 5436.00    1.78217   1.74364   -1.000
 5437.00    1.82656   1.77399   -1.000
 5438.00    1.85988   1.81046   -1.000
 5439.00    1.89275   1.84193   -1.000
 5440.00    1.90203   1.86263   -1.000
 5441.00    1.88540   1.87373   75.727
 5442.00    1.86745   1.87515   77.859
 5443.00    1.83597   1.86332   81.183
 5444.00    1.82970   1.83529   83.801
 5445.00    1.80790   1.79422   82.898
 5446.00    1.72763   1.75336   80.060
 5447.00    1.72152   1.72933   77.865
 5448.00    1.77709   1.73226   -1.000
 5449.00    1.86272   1.75821   -1.000
 5450.00    1.87545   1.79084   -1.000
 5451.00    1.90128   1.81454   -1.000
 5452.00    1.91534   1.81980   -1.000
 5453.00    1.86341   1.80517   -1.000
 5454.00    1.81415   1.77694   -1.000
 5455.00    1.76783   1.74915   79.542
 5456.00    1.78630   1.73809   -1.000
 5457.00    1.83342   1.75271   -1.000
 5458.00    1.88612   1.78337   -1.000
 5459.00    1.90581   1.81151   -1.000
 5460.00    1.89566   1.82255   -1.000
 5461.00    1.86913   1.81462   -1.000
 5462.00    1.81816   1.79652   79.975
 5463.00    1.80253   1.78106   79.060
 5464.00    1.80453   1.77765   78.741
 5465.00    1.83697   1.78725   -1.000
 5466.00    1.89200   1.80400   -1.000
 5467.00    1.86893   1.82034   -1.000
 5468.00    1.85111   1.83220   79.196
 5469.00    1.86656   1.83812   79.419
 5470.00    1.86873   1.83738   -1.000
 5471.00    1.87053   1.83093   -1.000
 5472.00    1.88714   1.82025   -1.000
 5473.00    1.85815   1.80523   -1.000
 5474.00    1.84209   1.78497   -1.000
 5475.00    1.80413   1.76053   -1.000
 5476.00    1.76087   1.73798   81.220
 5477.00    1.74721   1.72769   79.793
 5478.00    1.77618   1.73489   -1.000
 5479.00    1.83369   1.75483   -1.000
 5480.00    1.82953   1.77506   -1.000
 5481.00    1.80366   1.78674   79.810
 5482.00    1.79896   1.79358   78.161
 5483.00    1.81225   1.80291   77.587
 5484.00    1.85038   1.81711   -1.000
 5485.00    1.88531   1.83066   -1.000
 5486.00    1.85675   1.83588   80.032
 5487.00    1.83025   1.83189   80.002
 5488.00    1.85022   1.82444   79.377
 5489.00    1.84291   1.82098   78.803
 5490.00    1.87336   1.82405   -1.000
 5491.00    1.89967   1.83065   -1.000
 5492.00    1.86921   1.83702   -1.000
 5493.00    1.85758   1.84068   78.767
 5494.00    1.88401   1.84100   -1.000
 5495.00    1.87194   1.83731   -1.000
 5496.00    1.83143   1.82950   79.411
 5497.00    1.84041   1.82023   78.481
 5498.00    1.86841   1.81316   -1.000
 5499.00    1.85886   1.80939   -1.000
 5500.00    1.84727   1.80595   -1.000
 5501.00    1.87721   1.79927   -1.000
 5502.00    1.88416   1.79178   -1.000
 5503.00    1.85799   1.78845   -1.000
 5504.00    1.85903   1.78756   -1.000
 5505.00    1.84460   1.78479   -1.000
 5506.00    1.84276   1.77913   -1.000
 5507.00    1.85885   1.77550   -1.000
 5508.00    1.86537   1.78009   -1.000
 5509.00    1.85110   1.79007   -1.000
 5510.00    1.85730   1.79683   -1.000
 5511.00    1.83311   1.79310   -1.000
 5512.00    1.83905   1.77976   -1.000
 5513.00    1.78496   1.76578   80.851
 5514.00    1.79701   1.76106   -1.000
 5515.00    1.86719   1.77010   -1.000
 5516.00    1.91003   1.78952   -1.000
 5517.00    1.91501   1.81318   -1.000
 5518.00    1.91747   1.83523   -1.000
 5519.00    1.91167   1.85197   -1.000
 5520.00    1.92173   1.86165   -1.000
 5521.00    1.90286   1.86541   -1.000
 5522.00    1.91639   1.86530   -1.000
 5523.00    1.91483   1.86208   -1.000
 5524.00    1.88282   1.85335   -1.000
 5525.00    1.88659   1.83554   -1.000
 5526.00    1.83979   1.80923   -1.000
 5527.00    1.78670   1.78063   81.347
 5528.00    1.78759   1.76182   79.187
 5529.00    1.80874   1.76224   -1.000
 5530.00    1.86094   1.78239   -1.000
 5531.00    1.89667   1.81016   -1.000
 5532.00    1.88616   1.83051   -1.000
 5533.00    1.86899   1.83746   -1.000
 5534.00    1.85226   1.83463   78.682
 5535.00    1.84349   1.83021   78.539
 5536.00    1.87431   1.83012   -1.000
 5537.00    1.88266   1.83539   -1.000
 5538.00    1.89106   1.84288   -1.000
 5539.00    1.92272   1.85026   -1.000
 5540.00    1.91081   1.85717   -1.000
 5541.00    1.91890   1.86181   -1.000
 5542.00    1.91496   1.86105   -1.000
 5543.00    1.90217   1.85567   -1.000
 5544.00    1.87685   1.85007   78.234
 5545.00    1.88926   1.84886   -1.000
 5546.00    1.90981   1.85305   -1.000
 5547.00    1.91320   1.86086   -1.000
 5548.00    1.91517   1.87083   -1.000
 5549.00    1.94496   1.88095   -1.000
 5550.00    1.91374   1.88769   77.353
 5551.00    1.93683   1.88898   -1.000
 5552.00    1.89799   1.88485   78.551
 5553.00    1.88440   1.87729   78.381
 5554.00    1.88119   1.87003   78.126
 5555.00    1.88955   1.86634   78.008
 5556.00    1.90303   1.86700   -1.000
 5557.00    1.90323   1.87003   -1.000
 5558.00    1.92764   1.87359   -1.000
 5559.00    1.93256   1.87624   -1.000
 5560.00    1.92256   1.87563   -1.000
 5561.00    1.91078   1.86993   -1.000
 5562.00    1.92097   1.85991   -1.000
 5563.00    1.91838   1.84892   -1.000
 5564.00    1.88202   1.83983   -1.000
 5565.00    1.88033   1.83319   -1.000
 5566.00    1.90586   1.82836   -1.000
 5567.00    1.89743   1.82465   -1.000
 5568.00    1.87708   1.82169   -1.000
 5569.00    1.86387   1.81897   -1.000
 5570.00    1.83822   1.81605   80.335
 5571.00    1.80368   1.81250   79.902
 5572.00    1.73535   1.80919   -1.000
 5573.00    1.56474   1.80792   -1.000
 5574.00    1.59720   1.81129   -1.000
 5575.00    2.07212   1.81919   -1.000
 5576.00    2.64024   1.82869   -1.000
 5577.00    2.59678   1.83896   -1.000
 5578.00    2.15880   1.84956   -1.000
 5579.00    2.03981   1.85833   -1.000
 5580.00    1.93660   1.86307   -1.000
 5581.00    1.92954   1.86375   -1.000
 5582.00    1.90289   1.86188   -1.000
 5583.00    1.92312   1.85772   -1.000
 5584.00    1.92761   1.84821   -1.000
 5585.00    1.88443   1.82895   -1.000
 5586.00    1.85369   1.79781   -1.000
 5587.00    1.79628   1.76136   -1.000
 5588.00    1.78499   1.73347   -1.000
 5589.00    1.81418   1.72355   -1.000
 5590.00    1.83024   1.73321   -1.000
 5591.00    1.86085   1.75454   -1.000
 5592.00    1.86899   1.77667   -1.000
 5593.00    1.85329   1.79173   -1.000
 5594.00    1.83785   1.80024   -1.000
 5595.00    1.88835   1.80671   -1.000
 5596.00    1.90251   1.81240   -1.000
 5597.00    1.90569   1.81398   -1.000
 5598.00    1.87083   1.80760   -1.000
 5599.00    1.88144   1.79568   -1.000
 5600.00    1.85099   1.78401   -1.000
 5601.00    1.83673   1.77534   -1.000
 5602.00    1.82930   1.77364   -1.000
 5603.00    1.85150   1.78509   -1.000
 5604.00    1.87524   1.81091   -1.000
 5605.00    1.92758   1.84547   -1.000
 5606.00    1.97199   1.87889   -1.000
 5607.00    1.97208   1.90305   -1.000
 5608.00    1.96825   1.91663   -1.000
 5609.00    1.96809   1.92238   -1.000
 5610.00    1.96399   1.92384   -1.000
 5611.00    1.96999   1.92134   -1.000
 5612.00    1.95720   1.91119   -1.000
 5613.00    1.91753   1.88824   -1.000
 5614.00    1.86097   1.85333   82.740
 5615.00    1.83057   1.81722   80.671
 5616.00    1.84316   1.79473   -1.000
 5617.00    1.85435   1.79642   -1.000
 5618.00    1.89198   1.81580   -1.000
 5619.00    1.92966   1.83991   -1.000
 5620.00    1.94113   1.85922   -1.000
 5621.00    1.97400   1.86970   -1.000
 5622.00    1.96372   1.87058   -1.000
 5623.00    1.90994   1.86299   -1.000
 5624.00    1.90201   1.85097   -1.000
 5625.00    1.88963   1.84315   -1.000
 5626.00    1.87592   1.84586   78.352
 5627.00    1.93455   1.85897   -1.000
 5628.00    1.97056   1.87722   -1.000
 5629.00    1.97155   1.89396   -1.000
 5630.00    1.97807   1.90565   -1.000
 5631.00    1.98973   1.91112   -1.000
 5632.00    1.95836   1.91028   -1.000
 5633.00    1.96087   1.90465   -1.000
 5634.00    1.95195   1.89635   -1.000
 5635.00    1.96021   1.88653   -1.000
 5636.00    1.95278   1.87718   -1.000
 5637.00    1.93505   1.87012   -1.000
 5638.00    1.91200   1.86624   -1.000
 5639.00    1.93063   1.86534   -1.000
 5640.00    1.90392   1.86562   -1.000
 5641.00    1.92797   1.86542   -1.000
 5642.00    1.92153   1.86597   -1.000
 5643.00    1.93366   1.86853   -1.000
 5644.00    1.95600   1.87261   -1.000
 5645.00    1.96468   1.87756   -1.000
 5646.00    1.95791   1.88240   -1.000
 5647.00    1.96546   1.88562   -1.000
 5648.00    1.95334   1.88657   -1.000
 5649.00    1.94700   1.88610   -1.000
 5650.00    1.95226   1.88585   -1.000
 5651.00    1.95428   1.88716   -1.000
 5652.00    1.96883   1.88848   -1.000
 5653.00    1.94539   1.88701   -1.000
 5654.00    1.92626   1.88060   -1.000
 5655.00    1.95622   1.86819   -1.000
 5656.00    1.91639   1.85019   -1.000
 5657.00    1.86759   1.82873   -1.000
 5658.00    1.82188   1.80951   81.723
 5659.00    1.82846   1.80042   81.629
 5660.00    1.89592   1.80393   -1.000
 5661.00    1.90262   1.81485   -1.000
 5662.00    1.90559   1.82775   -1.000
 5663.00    1.92380   1.84003   -1.000
 5664.00    1.93003   1.85261   -1.000
 5665.00    1.93631   1.86534   -1.000
 5666.00    1.92345   1.87410   -1.000
 5667.00    1.94381   1.87713   -1.000
 5668.00    1.94085   1.87697   -1.000
 5669.00    1.91220   1.87742   -1.000
 5670.00    1.95868   1.88107   -1.000
 5671.00    1.98483   1.88763   -1.000
 5672.00    1.98742   1.89551   -1.000
 5673.00    1.98789   1.90263   -1.000
 5674.00    1.95240   1.90792   -1.000
 5675.00    1.95280   1.91064   -1.000
 5676.00    1.96542   1.91189   -1.000
 5677.00    1.97039   1.91252   -1.000
 5678.00    1.96406   1.91172   -1.000
 5679.00    1.96660   1.90716   -1.000
 5680.00    1.96231   1.89720   -1.000
 5681.00    1.96762   1.88228   -1.000
 5682.00    1.92153   1.86563   -1.000
 5683.00    1.91601   1.85276   -1.000
 5684.00    1.92489   1.84734   -1.000
 5685.00    1.90281   1.84884   -1.000
 5686.00    1.88770   1.85198   -1.000
 5687.00    1.90411   1.85179   -1.000
 5688.00    1.92003   1.84991   -1.000
 5689.00    1.91346   1.85150   -1.000
 5690.00    1.94852   1.86061   -1.000
 5691.00    1.98786   1.87601   -1.000
 5692.00    1.98998   1.89216   -1.000
 5693.00    1.98431   1.90466   -1.000
 5694.00    1.97660   1.91185   -1.000
 5695.00    1.99703   1.91458   -1.000
 5696.00    1.97560   1.91332   -1.000
 5697.00    1.98062   1.90862   -1.000
 5698.00    1.96357   1.90036   -1.000
 5699.00    1.90294   1.88924   81.521
 5700.00    1.89392   1.87804   80.771
 5701.00    1.88762   1.86960   79.967
 5702.00    1.90428   1.86629   -1.000
 5703.00    1.92297   1.86713   -1.000
 5704.00    1.93414   1.86921   -1.000
 5705.00    1.91864   1.86782   -1.000
 5706.00    1.89239   1.85957   -1.000
 5707.00    1.87573   1.84452   -1.000
 5708.00    1.86838   1.82543   -1.000
 5709.00    1.84953   1.80758   -1.000
 5710.00    1.83686   1.79809   -1.000
 5711.00    1.86688   1.80140   -1.000
 5712.00    1.89754   1.81736   -1.000
 5713.00    1.90572   1.84229   -1.000
 5714.00    1.96156   1.86884   -1.000
 5715.00    1.98677   1.89060   -1.000
 5716.00    1.96823   1.90473   -1.000
 5717.00    1.97623   1.91370   -1.000
 5718.00    1.98103   1.92073   -1.000
 5719.00    2.01003   1.92809   -1.000
 5720.00    2.02665   1.93633   -1.000
 5721.00    2.03347   1.94462   -1.000
 5722.00    2.02523   1.95134   -1.000
 5723.00    2.04040   1.95525   -1.000
 5724.00    2.01389   1.95547   -1.000
 5725.00    2.00033   1.95158   -1.000
 5726.00    1.97860   1.94394   -1.000
 5727.00    1.96441   1.93575   77.826
 5728.00    1.98184   1.93072   -1.000
 5729.00    1.99431   1.92960   -1.000
 5730.00    1.99644   1.93086   -1.000
 5731.00    1.98588   1.93193   -1.000
 5732.00    1.97885   1.93344   -1.000
 5733.00    1.99554   1.93749   -1.000
 5734.00    1.98355   1.94416   -1.000
 5735.00    1.99739   1.95095   -1.000
 5736.00    2.01229   1.95465   -1.000
 5737.00    2.00977   1.95501   -1.000
 5738.00    1.98980   1.95373   -1.000
 5739.00    1.99139   1.95259   -1.000
 5740.00    1.99025   1.95191   -1.000
 5741.00    2.01192   1.95098   -1.000
 5742.00    1.98850   1.94978   -1.000
 5743.00    1.97304   1.94977   76.590
 5744.00    1.99502   1.95123   -1.000
 5745.00    2.00243   1.95326   -1.000
 5746.00    1.98186   1.95354   78.048
 5747.00    1.96786   1.95182   77.522
 5748.00    1.98612   1.95003   -1.000
 5749.00    2.01162   1.94918   -1.000
 5750.00    1.99146   1.94735   -1.000
 5751.00    1.97277   1.94074   -1.000
 5752.00    1.93283   1.92922   79.581
 5753.00    1.92319   1.91794   78.389
 5754.00    1.92317   1.91322   76.948
 5755.00    1.95921   1.91959   -1.000
 5756.00    1.98736   1.93421   -1.000
 5757.00    2.00643   1.95048   -1.000
 5758.00    2.02548   1.96112   -1.000
 5759.00    2.02629   1.96245   -1.000
 5760.00    1.99355   1.95468   -1.000
 5761.00    1.94707   1.94152   78.751
 5762.00    1.93747   1.92872   77.342
 5763.00    1.95849   1.92379   -1.000
 5764.00    1.98526   1.92994   -1.000
 5765.00    2.01019   1.94464   -1.000
 5766.00    2.01521   1.96082   -1.000
 5767.00    2.01124   1.97209   -1.000
 5768.00    2.01410   1.97705   -1.000
 5769.00    2.01130   1.97737   -1.000
 5770.00    2.00971   1.97487   -1.000
 5771.00    1.98525   1.97010   77.768
 5772.00    1.98176   1.96346   77.824
 5773.00    1.99372   1.95637   -1.000
 5774.00    1.95704   1.95156   77.223
 5775.00    1.92670   1.95013   77.235
 5776.00    1.93374   1.95116   77.624
 5777.00    1.95514   1.95156   78.948
 5778.00    1.91552   1.94685   80.713
 5779.00    1.88011   1.93500   -1.000
 5780.00    1.89187   1.91845   81.201
 5781.00    1.91308   1.90197   80.883
 5782.00    1.95060   1.89089   -1.000
 5783.00    1.96488   1.88695   -1.000
 5784.00    1.94051   1.88892   -1.000
 5785.00    1.92439   1.89456   78.219
 5786.00    1.96929   1.90292   -1.000
 5787.00    1.98379   1.91426   -1.000
 5788.00    2.00430   1.92570   -1.000
 5789.00    2.00448   1.93294   -1.000
 5790.00    1.97207   1.93535   -1.000
 5791.00    1.96521   1.93584   76.840
 5792.00    1.96205   1.93954   76.435
 5793.00    1.95212   1.94815   76.500
 5794.00    1.96056   1.95914   77.019
 5795.00    1.98011   1.96856   77.394
 5796.00    1.98336   1.97318   76.838
 5797.00    1.99396   1.97284   75.785
 5798.00    2.00944   1.97090   -1.000
 5799.00    2.03239   1.97208   -1.000
 5800.00    2.03606   1.97713   -1.000
 5801.00    2.03189   1.98316   -1.000
 5802.00    2.04214   1.98645   -1.000
 5803.00    2.04218   1.98478   -1.000
 5804.00    1.98851   1.97910   76.756
 5805.00    1.99206   1.97273   76.468
 5806.00    2.00694   1.96925   -1.000
 5807.00    1.99978   1.96963   76.291
 5808.00    1.97491   1.97262   76.175
 5809.00    1.99504   1.97626   75.872
 5810.00    2.04570   1.97967   -1.000
 5811.00    2.04753   1.98195   -1.000
 5812.00    2.04781   1.98204   -1.000
 5813.00    2.05793   1.97918   -1.000
 5814.00    2.03318   1.97369   -1.000
 5815.00    2.00800   1.96713   -1.000
 5816.00    1.99244   1.96289   75.421
 5817.00    2.02534   1.96422   -1.000
 5818.00    2.07702   1.97112   -1.000
 5819.00    2.08109   1.97945   -1.000
 5820.00    2.09043   1.98552   -1.000
 5821.00    2.08449   1.98841   -1.000
 5822.00    2.05076   1.98926   -1.000
 5823.00    2.03138   1.98942   -1.000
 5824.00    2.04877   1.98943   -1.000
 5825.00    2.04369   1.98968   -1.000
 5826.00    2.04953   1.99091   -1.000
 5827.00    2.05984   1.99297   -1.000
 5828.00    2.06410   1.99510   -1.000
 5829.00    2.06825   1.99618   -1.000
 5830.00    2.07738   1.99618   -1.000
 5831.00    2.07358   1.99537   -1.000
 5832.00    2.04370   1.99379   -1.000
 5833.00    2.04919   1.99165   -1.000
 5834.00    2.08115   1.98948   -1.000
 5835.00    2.05717   1.98869   -1.000
 5836.00    2.04234   1.98990   -1.000
 5837.00    2.02885   1.99257   -1.000
 5838.00    2.04697   1.99488   -1.000
 5839.00    2.05305   1.99634   -1.000
 5840.00    2.05774   1.99751   -1.000
 5841.00    2.05519   1.99872   -1.000
 5842.00    2.03852   1.99920   -1.000
 5843.00    2.05326   1.99816   -1.000
 5844.00    2.06713   1.99530   -1.000
 5845.00    2.05059   1.99075   -1.000
 5846.00    2.04160   1.98519   -1.000
 5847.00    2.05703   1.98019   -1.000
 5848.00    2.04865   1.97682   -1.000
 5849.00    2.03231   1.97436   -1.000
 5850.00    2.04673   1.96999   -1.000
 5851.00    2.05025   1.96240   -1.000
 5852.00    2.04241   1.95184   -1.000
 5853.00    2.02917   1.94062   -1.000
 5854.00    2.00723   1.92951   -1.000
 5855.00    1.98442   1.91708   -1.000
 5856.00    1.99101   1.90254   -1.000
 5857.00    1.96410   1.88754   -1.000
 5858.00    1.98531   1.87951   -1.000
 5859.00    1.99181   1.88427   -1.000
 5860.00    1.99725   1.89876   -1.000
 5861.00    2.00611   1.91648   -1.000
 5862.00    2.02421   1.93149   -1.000
 5863.00    2.01615   1.94155   -1.000
 5864.00    2.03436   1.94717   -1.000
 5865.00    2.05308   1.94769   -1.000
 5866.00    2.03583   1.94455   -1.000
 5867.00    2.04687   1.94223   -1.000
 5868.00    2.06137   1.94456   -1.000
 5869.00    2.04389   1.95299   -1.000
 5870.00    2.02766   1.96397   -1.000
 5871.00    2.04647   1.97258   -1.000
 5872.00    2.07382   1.97593   -1.000
 5873.00    2.05913   1.97478   -1.000
 5874.00    2.03642   1.97148   -1.000
 5875.00    2.06213   1.96781   -1.000
 5876.00    2.07171   1.96398   -1.000
 5877.00    2.04380   1.95942   -1.000
 5878.00    2.03039   1.95365   -1.000
 5879.00    2.02327   1.94667   -1.000
 5880.00    2.01658   1.93883   -1.000
 5881.00    2.01279   1.93045   -1.000
 5882.00    2.01818   1.92103   -1.000
 5883.00    1.98513   1.91034   -1.000
 5884.00    1.93534   1.89784   -1.000
 5885.00    1.80978   1.88010   -1.000
 5886.00    1.66673   1.84998   -1.000
 5887.00    1.52806   1.79834   -1.000
 5888.00    1.51623   1.72429   -1.000
 5889.00    1.56267   1.64583   -1.000
 5890.00    1.61999   1.58810   -1.000
 5891.00    1.61518   1.57279   -1.000
 5892.00    1.58892   1.58841   88.699
 5893.00    1.54181   1.60997   -1.000
 5894.00    1.56898   1.61800   -1.000
 5895.00    1.66181   1.61158   -1.000
 5896.00    1.76912   1.60856   -1.000
 5897.00    1.84799   1.62506   -1.000
 5898.00    1.90710   1.66741   -1.000
 5899.00    1.94395   1.72319   -1.000
 5900.00    1.98290   1.77892   -1.000
 5901.00    2.02034   1.82738   -1.000
 5902.00    2.04213   1.86483   -1.000
 5903.00    2.02584   1.89061   -1.000
 5904.00    2.02156   1.90673   -1.000
 5905.00    1.99670   1.91617   -1.000
 5906.00    2.00755   1.92269   -1.000
 5907.00    1.99636   1.92811   -1.000
 5908.00    2.01763   1.93305   -1.000
 5909.00    2.03843   1.93730   -1.000
 5910.00    2.04069   1.94008   -1.000
 5911.00    2.04538   1.93962   -1.000
 5912.00    2.02231   1.93490   -1.000
 5913.00    1.95791   1.92599   -1.000
 5914.00    1.95077   1.91606   -1.000
 5915.00    1.98284   1.90975   -1.000
 5916.00    2.00921   1.90957   -1.000
 5917.00    1.99655   1.91569   -1.000
 5918.00    1.98364   1.92538   -1.000
 5919.00    2.01785   1.93514   -1.000
 5920.00    2.02938   1.94161   -1.000
 5921.00    2.02846   1.94470   -1.000
 5922.00    2.03654   1.94553   -1.000
 5923.00    2.02995   1.94642   -1.000
 5924.00    2.02485   1.94864   -1.000
 5925.00    2.03944   1.95201   -1.000
 5926.00    2.06928   1.95446   -1.000
 5927.00    2.06949   1.95323   -1.000
 5928.00    2.02392   1.94748   -1.000
 5929.00    1.99607   1.93969   -1.000
 5930.00    2.00522   1.93462   -1.000
 5931.00    2.01399   1.93457   -1.000
 5932.00    2.03318   1.93873   -1.000
 5933.00    2.04518   1.94324   -1.000
 5934.00    2.04582   1.94649   -1.000
 5935.00    2.03664   1.95024   -1.000
 5936.00    2.03785   1.95527   -1.000
 5937.00    2.04876   1.96028   -1.000
 5938.00    2.00925   1.96299   -1.000
 5939.00    2.02672   1.96141   -1.000
 5940.00    2.00974   1.95677   -1.000
 5941.00    2.01967   1.95147   -1.000
 5942.00    2.01764   1.94893   -1.000
 5943.00    2.00313   1.94987   -1.000
 5944.00    2.01796   1.95318   -1.000
 5945.00    2.02624   1.95606   -1.000
 5946.00    2.00976   1.95619   -1.000
 5947.00    2.01437   1.95313   -1.000
 5948.00    2.01460   1.94848   -1.000
 5949.00    2.01005   1.94532   -1.000
 5950.00    2.02000   1.94409   -1.000
 5951.00    2.01829   1.94385   -1.000
 5952.00    2.03684   1.94262   -1.000
 5953.00    2.01924   1.94072   -1.000
 5954.00    2.01220   1.94000   -1.000
 5955.00    2.02925   1.94000   -1.000
 5956.00    2.03862   1.93961   -1.000
 5957.00    1.99566   1.94051   -1.000
 5958.00    2.04038   1.94427   -1.000
 5959.00    2.04395   1.95161   -1.000
 5960.00    2.04272   1.96095   -1.000
 5961.00    2.04176   1.96908   -1.000
 5962.00    2.04434   1.97407   -1.000
 5963.00    2.03997   1.97527   -1.000
 5964.00    2.02785   1.97325   -1.000
 5965.00    2.01500   1.96963   -1.000
 5966.00    2.02062   1.96663   -1.000
 5967.00    2.05112   1.96587   -1.000
 5968.00    2.04618   1.96814   -1.000
 5969.00    2.02033   1.97239   -1.000
 5970.00    2.02938   1.97753   -1.000
 5971.00    2.04357   1.98165   -1.000
 5972.00    2.03958   1.98291   -1.000
 5973.00    2.01953   1.98023   -1.000
 5974.00    2.00607   1.97333   -1.000
 5975.00    2.01505   1.96337   -1.000
 5976.00    2.01717   1.95367   -1.000
 5977.00    2.01980   1.94799   -1.000
 5978.00    2.02879   1.94909   -1.000
 5979.00    2.04130   1.95530   -1.000
 5980.00    2.04069   1.96256   -1.000
 5981.00    2.04499   1.96555   -1.000
 5982.00    2.02521   1.96179   -1.000
 5983.00    2.01625   1.95289   -1.000
 5984.00    2.01626   1.94378   -1.000
 5985.00    2.00419   1.93983   -1.000
 5986.00    2.01278   1.94237   -1.000
 5987.00    2.00714   1.94957   -1.000
 5988.00    2.00674   1.95777   -1.000
 5989.00    2.02810   1.96481   -1.000
 5990.00    2.03546   1.96978   -1.000
 5991.00    2.04283   1.97405   -1.000
 5992.00    2.02627   1.97891   -1.000
 5993.00    2.03002   1.98483   -1.000
 5994.00    2.05939   1.98954   -1.000
 5995.00    2.06152   1.98971   -1.000
 5996.00    2.04532   1.98603   -1.000
 5997.00    2.01963   1.98055   -1.000
 5998.00    2.03709   1.97653   -1.000
 5999.00    2.04159   1.97464   -1.000
 6000.00    2.02835   1.97359   -1.000
 6001.00    2.01879   1.97135   -1.000
 6002.00    2.01872   1.96755   -1.000
 6003.00    2.02729   1.96358   -1.000
 6004.00    2.01160   1.96063   -1.000
 6005.00    2.01696   1.95759   -1.000
 6006.00    2.02807   1.95220   -1.000
 6007.00    2.00575   1.94483   -1.000
 6008.00    1.99329   1.94023   -1.000
 6009.00    2.00486   1.94221   -1.000
 6010.00    2.03014   1.95005   -1.000
 6011.00    2.01775   1.95880   -1.000
 6012.00    2.01203   1.96283   -1.000
 6013.00    2.00836   1.96239   -1.000
 6014.00    2.01483   1.95915   -1.000
 6015.00    2.01570   1.95594   -1.000
 6016.00    2.03605   1.95343   -1.000
 6017.00    2.02647   1.95101   -1.000
 6018.00    2.03646   1.94768   -1.000
 6019.00    1.98241   1.94290   -1.000
 6020.00    1.97259   1.93784   -1.000
 6021.00    1.96652   1.93441   -1.000
 6022.00    1.98099   1.93476   -1.000
 6023.00    2.01678   1.93875   -1.000
 6024.00    2.00281   1.94583   -1.000
 6025.00    2.01455   1.95595   -1.000
 6026.00    2.02201   1.96790   -1.000
 6027.00    2.04004   1.97899   -1.000
 6028.00    2.05180   1.98849   -1.000
 6029.00    2.06646   1.99638   -1.000
 6030.00    2.06534   2.00240   -1.000
 6031.00    2.06227   2.00662   -1.000
 6032.00    2.05382   2.00983   -1.000
 6033.00    2.06969   2.01281   -1.000
 6034.00    2.08729   2.01538   -1.000
 6035.00    2.06708   2.01683   -1.000
 6036.00    2.07053   2.01636   -1.000
 6037.00    2.08896   2.01417   -1.000
 6038.00    2.06150   2.01052   -1.000
 6039.00    2.03448   2.00599   -1.000
 6040.00    2.01913   2.00180   78.058
 6041.00    2.03085   1.99933   -1.000
 6042.00    2.04208   1.99954   -1.000
 6043.00    2.07127   2.00248   -1.000
 6044.00    2.07472   2.00723   -1.000
 6045.00    2.05648   2.01287   -1.000
 6046.00    2.07046   2.01809   -1.000
 6047.00    2.07468   2.02300   -1.000
 6048.00    2.06097   2.02728   -1.000
 6049.00    2.05643   2.03018   77.711
 6050.00    2.06833   2.03122   -1.000
 6051.00    2.07550   2.02971   -1.000
 6052.00    2.08651   2.02595   -1.000
 6053.00    2.09221   2.01952   -1.000
 6054.00    2.05758   2.01170   -1.000
 6055.00    2.03110   2.00437   78.792
 6056.00    2.02491   2.00046   78.347
 6057.00    2.03870   2.00100   -1.000
 6058.00    2.05625   2.00542   -1.000
 6059.00    2.06684   2.01103   -1.000
 6060.00    2.09221   2.01505   -1.000
 6061.00    2.08240   2.01504   -1.000
 6062.00    2.04067   2.00892   -1.000
 6063.00    2.02219   1.99677   66.575
 6064.00    1.89990   1.98221   27.642
 6065.00    1.74581   1.97155   -1.000
 6066.00    0.98300   1.97095   -1.000
 6067.00    0.89862   1.98109   -1.000
 6068.00    1.97750   1.99654   75.782
 6069.00    2.03726   2.01200   75.580
 6070.00    1.89230   2.02343   -1.000
 6071.00    1.77606   2.03045   -1.000
 6072.00    1.10490   2.03427   -1.000
 6073.00    0.93763   2.03623   -1.000
 6074.00    2.13015   2.03655   -1.000
 6075.00    2.04971   2.03430   78.823
 6076.00    2.02987   2.02876   79.423
 6077.00    2.03048   2.02050   79.776
 6078.00    2.02903   2.01124   79.778
 6079.00    2.02248   2.00323   79.903
 6080.00    2.01701   1.99766   80.090
 6081.00    2.02004   1.99362   80.039
 6082.00    2.03697   1.99036   -1.000
 6083.00    2.02989   1.98814   -1.000
 6084.00    2.03698   1.98738   -1.000
 6085.00    2.03918   1.98903   -1.000
 6086.00    2.01858   1.99290   79.665
 6087.00    2.00980   1.99756   80.143
 6088.00    2.02359   2.00051   80.362
 6089.00    2.02160   2.00036   80.156
 6090.00    2.01469   1.99827   79.621
 6091.00    2.01821   1.99619   79.231
 6092.00    2.03022   1.99671   -1.000
 6093.00    2.03028   2.00030   -1.000
 6094.00    2.06249   2.00632   -1.000
 6095.00    2.06297   2.01286   -1.000
 6096.00    2.04287   2.01852   78.873
 6097.00    2.04002   2.02181   79.121
 6098.00    2.03602   2.02042   80.440
 6099.00    2.04300   2.01162   -1.000
 6100.00    2.01125   1.99319   83.064
 6101.00    1.98073   1.96728   82.000
 6102.00    1.97667   1.94242   -1.000
 6103.00    1.96450   1.92885   -1.000
 6104.00    1.97751   1.93331   -1.000
 6105.00    2.00906   1.95110   -1.000
 6106.00    2.01017   1.97316   -1.000
 6107.00    2.02776   1.99260   -1.000
 6108.00    2.02311   2.00646   79.611
 6109.00    2.01098   2.01561   79.331
 6110.00    2.02891   2.02101   79.246
 6111.00    2.02394   2.02387   78.834
 6112.00    2.01123   2.02608   78.810
 6113.00    2.00849   2.02860   79.225
 6114.00    2.04481   2.03122   79.657
 6115.00    2.05230   2.03285   79.793
 6116.00    2.03884   2.03198   80.425
 6117.00    2.02718   2.02782   81.645
 6118.00    2.02437   2.01859   82.603
 6119.00    2.01008   2.00166   83.169
 6120.00    1.98648   1.97713   82.771
 6121.00    1.95300   1.94950   81.363
 6122.00    1.93943   1.92770   80.643
 6123.00    1.99208   1.92040   -1.000
 6124.00    2.02803   1.92807   -1.000
 6125.00    2.02480   1.94640   -1.000
 6126.00    2.01196   1.96674   -1.000
 6127.00    2.01581   1.98442   -1.000
 6128.00    2.01896   1.99790   79.370
 6129.00    2.01469   2.00899   79.356
 6130.00    2.02081   2.01867   79.700
 6131.00    2.01870   2.02656   80.806
 6132.00    2.01344   2.02979   82.904
 6133.00    2.00324   2.02380   85.318
 6134.00    2.00426   2.00463   86.891
 6135.00    1.97494   1.97327   86.259
 6136.00    1.90281   1.93901   83.790
 6137.00    1.87314   1.91357   81.822
 6138.00    1.90810   1.90558   81.358
 6139.00    1.94980   1.91280   -1.000
 6140.00    1.96146   1.92780   -1.000
 6141.00    1.97712   1.94698   80.470
 6142.00    1.98624   1.96741   79.739
 6143.00    1.97707   1.98755   79.847
 6144.00    2.00367   2.00425   80.295
 6145.00    2.02304   2.01430   80.837
 6146.00    2.00259   2.01757   81.398
 6147.00    2.00100   2.01520   81.727
 6148.00    2.00611   2.00922   81.597
 6149.00    1.99018   2.00191   81.192
 6150.00    1.98822   1.99578   80.731
 6151.00    1.98410   1.99310   80.911
 6152.00    1.99191   1.99399   81.602
 6153.00    2.00468   1.99532   81.875
 6154.00    1.95911   1.99395   81.982
 6155.00    1.95403   1.99027   82.512
 6156.00    1.97175   1.98531   83.643
 6157.00    1.96214   1.97850   85.584
 6158.00    1.93671   1.96513   88.254
 6159.00    1.92792   1.94034   90.298
 6160.00    1.90995   1.90273   90.338
 6161.00    1.84183   1.85998   88.449
 6162.00    1.82301   1.82526   86.225
 6163.00    1.85950   1.80990   -1.000
 6164.00    1.90735   1.81648   -1.000
 6165.00    1.93878   1.83597   -1.000
 6166.00    1.95648   1.85709   -1.000
 6167.00    1.93427   1.86930   -1.000
 6168.00    1.89389   1.87191   86.149
 6169.00    1.89354   1.87008   84.523
 6170.00    1.90733   1.87431   -1.000
 6171.00    1.93223   1.88801   -1.000
 6172.00    1.95132   1.90800   -1.000
 6173.00    1.95699   1.92885   -1.000
 6174.00    1.95649   1.94574   83.557
 6175.00    1.93109   1.95754   83.265
 6176.00    1.95399   1.96497   82.865
 6177.00    1.99469   1.97040   82.592
 6178.00    1.98401   1.97507   82.293
 6179.00    1.98288   1.97974   81.947
 6180.00    1.99402   1.98497   81.874
 6181.00    2.00173   1.99088   82.115
 6182.00    1.98022   1.99612   82.523
 6183.00    1.98693   1.99859   83.300
 6184.00    1.99044   1.99667   84.221
 6185.00    1.98020   1.99052   85.061
 6186.00    1.98434   1.98121   85.805
 6187.00    1.98427   1.96978   86.557
 6188.00    1.98573   1.95651   -1.000
 6189.00    1.97378   1.94102   -1.000
 6190.00    1.93745   1.92547   86.080
 6191.00    1.93233   1.91486   84.054
 6192.00    1.92078   1.91518   83.046
 6193.00    1.93947   1.92692   82.733
 6194.00    1.95627   1.94416   82.845
 6195.00    1.97248   1.96143   83.590
 6196.00    1.97693   1.97372   84.515
 6197.00    1.96522   1.97943   84.924
 6198.00    1.96861   1.97878   84.519
 6199.00    1.94867   1.97479   83.520
 6200.00    1.92041   1.97151   -1.000
 6201.00    1.92963   1.97299   82.650
 6202.00    1.96002   1.97936   82.623
 6203.00    2.00742   1.98891   82.505
 6204.00    2.01009   1.99855   82.624
 6205.00    1.99523   2.00634   82.877
 6206.00    1.98493   2.01142   82.941
 6207.00    2.00478   2.01396   83.485
 6208.00    2.02605   2.01344   84.256
 6209.00    2.00246   2.00889   84.945
 6210.00    1.98307   1.99902   85.950
 6211.00    1.96889   1.98406   87.177
 6212.00    1.97499   1.96588   87.787
 6213.00    1.97413   1.94848   -1.000
 6214.00    1.94776   1.93537   86.445
 6215.00    1.93953   1.92810   86.480
 6216.00    1.94672   1.92463   86.935
 6217.00    1.92975   1.92285   86.376
 6218.00    1.94581   1.92089   86.094
 6219.00    1.95474   1.92067   -1.000
 6220.00    1.95602   1.92372   -1.000
 6221.00    1.95212   1.93039   88.131
 6222.00    1.95359   1.93857   85.306
 6223.00    1.89371   1.94518   -1.000
 6224.00    1.72247   1.94963   -1.000
 6225.00    1.89106   1.95090   -1.000
 6226.00    2.00292   1.94839   -1.000
 6227.00    1.94653   1.94038   89.221
 6228.00    1.92750   1.92602   89.828
 6229.00    1.92889   1.90763   88.987
 6230.00    1.91473   1.89115   87.500
 6231.00    1.88880   1.88328   85.885
 6232.00    1.90716   1.88752   84.842
 6233.00    1.94189   1.90127   -1.000
 6234.00    1.96558   1.91875   -1.000
 6235.00    1.95519   1.93280   86.506
 6236.00    1.95227   1.94043   87.397
 6237.00    1.97178   1.94089   -1.000
 6238.00    1.97033   1.93701   -1.000
 6239.00    1.95614   1.93096   -1.000
 6240.00    1.94030   1.92420   89.189
 6241.00    1.94921   1.91660   -1.000
 6242.00    1.94276   1.90769   -1.000
 6243.00    1.91114   1.89762   88.535
 6244.00    1.89338   1.88839   87.547
 6245.00    1.91084   1.88368   -1.000
 6246.00    1.91687   1.88664   -1.000
 6247.00    1.92193   1.89845   86.146
 6248.00    1.93816   1.91424   87.290
 6249.00    1.95349   1.92724   -1.000
 6250.00    1.96761   1.93018   -1.000
 6251.00    1.94213   1.92213   90.127
 6252.00    1.91114   1.90690   90.251
 6253.00    1.88517   1.89129   90.471
 6254.00    1.86703   1.88053   91.385
 6255.00    1.87285   1.87522   91.785
 6256.00    1.88992   1.87422   90.942
 6257.00    1.89087   1.87528   89.490
 6258.00    1.89145   1.87920   88.201
 6259.00    1.91154   1.88686   86.958
 6260.00    1.93740   1.89933   -1.000
 6261.00    1.95896   1.91487   -1.000
 6262.00    1.96272   1.93060   -1.000
 6263.00    1.96270   1.94339   86.901
 6264.00    1.96632   1.95191   86.338
 6265.00    1.96919   1.95786   86.007
 6266.00    1.92355   1.96266   86.451
 6267.00    1.91373   1.96651   -1.000
 6268.00    1.94203   1.96832   86.475
 6269.00    1.94734   1.96783   86.197
 6270.00    1.94737   1.96665   86.149
 6271.00    1.95069   1.96627   86.550
 6272.00    1.96018   1.96542   87.239
 6273.00    1.94419   1.96161   88.177
 6274.00    1.89544   1.95150   -1.000
 6275.00    1.86324   1.93619   -1.000
 6276.00    1.84305   1.91840   -1.000
 6277.00    1.84194   1.90251   -1.000
 6278.00    1.83898   1.89158   -1.000
 6279.00    1.80688   1.88722   -1.000
 6280.00    1.78584   1.89040   -1.000
 6281.00    1.80999   1.90138   -1.000
 6282.00    1.84078   1.91770   -1.000
 6283.00    1.85779   1.93657   -1.000
 6284.00    1.88961   1.95361   -1.000
 6285.00    1.94331   1.96668   85.465
 6286.00    1.95568   1.97473   85.545
 6287.00    1.94518   1.97817   86.148
 6288.00    1.95052   1.97785   86.871
 6289.00    1.95047   1.97454   87.344
 6290.00    1.95616   1.96980   87.444
 6291.00    1.94813   1.96551   87.559
 6292.00    1.94191   1.96235   87.899
 6293.00    1.94659   1.96021   88.597
 6294.00    1.95013   1.95733   89.011
 6295.00    1.94655   1.95233   89.014
 6296.00    1.98736   1.94465   -1.000
 6297.00    2.01435   1.93600   -1.000
 6298.00    2.04451   1.92836   -1.000
 6299.00    2.05368   1.92249   -1.000
 6300.00    2.00666   1.91812   -1.000
 6301.00    1.93464   1.91664   88.600
 6302.00    1.90510   1.92070   87.265
 6303.00    1.91618   1.93212   86.340
 6304.00    1.93471   1.94851   85.609
 6305.00    1.93855   1.96526   85.043
 6306.00    1.95080   1.97849   85.141
 6307.00    1.96809   1.98678   85.626
 6308.00    1.97354   1.99077   86.136
 6309.00    1.97727   1.99188   86.451
 6310.00    1.96026   1.99137   86.717
 6311.00    1.93617   1.98872   -1.000
 6312.00    1.92954   1.98378   -1.000
 6313.00    1.91422   1.97615   -1.000
 6314.00    1.89355   1.96669   -1.000
 6315.00    1.90906   1.95739   -1.000
 6316.00    1.90054   1.94977   -1.000
 6317.00    1.87285   1.94590   -1.000
 6318.00    1.86742   1.94718   -1.000
 6319.00    1.91276   1.95411   85.432
 6320.00    1.93935   1.96489   85.159
 6321.00    1.94944   1.97674   84.810
 6322.00    1.94712   1.98778   84.403
 6323.00    1.96874   1.99807   84.233
 6324.00    1.98437   2.00733   84.070
 6325.00    1.98644   2.01418   83.789
 6326.00    1.96024   2.01826   -1.000
 6327.00    1.96983   2.01960   -1.000
 6328.00    1.96971   2.01992   -1.000
 6329.00    2.00390   2.02036   83.613
 6330.00    1.98722   2.02116   83.622
 6331.00    1.96994   2.02124   -1.000
 6332.00    1.95075   2.01814   -1.000
 6333.00    1.94094   2.00983   -1.000
 6334.00    1.94485   1.99672   -1.000
 6335.00    1.99106   1.98289   85.065
 6336.00    2.05654   1.97347   -1.000
 6337.00    1.96124   1.97230   83.416
 6338.00    1.94918   1.97928   83.051
 6339.00    1.95461   1.99124   82.806
 6340.00    1.97226   2.00406   83.154
 6341.00    1.97276   2.01352   83.736
 6342.00    1.94806   2.01761   -1.000
 6343.00    1.95266   2.01724   -1.000
 6344.00    1.94970   2.01552   -1.000
 6345.00    1.94742   2.01592   -1.000
 6346.00    1.98248   2.02035   82.156
 6347.00    2.00046   2.02850   82.126
 6348.00    1.96690   2.03825   -1.000
 6349.00    1.97014   2.04665   -1.000
 6350.00    1.97600   2.05140   -1.000
 6351.00    1.95900   2.05153   -1.000
 6352.00    1.96362   2.04711   -1.000
 6353.00    1.96905   2.03927   -1.000
 6354.00    1.96028   2.03006   -1.000
 6355.00    1.94302   2.02113   -1.000
 6356.00    1.94431   2.01352   -1.000
 6357.00    1.95061   2.00663   -1.000
 6358.00    1.94583   2.00009   -1.000
 6359.00    1.95162   1.99408   85.455
 6360.00    1.95991   1.98868   85.310
 6361.00    1.97252   1.98422   84.898
 6362.00    1.99401   1.98159   84.325
 6363.00    1.96788   1.98201   83.822
 6364.00    1.94024   1.98591   -1.000
 6365.00    1.96128   1.99289   82.799
 6366.00    1.96383   2.00134   82.369
 6367.00    1.97437   2.00961   82.281
 6368.00    1.97456   2.01608   82.234
 6369.00    1.97105   2.02053   -1.000
 6370.00    1.98289   2.02405   81.783
 6371.00    1.99959   2.02798   81.985
 6372.00    1.99716   2.03260   82.075
 6373.00    1.96716   2.03668   -1.000
 6374.00    1.95476   2.03880   -1.000
 6375.00    1.93251   2.03785   -1.000
 6376.00    1.92026   2.03443   -1.000
 6377.00    1.96164   2.02917   -1.000
 6378.00    1.95318   2.02342   -1.000
 6379.00    1.93849   2.01735   -1.000
 6380.00    1.94495   2.01159   -1.000
 6381.00    1.95984   2.00664   -1.000
 6382.00    1.95627   2.00369   -1.000
 6383.00    1.95214   2.00343   -1.000
 6384.00    1.94671   2.00610   -1.000
 6385.00    1.94630   2.01046   -1.000
 6386.00    1.95304   2.01490   -1.000
 6387.00    1.91990   2.01747   -1.000
 6388.00    1.92740   2.01775   -1.000
 6389.00    1.94429   2.01521   -1.000
 6390.00    1.92794   2.00956   -1.000
 6391.00    1.89323   2.00095   -1.000
 6392.00    1.88616   1.99159   -1.000
 6393.00    1.86346   1.98588   -1.000
 6394.00    1.84155   1.98658   -1.000
 6395.00    1.83337   1.99290   -1.000
 6396.00    1.86563   1.99954   -1.000
 6397.00    1.87996   2.00084   -1.000
 6398.00    1.84149   1.99542   -1.000
 6399.00    1.80296   1.98689   -1.000
 6400.00    1.77126   1.98282   -1.000
 6401.00    1.77868   1.98726   -1.000
 6402.00    1.80569   1.99973   -1.000
 6403.00    1.82450   2.01467   -1.000
 6404.00    1.81730   2.02588   -1.000
 6405.00    1.81594   2.02981   -1.000
 6406.00    1.80743   2.02685   -1.000
 6407.00    1.78199   2.02123   -1.000
 6408.00    1.74614   2.01617   -1.000
 6409.00    1.71021   2.01340   -1.000
 6410.00    1.70360   2.01186   -1.000
 6411.00    1.71945   2.01166   -1.000
 6412.00    1.72735   2.01363   -1.000
 6413.00    1.70777   2.01792   -1.000
 6414.00    1.70838   2.02314   -1.000
 6415.00    1.71486   2.02749   -1.000
 6416.00    1.70129   2.02897   -1.000
 6417.00    1.70114   2.02659   -1.000
 6418.00    1.68716   2.01995   -1.000
 6419.00    1.64192   2.01080   -1.000
 6420.00    1.60696   2.00366   -1.000
 6421.00    1.58881   2.00283   -1.000
 6422.00    1.58573   2.01052   -1.000
 6423.00    1.59434   2.02455   -1.000
 6424.00    1.60854   2.03971   -1.000
 6425.00    1.59035   2.05247   -1.000
 6426.00    1.58725   2.05926   -1.000
 6427.00    1.58234   2.05875   -1.000
 6428.00    1.00453   2.05041   -1.000
