###################################################################
## OUTPUT of StarlightChains_v04.for    [Cid@UFSC - 01/Apr/2007] ##
###################################################################

## Some input info
NGC6235_a_1.cxt                          [arq_obs]
Base.BC03.N                              [arq_base]
NGC6235_a_1.msk                          [arq_masks]
StCv04.C11.config                        [arq_config]
   45                                    [N_base]
    0                                    [N_YAV_components = # of components with extra extinction!]
    0                                    [i_FitPowerLaw (1/0 = Yes/No)]
-9.99                                    [alpha_PowerLaw]
CCM                                      [red_law_option]
 1.458241                                [q_norm = A(l_norm)/A(V)]

## (Re)Sampling Parameters
 3359.00                                 [l_ini (A)]
 6428.00                                 [l_fin (A)]
    1.00                                 [dl    (A)]     (OBS: dl_cushion =    50.00 A)

## Normalization info
 4020.00                                 [l_norm (A) - for base]
 4010.00                                 [llow_norm (A) - window for f_obs]
 4060.00                                 [lupp_norm (A) - window for f_obs]
2.685576E-15                             [fobs_norm (in input units)]

## S/N
 4730.00                                 [llow_SN (A) - window for S/N]
 4780.00                                 [lupp_SN (A) - window for S/N]
  64.240                                 [S/N in S/N window]
  49.525                                 [S/N in norm. window]
 131.570                                 [S/N_err in S/N window]
 101.432                                 [S/N_err in norm. window]
  1.0000                                 [fscale_chi2]

## etc...
  2147483624                             [idum_orig]
  3066                                   [NOl_eff]
  1476                                   [Nl_eff]
  1590    NSIGMA                         [Ntot_cliped & clip_method]
  1021020                                [Nglobal_steps]
   7                                     [N_chains]
  12                                     [NEX0s_base = N_base in EX0s-fits]
 0   0   1      144   2.0   2.368E+02    [Clip-Bug, RC-Crash & Burn-In warning-flags, n_censored_weights, wei_nsig_threshold & wei_limit]
    11     11.640     11.628      0.012  [idt_all, wdt_TotTime, wdt_UsrTime & wdt_SysTime (sec)]

## Synthesis Results - Best model ##

 2.46350E+00                             [chi2/Nl_eff]
     1.59175                             [adev (%)]

    99.38868                             [sum-of-x (%)]
 1.56414E-14                             [Flux_tot (units of input spectrum!)]
 1.56574E-10                             [Mini_tot (???)]
 8.37504E-11                             [Mcor_tot (???)]

  -9.54                                  [v0_min  (km/s)]
 129.57                                  [vd_min  (km/s)]
 1.3165                                  [AV_min  (mag)]
 0.0000                                  [YAV_min (mag)]

# j     x_j(%)      Mini_j(%)     Mcor_j(%)     age_j(yr)     Z_j      (L/M)_j    YAV?  Mstars   component_j        a/Fe...       SSP_chi2r SSP_adev(%)   SSP_AV   SSP_x(%)
  1      0.0000     0.0000E+00    0.0000E+00    1.000000E+06  0.00400  1.114E-02    0   1.0000   age020_m42            0.0000     2.5507E+02    12.5383   4.0000    89.0020
  2      4.6182     1.1397E-02    2.1304E-02    3.160000E+06  0.00400  4.073E-02    0   0.9999   age045_m42            0.0000     4.5417E+01     5.6028   3.4893    91.0360
  3      0.0000     0.0000E+00    0.0000E+00    5.010000E+06  0.00400  2.534E-02    0   0.9488   age055_m42            0.0000     8.9753E+01     7.8315   3.8351    86.4751
  4      8.4480     6.6808E-02    1.1069E-01    1.000000E+07  0.00400  1.271E-02    0   0.8862   age070_m42            0.0000     8.1216E+01     7.6327   3.0510    90.7664
  5      0.6140     1.2173E-02    1.8602E-02    2.512000E+07  0.00400  5.070E-03    0   0.8174   age090_m42            0.0000     6.9756E+01     7.1535   2.9320    92.0625
  6      0.0000     0.0000E+00    0.0000E+00    4.000000E+07  0.00400  3.505E-03    0   0.7851   age104_m42            0.0000     4.3151E+01     5.7048   2.6511    93.9943
  7      8.3129     3.6841E-01    4.9638E-01    1.015200E+08  0.00400  2.268E-03    0   0.7207   age116_m42            0.0000     5.5124E+01     4.3665   2.7895    98.5392
  8      0.0000     0.0000E+00    0.0000E+00    2.861200E+08  0.00400  1.079E-03    0   0.6613   age125_m42            0.0000     6.0687E+01     4.6511   2.3140    99.8439
  9      7.9810     1.5800E+00    1.8306E+00    6.405400E+08  0.00400  5.077E-04    0   0.6197   age132_m42            0.0000     6.5971E+01     5.1159   1.9563   103.6682
 10     16.1548     4.5934E+00    5.1731E+00    9.047900E+08  0.00400  3.535E-04    0   0.6024   age135_m42            0.0000     3.9961E+01     4.0802   1.7028   103.4602
 11      0.0000     0.0000E+00    0.0000E+00    1.434000E+09  0.00400  1.910E-04    0   0.5716   age139_m42            0.0000     1.8884E+01     3.0865   1.1729   102.4744
 12     20.8080     2.1302E+01    2.1757E+01    2.500000E+09  0.00400  9.818E-05    0   0.5463   age150_m42            0.0000     1.6736E+01     2.9514   0.8672    99.0053
 13     29.7451     6.3369E+01    6.1937E+01    5.000000E+09  0.00400  4.718E-05    0   0.5228   age161_m42            0.0000     2.6054E+01     3.4418   0.6743    96.6381
 14      0.0000     0.0000E+00    0.0000E+00    1.100000E+10  0.00400  2.205E-05    0   0.4980   age185_m42            0.0000     5.8981E+01     4.7914   0.4126    94.6386
 15      0.0000     0.0000E+00    0.0000E+00    1.300000E+10  0.00400  1.883E-05    0   0.4927   age193_m42            0.0000     6.3930E+01     4.9811   0.3932    94.5615
 16      0.0000     0.0000E+00    0.0000E+00    1.000000E+06  0.02000  1.989E-02    0   1.0000   age020_m62            0.0000     2.3126E+02    11.8798   4.0000    88.8850
 17      0.0000     0.0000E+00    0.0000E+00    3.160000E+06  0.02000  3.772E-02    0   0.9858   age045_m62            0.0000     1.6959E+02    10.3578   4.0000    87.6067
 18      0.8003     2.4927E-03    4.3535E-03    5.010000E+06  0.02000  3.227E-02    0   0.9342   age055_m62            0.0000     6.6818E+01     6.8116   3.7177    88.7857
 19      0.4484     4.4582E-03    7.2938E-03    1.000000E+07  0.02000  1.011E-02    0   0.8751   age070_m62            0.0000     1.9236E+02    11.5887   3.0079    89.1496
 20      0.0000     0.0000E+00    0.0000E+00    2.512000E+07  0.02000  4.206E-03    0   0.8099   age090_m62            0.0000     1.3809E+02     9.8651   2.9764    88.9238
 21      0.0000     0.0000E+00    0.0000E+00    4.000000E+07  0.02000  3.373E-03    0   0.7799   age104_m62            0.0000     4.3604E+01     5.4057   2.8832    94.7752
 22      0.0000     0.0000E+00    0.0000E+00    1.015200E+08  0.02000  1.878E-03    0   0.7221   age116_m62            0.0000     4.9373E+01     4.0608   2.7996    99.4985
 23      0.0000     0.0000E+00    0.0000E+00    2.861200E+08  0.02000  8.869E-04    0   0.6700   age125_m62            0.0000     1.0612E+02     6.1270   2.3555   103.7562
 24      0.0000     0.0000E+00    0.0000E+00    6.405400E+08  0.02000  3.657E-04    0   0.6322   age132_m62            0.0000     7.5982E+01     5.6873   1.6969   106.2663
 25      0.0000     0.0000E+00    0.0000E+00    9.047900E+08  0.02000  2.312E-04    0   0.6152   age135_m62            0.0000     4.7674E+01     4.7698   1.3076   105.9337
 26      0.0000     0.0000E+00    0.0000E+00    1.434000E+09  0.02000  1.168E-04    0   0.5865   age139_m62            0.0000     2.9868E+01     3.8973   0.8477   101.7811
 27      0.0000     0.0000E+00    0.0000E+00    2.500000E+09  0.02000  5.505E-05    0   0.5610   age150_m62            0.0000     5.5543E+01     4.9693   0.4644    99.4694
 28      0.0000     0.0000E+00    0.0000E+00    5.000000E+09  0.02000  2.596E-05    0   0.5353   age161_m62            0.0000     1.1303E+02     6.6825   0.1477    99.0310
 29      0.0000     0.0000E+00    0.0000E+00    1.100000E+10  0.02000  1.169E-05    0   0.5103   age185_m62            0.0000     1.8408E+02     8.3187  -0.1928    99.6169
 30      0.0000     0.0000E+00    0.0000E+00    1.300000E+10  0.02000  9.691E-06    0   0.5047   age193_m62            0.0000     1.9776E+02     8.5851  -0.2353    99.7133
 31      0.0000     0.0000E+00    0.0000E+00    1.000000E+06  0.05000  2.651E-02    0   0.9998   age020_m72            0.0000     2.2781E+02    11.8029   4.0000    89.8683
 32      0.0000     0.0000E+00    0.0000E+00    3.160000E+06  0.05000  4.817E-02    0   0.9577   age045_m72            0.0000     1.1666E+02     8.8311   4.0000    86.9754
 33      0.0000     0.0000E+00    0.0000E+00    5.010000E+06  0.05000  3.101E-02    0   0.9147   age055_m72            0.0000     1.0436E+02     8.3261   3.6938    88.1611
 34      0.0000     0.0000E+00    0.0000E+00    1.000000E+07  0.05000  8.954E-03    0   0.8524   age070_m72            0.0000     1.0802E+02     8.3998   3.9306    86.6696
 35      0.0000     0.0000E+00    0.0000E+00    2.512000E+07  0.05000  4.207E-03    0   0.7902   age090_m72            0.0000     5.7103E+01     6.2290   3.5492    90.8898
 36      0.0000     0.0000E+00    0.0000E+00    4.000000E+07  0.05000  3.198E-03    0   0.7618   age104_m72            0.0000     3.6964E+01     3.8031   3.1379    96.2451
 37      0.1208     7.0773E-03    9.3836E-03    1.015200E+08  0.05000  1.716E-03    0   0.7092   age116_m72            0.0000     6.1586E+01     4.5426   2.8936    99.3116
 38      0.0000     0.0000E+00    0.0000E+00    2.861200E+08  0.05000  7.047E-04    0   0.6618   age125_m72            0.0000     1.0236E+02     6.1901   2.1633   103.7965
 39      0.0000     0.0000E+00    0.0000E+00    6.405400E+08  0.05000  2.633E-04    0   0.6253   age132_m72            0.0000     6.3285E+01     5.4161   1.3232   105.6458
 40      0.0000     0.0000E+00    0.0000E+00    9.047900E+08  0.05000  1.484E-04    0   0.6088   age135_m72            0.0000     4.9637E+01     4.9312   0.8133   101.7153
 41      0.0000     0.0000E+00    0.0000E+00    1.434000E+09  0.05000  7.827E-05    0   0.5847   age139_m72            0.0000     8.1024E+01     5.8940   0.4066    98.9695
 42      0.0000     0.0000E+00    0.0000E+00    2.500000E+09  0.05000  3.759E-05    0   0.5583   age150_m72            0.0000     1.2509E+02     7.0241   0.0770    98.4820
 43      1.3371     8.6821E+00    8.6352E+00    5.000000E+09  0.05000  1.548E-05    0   0.5320   age161_m72            0.0000     1.9311E+02     8.4052  -0.3262    97.8195
 44      0.0000     0.0000E+00    0.0000E+00    1.100000E+10  0.05000  6.532E-06    0   0.5070   age185_m72            0.0000     2.8256E+02    10.1862  -0.6563    96.1893
 45      0.0000     0.0000E+00    0.0000E+00    1.300000E+10  0.05000  5.316E-06    0   0.5018   age193_m72            0.0000     3.1982E+02    10.9240  -0.7515    95.5820


## Synthesis Results - Average & Chains ##

# j      x_j: min, <> & last-chain-values for 1 ...  7 chains
  1      0.0000      0.0188      0.0627      0.0112      0.0000      0.0000      0.0000      0.0160      0.0000
  2      4.6182      4.3258      4.3652      4.3651      4.3812      4.4089      4.1457      4.2555      4.3539
  3      0.0000      0.1158      0.2122      0.0000      0.1484      0.1407      0.1132      0.2471      0.2343
  4      8.4480      7.7878      7.8864      7.8473      7.9309      7.9308      7.8958      7.8780      7.8642
  5      0.6140      0.3862      0.3851      0.5194      0.5286      0.3883      0.6663      0.4995      0.2299
  6      0.0000      0.0780      0.0000      0.0387      0.0000      0.1109      0.0913      0.2341      0.0317
  7      8.3129      8.4198      8.6182      8.5295      8.3822      8.2397      8.4711      8.4345      8.7516
  8      0.0000      0.0837      0.0344      0.3568      0.0000      0.0000      0.0479      0.2434      0.0000
  9      7.9810      7.4551      7.6787      7.4398      7.4263      7.6316      7.6558      7.6020      7.5761
 10     16.1548     15.0633     15.6403     15.2107     15.6876     15.7323     15.3188     15.3641     15.5638
 11      0.0000      0.3148      0.0000      0.0000      0.0000      0.0131      0.0000      0.0000      0.0000
 12     20.8080     21.3596     21.2118     21.3380     21.2329     21.4053     21.0040     21.3091     20.8972
 13     29.7451     30.1979     29.9530     30.1151     30.3258     29.5804     30.3283     29.9805     30.1448
 14      0.0000      0.0508      0.0596      0.0000      0.0025      0.0488      0.0000      0.0000      0.1165
 15      0.0000      0.0314      0.0763      0.0000      0.1593      0.0000      0.0000      0.0000      0.0000
 16      0.0000      0.0201      0.0000      0.0000      0.0744      0.0000      0.0000      0.0000      0.0000
 17      0.0000      0.0170      0.0000      0.1232      0.0235      0.0000      0.0000      0.0000      0.1107
 18      0.8003      0.6380      0.5267      0.4229      0.6484      0.8007      0.6897      0.7480      0.7043
 19      0.4484      0.3030      0.2968      0.2215      0.0000      0.2916      0.3461      0.3890      0.3906
 20      0.0000      0.0536      0.1167      0.1326      0.0000      0.1792      0.0000      0.0000      0.0000
 21      0.0000      0.1088      0.0000      0.1201      0.1070      0.2021      0.3016      0.0752      0.0000
 22      0.0000      0.1619      0.0000      0.1441      0.1244      0.0535      0.1516      0.1287      0.2527
 23      0.0000      0.0594      0.0000      0.0000      0.0510      0.0000      0.0000      0.0000      0.2422
 24      0.0000      0.0311      0.0000      0.0000      0.0000      0.0000      0.0428      0.0000      0.0000
 25      0.0000      0.0276      0.0000      0.0000      0.0000      0.0000      0.0000      0.0606      0.0000
 26      0.0000      0.0346      0.1017      0.0000      0.0000      0.0000      0.0000      0.0000      0.0000
 27      0.0000      0.0226      0.0000      0.0020      0.0000      0.0824      0.0150      0.0000      0.0000
 28      0.0000      0.0222      0.0439      0.0000      0.0000      0.0040      0.0020      0.0000      0.0000
 29      0.0000      0.1327      0.1977      0.1164      0.0301      0.1946      0.0000      0.0443      0.0027
 30      0.0000      0.2898      0.3248      0.2549      0.2084      0.2418      0.2763      0.3337      0.3320
 31      0.0000      0.0141      0.0900      0.0000      0.0000      0.0089      0.0149      0.0000      0.0296
 32      0.0000      0.1182      0.1238      0.2269      0.1758      0.0299      0.1160      0.0000      0.1250
 33      0.0000      0.0566      0.0000      0.1353      0.0000      0.0000      0.0000      0.0651      0.0460
 34      0.0000      0.0186      0.0000      0.0000      0.1242      0.0000      0.0000      0.0000      0.0608
 35      0.0000      0.0322      0.0000      0.0000      0.0164      0.0000      0.0147      0.0000      0.0000
 36      0.0000      0.0640      0.1632      0.0000      0.0000      0.0000      0.1300      0.0000      0.0000
 37      0.1208      0.3131      0.2858      0.3695      0.3961      0.4469      0.4032      0.3799      0.1436
 38      0.0000      0.0276      0.0000      0.1676      0.0000      0.0000      0.0000      0.0000      0.0000
 39      0.0000      0.0239      0.0000      0.0000      0.0000      0.0408      0.0094      0.0531      0.0000
 40      0.0000      0.0298      0.0000      0.0000      0.0000      0.0000      0.0000      0.0000      0.0000
 41      0.0000      0.0183      0.0000      0.0000      0.0000      0.0000      0.0000      0.0000      0.0000
 42      0.0000      0.0295      0.0000      0.0000      0.0000      0.0000      0.0090      0.1079      0.0000
 43      1.3371      0.4929      0.3805      0.4795      0.5135      0.5126      0.5297      0.3675      0.4106
 44      0.0000      0.3366      0.3485      0.4632      0.4795      0.3847      0.3371      0.4765      0.4425
 45      0.0000      0.2628      0.2540      0.2469      0.2828      0.3761      0.2892      0.1711      0.4051

# j      m_j: min, <> & last-chain-values for 1 ...  7 chains
  1  0.0000E+00  2.8847E-04  9.6296E-04  1.7233E-04  0.0000E+00  0.0000E+00  0.0000E+00  2.4869E-04  0.0000E+00
  2  2.1304E-02  1.8138E-02  1.8347E-02  1.8297E-02  1.8179E-02  1.8254E-02  1.7585E-02  1.8102E-02  1.7913E-02
  3  0.0000E+00  7.4041E-04  1.3605E-03  0.0000E+00  9.3942E-04  8.8836E-04  7.3233E-04  1.6031E-03  1.4700E-03
  4  1.1069E-01  9.2743E-02  9.4143E-02  9.3419E-02  9.3463E-02  9.3259E-02  9.5124E-02  9.5178E-02  9.1892E-02
  5  1.8602E-02  1.0635E-02  1.0631E-02  1.4297E-02  1.4404E-02  1.0558E-02  1.8562E-02  1.3955E-02  6.2109E-03
  6  0.0000E+00  2.9855E-03  0.0000E+00  1.4813E-03  0.0000E+00  4.1886E-03  3.5340E-03  9.0877E-03  1.1896E-03
  7  4.9638E-01  4.5697E-01  4.6887E-01  4.6277E-01  4.5019E-01  4.4158E-01  4.6511E-01  4.6441E-01  4.6605E-01
  8  0.0000E+00  8.7567E-03  3.6095E-03  3.7335E-02  0.0000E+00  0.0000E+00  5.0738E-03  2.5849E-02  0.0000E+00
  9  1.8306E+00  1.5542E+00  1.6047E+00  1.5505E+00  1.5321E+00  1.5710E+00  1.6146E+00  1.6078E+00  1.5497E+00
 10  5.1731E+00  4.3842E+00  4.5631E+00  4.4257E+00  4.5184E+00  4.5214E+00  4.5105E+00  4.5367E+00  4.4448E+00
 11  0.0000E+00  1.6092E-01  0.0000E+00  0.0000E+00  0.0000E+00  6.6240E-03  0.0000E+00  0.0000E+00  0.0000E+00
 12  2.1757E+01  2.0299E+01  2.0207E+01  2.0272E+01  1.9969E+01  2.0087E+01  2.0194E+01  2.0545E+01  1.9486E+01
 13  6.1937E+01  5.7152E+01  5.6825E+01  5.6976E+01  5.6796E+01  5.5280E+01  5.8067E+01  5.7564E+01  5.5979E+01
 14  0.0000E+00  1.9612E-01  2.3060E-01  0.0000E+00  9.4607E-03  1.8607E-01  0.0000E+00  0.0000E+00  4.4109E-01
 15  0.0000E+00  1.4015E-01  3.4160E-01  0.0000E+00  7.0447E-01  0.0000E+00  0.0000E+00  0.0000E+00  0.0000E+00
 16  0.0000E+00  1.7282E-04  0.0000E+00  0.0000E+00  6.3189E-04  0.0000E+00  0.0000E+00  0.0000E+00  0.0000E+00
 17  0.0000E+00  7.5686E-05  0.0000E+00  5.4985E-04  1.0367E-04  0.0000E+00  0.0000E+00  0.0000E+00  4.8463E-04
 18  4.3535E-03  3.1548E-03  2.6107E-03  2.0903E-03  3.1725E-03  3.9093E-03  3.4499E-03  3.7520E-03  3.4171E-03
 19  7.2938E-03  4.4789E-03  4.3979E-03  3.2729E-03  0.0000E+00  4.2567E-03  5.1765E-03  5.8338E-03  5.6666E-03
 20  0.0000E+00  1.7613E-03  3.8466E-03  4.3596E-03  0.0000E+00  5.8191E-03  0.0000E+00  0.0000E+00  0.0000E+00
 21  0.0000E+00  4.2968E-03  0.0000E+00  4.7430E-03  4.1814E-03  7.8810E-03  1.2049E-02  3.0147E-03  0.0000E+00
 22  0.0000E+00  1.0629E-02  0.0000E+00  9.4585E-03  8.0852E-03  3.4692E-03  1.0073E-02  8.5760E-03  1.6281E-02
 23  0.0000E+00  7.6698E-03  0.0000E+00  0.0000E+00  6.5113E-03  0.0000E+00  0.0000E+00  0.0000E+00  3.0668E-02
 24  0.0000E+00  9.1722E-03  0.0000E+00  0.0000E+00  0.0000E+00  0.0000E+00  1.2789E-02  0.0000E+00  0.0000E+00
 25  0.0000E+00  1.2534E-02  0.0000E+00  0.0000E+00  0.0000E+00  0.0000E+00  0.0000E+00  2.7939E-02  0.0000E+00
 26  0.0000E+00  2.9702E-02  8.7429E-02  0.0000E+00  0.0000E+00  4.0659E-05  0.0000E+00  0.0000E+00  0.0000E+00
 27  0.0000E+00  3.9409E-02  0.0000E+00  3.4421E-03  0.0000E+00  1.4166E-01  2.6420E-02  0.0000E+00  0.0000E+00
 28  0.0000E+00  7.8015E-02  1.5511E-01  0.0000E+00  0.0000E+00  1.4062E-02  7.2131E-03  0.0000E+00  0.0000E+00
 29  0.0000E+00  9.8906E-01  1.4775E+00  8.6779E-01  2.2194E-01  1.4328E+00  0.0000E+00  3.3516E-01  1.9845E-02
 30  0.0000E+00  2.5782E+00  2.8962E+00  2.2669E+00  1.8340E+00  2.1233E+00  2.4863E+00  3.0117E+00  2.8978E+00
 31  0.0000E+00  9.0870E-05  5.8125E-04  0.0000E+00  0.0000E+00  5.6313E-05  9.6855E-05  0.0000E+00  1.8698E-04
 32  0.0000E+00  4.0148E-04  4.2126E-04  7.7020E-04  5.9069E-04  1.0038E-04  3.9851E-04  0.0000E+00  4.1648E-04
 33  0.0000E+00  2.8538E-04  0.0000E+00  6.8161E-04  0.0000E+00  0.0000E+00  0.0000E+00  3.3258E-04  2.2742E-04
 34  0.0000E+00  3.0164E-04  0.0000E+00  0.0000E+00  1.9979E-03  0.0000E+00  0.0000E+00  0.0000E+00  9.6977E-04
 35  0.0000E+00  1.0329E-03  0.0000E+00  0.0000E+00  5.2006E-04  0.0000E+00  4.7551E-04  0.0000E+00  0.0000E+00
 36  0.0000E+00  2.6052E-03  6.6565E-03  0.0000E+00  0.0000E+00  0.0000E+00  5.3495E-03  0.0000E+00  0.0000E+00
 37  9.3836E-03  2.2098E-02  2.0226E-02  2.6074E-02  2.7668E-02  3.1147E-02  2.8795E-02  2.7207E-02  9.9479E-03
 38  0.0000E+00  4.4342E-03  0.0000E+00  2.6878E-02  0.0000E+00  0.0000E+00  0.0000E+00  0.0000E+00  0.0000E+00
 39  0.0000E+00  9.7066E-03  0.0000E+00  0.0000E+00  0.0000E+00  1.6351E-02  3.8383E-03  2.1850E-02  0.0000E+00
 40  0.0000E+00  2.0913E-02  0.0000E+00  0.0000E+00  0.0000E+00  0.0000E+00  0.0000E+00  0.0000E+00  0.0000E+00
 41  0.0000E+00  2.3343E-02  0.0000E+00  0.0000E+00  0.0000E+00  0.0000E+00  0.0000E+00  0.0000E+00  0.0000E+00
 42  0.0000E+00  7.4744E-02  0.0000E+00  0.0000E+00  0.0000E+00  0.0000E+00  2.3037E-02  2.7765E-01  0.0000E+00
 43  8.6352E+00  2.8935E+00  2.2386E+00  2.8136E+00  2.9829E+00  2.9713E+00  3.1452E+00  2.1887E+00  2.3650E+00
 44  0.0000E+00  4.4628E+00  4.6312E+00  6.1380E+00  6.2899E+00  5.0356E+00  4.5204E+00  6.4079E+00  5.7554E+00
 45  0.0000E+00  4.2372E+00  4.1048E+00  3.9794E+00  4.5118E+00  5.9876E+00  4.7173E+00  2.7986E+00  6.4077E+00

# AV, chi2 & Mass for <> & i_chain = 1 ...  7 solutions
AV       1.3165      1.2870      1.2943      1.2945      1.2872      1.2900      1.2982      1.2978      1.2935
chi2 2.4635E+00  2.5081E+00  2.4918E+00  2.4937E+00  2.4991E+00  2.4916E+00  2.4851E+00  2.4873E+00  2.4881E+00
Mass 8.3750E-11  8.8563E-11  8.9217E-11  8.9494E-11  8.9521E-11  9.0059E-11  8.8879E-11  8.8572E-11  9.1058E-11
  -9.54                                  [v0_min (km/s) before EX0s...]
 129.57                                  [vd_min (km/s) before EX0s...]


## Synthetic spectrum (Best Model) ##l_obs f_obs f_syn wei
 3070    [Nl_obs]
 3359.00    0.24479   0.42972   -1.000
 3360.00    0.29363   0.41705   -1.000
 3361.00    0.29228   0.41559   -1.000
 3362.00    0.19751   0.42571   -1.000
 3363.00    0.30149   0.44138   -1.000
 3364.00    0.31738   0.45381   -1.000
 3365.00    0.29300   0.45687   -1.000
 3366.00    0.27068   0.45004   -1.000
 3367.00    0.24880   0.43777   -1.000
 3368.00    0.19615   0.42593   -1.000
 3369.00    0.24385   0.41794   -1.000
 3370.00    0.22425   0.41391   -1.000
 3371.00    0.22340   0.41301   -1.000
 3372.00    0.26774   0.41616   -1.000
 3373.00    0.27101   0.42560   -1.000
 3374.00    0.22504   0.44094   -1.000
 3375.00    0.28987   0.45698   -1.000
 3376.00    0.35013   0.46617   -1.000
 3377.00    0.33076   0.46420   -1.000
 3378.00    0.32662   0.45410   -1.000
 3379.00    0.31362   0.44349   -1.000
 3380.00    0.25673   0.43925   -1.000
 3381.00    0.35950   0.44342   -1.000
 3382.00    0.31477   0.45321   -1.000
 3383.00    0.24375   0.46416   -1.000
 3384.00    0.30677   0.47310   -1.000
 3385.00    0.43269   0.47917   36.914
 3386.00    0.41504   0.48232   37.203
 3387.00    0.31119   0.48286   -1.000
 3388.00    0.41788   0.48177   35.760
 3389.00    0.42045   0.47976   34.993
 3390.00    0.39955   0.47646   35.428
 3391.00    0.39157   0.47169   35.772
 3392.00    0.37489   0.46711   -1.000
 3393.00    0.32236   0.46612   -1.000
 3394.00    0.39161   0.47129   33.225
 3395.00    0.38646   0.48189   31.371
 3396.00    0.37624   0.49427   -1.000
 3397.00    0.45601   0.50425   29.522
 3398.00    0.39636   0.50904   -1.000
 3399.00    0.36508   0.50791   -1.000
 3400.00    0.37854   0.50198   -1.000
 3401.00    0.41863   0.49353   29.612
 3402.00    0.41945   0.48479   29.903
 3403.00    0.39405   0.47740   30.434
 3404.00    0.41714   0.47189   30.990
 3405.00    0.48679   0.46747   31.485
 3406.00    0.40035   0.46341   31.630
 3407.00    0.38980   0.46055   32.140
 3408.00    0.45322   0.46045   32.299
 3409.00    0.42113   0.46340   32.071
 3410.00    0.43639   0.46747   31.097
 3411.00    0.38266   0.46982   30.906
 3412.00    0.42250   0.46930   32.268
 3413.00    0.44173   0.46733   32.827
 3414.00    0.33993   0.46677   -1.000
 3415.00    0.35571   0.46975   -1.000
 3416.00    0.34486   0.47682   -1.000
 3417.00    0.40038   0.48688   29.037
 3418.00    0.47711   0.49760   27.602
 3419.00    0.47255   0.50611   27.512
 3420.00    0.45973   0.51001   27.329
 3421.00    0.41863   0.50880   27.521
 3422.00    0.41622   0.50442   28.340
 3423.00    0.46237   0.49978   28.936
 3424.00    0.41061   0.49715   28.081
 3425.00    0.47156   0.49777   27.359
 3426.00    0.45321   0.50206   27.924
 3427.00    0.47662   0.50944   -1.000
 3428.00    0.36971   0.51776   -1.000
 3429.00    0.47669   0.52322   -1.000
 3430.00    0.45176   0.52287   -1.000
 3431.00    0.48590   0.51733   -1.000
 3432.00    0.42355   0.51016   27.334
 3433.00    0.42602   0.50536   27.907
 3434.00    0.39364   0.50415   -1.000
 3435.00    0.35039   0.50462   -1.000
 3436.00    0.39569   0.50301   27.181
 3437.00    0.46206   0.49620   28.481
 3438.00    0.43163   0.48323   30.221
 3439.00    0.36899   0.46589   -1.000
 3440.00    0.40884   0.44840   33.862
 3441.00    0.45557   0.43588   33.897
 3442.00    0.47394   0.43165   33.708
 3443.00    0.45960   0.43542   32.336
 3444.00    0.40579   0.44456   30.557
 3445.00    0.39164   0.45690   28.886
 3446.00    0.38806   0.47159   28.803
 3447.00    0.42404   0.48709   -1.000
 3448.00    0.43223   0.50005   -1.000
 3449.00    0.46625   0.50649   -1.000
 3450.00    0.50273   0.50445  236.845
 3451.00    0.53170   0.49626   -1.000
 3452.00    0.47510   0.48698  236.845
 3453.00    0.49119   0.48141  236.845
 3454.00    0.46528   0.48100   -1.000
 3455.00    0.44493   0.48294   -1.000
 3456.00    0.53485   0.48316   -1.000
 3457.00    0.47522   0.47930  197.839
 3458.00    0.44105   0.47230   27.238
 3459.00    0.46292   0.46523   27.589
 3460.00    0.47552   0.46128   28.374
 3461.00    0.43953   0.46248   -1.000
 3462.00    0.41568   0.46863   -1.000
 3463.00    0.50495   0.47686   -1.000
 3464.00    0.52389   0.48366   -1.000
 3465.00    0.51325   0.48808   -1.000
 3466.00    0.51796   0.49141   -1.000
 3467.00    0.48755   0.49528  236.590
 3468.00    0.54304   0.49979   -1.000
 3469.00    0.55839   0.50341   -1.000
 3470.00    0.48914   0.50422  232.607
 3471.00    0.46913   0.50065   -1.000
 3472.00    0.50065   0.49213  236.845
 3473.00    0.53938   0.48004   -1.000
 3474.00    0.45011   0.46772   27.493
 3475.00    0.40377   0.45963   28.466
 3476.00    0.43453   0.45895   28.959
 3477.00    0.45844   0.46542  236.845
 3478.00    0.41606   0.47546   -1.000
 3479.00    0.40191   0.48477   -1.000
 3480.00    0.49082   0.49036  232.087
 3481.00    0.42778   0.49144   -1.000
 3482.00    0.50826   0.48958   -1.000
 3483.00    0.49753   0.48792  236.845
 3484.00    0.49229   0.48970  232.822
 3485.00    0.48784   0.49547  225.436
 3486.00    0.46542   0.50211   -1.000
 3487.00    0.56526   0.50438   -1.000
 3488.00    0.57079   0.49970   -1.000
 3489.00    0.49982   0.49047  236.845
 3490.00    0.51043   0.48181   -1.000
 3491.00    0.49750   0.47731   -1.000
 3492.00    0.49673   0.47626   -1.000
 3493.00    0.50014   0.47563   -1.000
 3494.00    0.46644   0.47353  236.845
 3495.00    0.48056   0.47142   -1.000
 3496.00    0.50565   0.47274   -1.000
 3497.00    0.43020   0.47911   -1.000
 3498.00    0.45417   0.48879   -1.000
 3499.00    0.46797   0.49768   -1.000
 3500.00    0.51391   0.50340  214.808
 3501.00    0.53134   0.50676   -1.000
 3502.00    0.53614   0.50878   -1.000
 3503.00    0.51794   0.50915  217.135
 3504.00    0.46379   0.50698   -1.000
 3505.00    0.54874   0.50279   -1.000
 3506.00    0.55977   0.49871   -1.000
 3507.00    0.49953   0.49612  218.857
 3508.00    0.49240   0.49441  221.927
 3509.00    0.55570   0.49195   -1.000
 3510.00    0.55448   0.48775   -1.000
 3511.00    0.53614   0.48210   -1.000
 3512.00    0.52502   0.47696   -1.000
 3513.00    0.50862   0.47484   -1.000
 3514.00    0.51765   0.47827   -1.000
 3515.00    0.55564   0.48780   -1.000
 3516.00    0.53033   0.50010   -1.000
 3517.00    0.52211   0.51017  215.698
 3518.00    0.52023   0.51349  222.634
 3519.00    0.51549   0.50905  230.906
 3520.00    0.49832   0.49907  236.845
 3521.00    0.50374   0.48690   -1.000
 3522.00    0.52306   0.47524   -1.000
 3523.00    0.48340   0.46536   27.267
 3524.00    0.47746   0.45889   28.189
 3525.00    0.48044   0.45812   29.522
 3526.00    0.49061   0.46437   -1.000
 3527.00    0.48937   0.47644   -1.000
 3528.00    0.50713   0.49029   -1.000
 3529.00    0.52639   0.50128   -1.000
 3530.00    0.48021   0.50729   -1.000
 3531.00    0.53529   0.50966   -1.000
 3532.00    0.58457   0.51135   -1.000
 3533.00    0.51744   0.51441  225.538
 3534.00    0.56821   0.51866   -1.000
 3535.00    0.56189   0.52292   -1.000
 3536.00    0.54105   0.52674   -1.000
 3537.00    0.51471   0.53046   -1.000
 3538.00    0.46798   0.53415   -1.000
 3539.00    0.47301   0.53693   -1.000
 3540.00    0.46222   0.53829   -1.000
 3541.00    0.43545   0.53888   -1.000
 3542.00    0.51657   0.54030   -1.000
 3543.00    0.50520   0.54270   -1.000
 3544.00    0.48770   0.54484   -1.000
 3545.00    0.51050   0.54553   -1.000
 3546.00    0.48542   0.54464   -1.000
 3547.00    0.47454   0.54338   -1.000
 3548.00    0.50266   0.54281   -1.000
 3549.00    0.48907   0.54301   -1.000
 3550.00    0.44268   0.54281   -1.000
 3551.00    0.49017   0.54093   -1.000
 3552.00    0.50491   0.53705   -1.000
 3553.00    0.47581   0.53249   -1.000
 3554.00    0.49159   0.52912   -1.000
 3555.00    0.48575   0.52768   -1.000
 3556.00    0.47844   0.52734   -1.000
 3557.00    0.46083   0.52683   -1.000
 3558.00    0.49223   0.52626   -1.000
 3559.00    0.51670   0.52722  236.845
 3560.00    0.50134   0.53055   -1.000
 3561.00    0.51745   0.53448   -1.000
 3562.00    0.54762   0.53400   -1.000
 3563.00    0.50970   0.52558  161.233
 3564.00    0.47470   0.51002   27.566
 3565.00    0.46725   0.49318   28.598
 3566.00    0.46306   0.48083   28.264
 3567.00    0.45440   0.47341   28.187
 3568.00    0.51125   0.46805   29.135
 3569.00    0.45063   0.46265   29.559
 3570.00    0.47106   0.45852   28.585
 3571.00    0.45215   0.45831   29.268
 3572.00    0.46557   0.46218  236.845
 3573.00    0.45475   0.46777  236.845
 3574.00    0.41908   0.47264   -1.000
 3575.00    0.46753   0.47566  236.845
 3576.00    0.50117   0.47653   -1.000
 3577.00    0.53156   0.47416   -1.000
 3578.00    0.51349   0.46750   28.569
 3579.00    0.52803   0.45704   30.810
 3580.00    0.50865   0.44576   32.381
 3581.00    0.41573   0.43730   32.569
 3582.00    0.47505   0.43285   32.753
 3583.00    0.50705   0.43076   33.611
 3584.00    0.47309   0.42851   34.678
 3585.00    0.42150   0.42571   34.980
 3586.00    0.38741   0.42509   33.176
 3587.00    0.42289   0.42951   31.419
 3588.00    0.42486   0.44003   29.792
 3589.00    0.44238   0.45493   29.324
 3590.00    0.47984   0.47083  236.845
 3591.00    0.48816   0.48435  236.845
 3592.00    0.49097   0.49396  236.845
 3593.00    0.46385   0.50098   -1.000
 3594.00    0.48625   0.50786   -1.000
 3595.00    0.50348   0.51638  218.880
 3596.00    0.51509   0.52603  212.588
 3597.00    0.56189   0.53475   -1.000
 3598.00    0.58073   0.54040   -1.000
 3599.00    0.58178   0.54111   -1.000
 3600.00    0.61251   0.53599   -1.000
 3601.00    0.59577   0.52581   -1.000
 3602.00    0.57299   0.51329   -1.000
 3603.00    0.58783   0.50223   -1.000
 3604.00    0.54965   0.49505   -1.000
 3605.00    0.51619   0.49164   -1.000
 3606.00    0.54221   0.48962   -1.000
 3607.00    0.53527   0.48695   -1.000
 3608.00    0.50675   0.48427   -1.000
 3609.00    0.48188   0.48353  236.845
 3610.00    0.51165   0.48634   -1.000
 3611.00    0.52229   0.49195   -1.000
 3612.00    0.55137   0.49852   -1.000
 3613.00    0.51927   0.50500   -1.000
 3614.00    0.48671   0.51003   -1.000
 3615.00    0.52818   0.51081   -1.000
 3616.00    0.53828   0.50562   -1.000
 3617.00    0.53707   0.49565   -1.000
 3618.00    0.51917   0.48701   29.314
 3619.00    0.53244   0.48579   -1.000
 3620.00    0.49364   0.49346  230.582
 3621.00    0.52690   0.50656   -1.000
 3622.00    0.55189   0.52061   -1.000
 3623.00    0.57473   0.53363   -1.000
 3624.00    0.60503   0.54609   -1.000
 3625.00    0.58323   0.55873   -1.000
 3626.00    0.57457   0.56923  191.987
 3627.00    0.56696   0.57265  196.333
 3628.00    0.52796   0.56530   -1.000
 3629.00    0.52890   0.54769   -1.000
 3630.00    0.52825   0.52654  236.845
 3631.00    0.48360   0.51012   -1.000
 3632.00    0.44232   0.50356   -1.000
 3633.00    0.48870   0.50587   -1.000
 3634.00    0.47364   0.51247   -1.000
 3635.00    0.51424   0.51997  222.636
 3636.00    0.47016   0.52760   -1.000
 3637.00    0.51783   0.53673   -1.000
 3638.00    0.58965   0.54656   -1.000
 3639.00    0.56922   0.55420  196.989
 3640.00    0.53941   0.55614   -1.000
 3641.00    0.54875   0.55108  209.463
 3642.00    0.52200   0.54112   -1.000
 3643.00    0.50979   0.52990   -1.000
 3644.00    0.50742   0.52030  230.395
 3645.00    0.51831   0.51343  233.977
 3646.00    0.55620   0.50900   -1.000
 3647.00    0.52584   0.50711   -1.000
 3648.00    0.55783   0.50861   -1.000
 3649.00    0.57808   0.51445   -1.000
 3650.00    0.55377   0.52422   -1.000
 3651.00    0.53023   0.53648  201.853
 3652.00    0.60270   0.54876   -1.000
 3653.00    0.57531   0.55920  194.652
 3654.00    0.53192   0.56751   -1.000
 3655.00    0.55613   0.57427   -1.000
 3656.00    0.58436   0.58037  189.509
 3657.00    0.60717   0.58555   -1.000
 3658.00    0.65060   0.58873   -1.000
 3659.00    0.58352   0.58894  187.007
 3660.00    0.56068   0.58602   -1.000
 3661.00    0.62703   0.58067   -1.000
 3662.00    0.67360   0.57453   -1.000
 3663.00    0.62273   0.56929   -1.000
 3664.00    0.62201   0.56599   -1.000
 3665.00    0.61165   0.56427   -1.000
 3666.00    0.60629   0.56246   -1.000
 3667.00    0.58563   0.55989   -1.000
 3668.00    0.62857   0.55741   -1.000
 3669.00    0.60384   0.55738   -1.000
 3670.00    0.52228   0.56110   -1.000
 3671.00    0.58358   0.56706  191.604
 3672.00    0.60198   0.57230   -1.000
 3673.00    0.55278   0.57391   -1.000
 3674.00    0.54037   0.57082   -1.000
 3675.00    0.58049   0.56372   -1.000
 3676.00    0.62918   0.55416   -1.000
 3677.00    0.59914   0.54462   -1.000
 3678.00    0.55221   0.53714   -1.000
 3679.00    0.58524   0.53325   -1.000
 3680.00    0.59569   0.53318   -1.000
 3681.00    0.60558   0.53565   -1.000
 3682.00    0.60731   0.53840   -1.000
 3683.00    0.59098   0.53840   -1.000
 3684.00    0.56722   0.53419   -1.000
 3685.00    0.58991   0.52696   -1.000
 3686.00    0.56297   0.52122   -1.000
 3687.00    0.55456   0.52147   -1.000
 3688.00    0.54296   0.52953  204.314
 3689.00    0.59018   0.54264   -1.000
 3690.00    0.61041   0.55596   -1.000
 3691.00    0.59867   0.56558   -1.000
 3692.00    0.63229   0.57028   -1.000
 3693.00    0.62269   0.57123   -1.000
 3694.00    0.59960   0.57004   -1.000
 3695.00    0.59947   0.56881   -1.000
 3696.00    0.60763   0.57028   -1.000
 3697.00    0.61666   0.57676   -1.000
 3698.00    0.61027   0.58748   -1.000
 3699.00    0.59618   0.59742  177.938
 3700.00    0.58817   0.59905  181.995
 3701.00    0.59745   0.58768  191.431
 3702.00    0.59985   0.56420   -1.000
 3703.00    0.58464   0.53627   -1.000
 3704.00    0.56654   0.51323   -1.000
 3705.00    0.54610   0.50144   -1.000
 3706.00    0.52951   0.50119   -1.000
 3707.00    0.52739   0.50779   -1.000
 3708.00    0.56042   0.51592   -1.000
 3709.00    0.57855   0.52280   -1.000
 3710.00    0.59002   0.52971   -1.000
 3711.00    0.59649   0.54018   -1.000
 3712.00    0.54793   0.55676  180.371
 3713.00    0.61030   0.57774   -1.000
 3714.00    0.64905   0.59789   -1.000
 3715.00    0.64541   0.61057   -1.000
 3716.00    0.64765   0.61067   -1.000
 3717.00    0.64964   0.59521   -1.000
 3718.00    0.62384   0.56586   -1.000
 3719.00    0.56594   0.52904   -1.000
 3720.00    0.49717   0.49653   30.823
 3721.00    0.48607   0.47991  236.845
 3722.00    0.50956   0.48516   -1.000
 3723.00    0.54185   0.50882   -1.000
 3724.00    0.57087   0.54071   -1.000
 3725.00    0.62595   0.56982   -1.000
 3726.00    0.62496   0.59015   -1.000
 3727.00    0.61534   0.60159   -1.000
 3728.00    0.60874   0.60529  202.979
 3729.00    0.61748   0.59964   -1.000
 3730.00    0.55877   0.58138   -1.000
 3731.00    0.52611   0.54943  123.357
 3732.00    0.55570   0.50884   27.476
 3733.00    0.53631   0.46984   30.550
 3734.00    0.44402   0.44414   31.335
 3735.00    0.40042   0.43981   29.559
 3736.00    0.39918   0.45861   30.356
 3737.00    0.48925   0.49518  236.182
 3738.00    0.52403   0.53979   -1.000
 3739.00    0.59865   0.58113   -1.000
 3740.00    0.65513   0.61025   -1.000
 3741.00    0.65740   0.62267   -1.000
 3742.00    0.66180   0.61903   -1.000
 3743.00    0.61962   0.60305   -1.000
 3744.00    0.59624   0.57924   -1.000
 3745.00    0.57399   0.55072   -1.000
 3746.00    0.53903   0.51900   27.715
 3747.00    0.50761   0.48696   29.338
 3748.00    0.47187   0.46066   33.287
 3749.00    0.43281   0.44914   -1.000
 3750.00    0.46346   0.45891  230.334
 3751.00    0.48074   0.48977  207.749
 3752.00    0.51884   0.53377   -1.000
 3753.00    0.61484   0.57948   -1.000
 3754.00    0.65278   0.61552   -1.000
 3755.00    0.67417   0.63501   -1.000
 3756.00    0.67584   0.63709   -1.000
 3757.00    0.64205   0.62771   -1.000
 3758.00    0.59676   0.61618   -1.000
 3759.00    0.62315   0.60995   -1.000
 3760.00    0.62065   0.61122  213.506
 3761.00    0.63661   0.61697   -1.000
 3762.00    0.66404   0.62245   -1.000
 3763.00    0.64348   0.62350   -1.000
 3764.00    0.64205   0.61776   -1.000
 3765.00    0.66487   0.60446   -1.000
 3766.00    0.67304   0.58456   -1.000
 3767.00    0.61127   0.56036   -1.000
 3768.00    0.58928   0.53588   -1.000
 3769.00    0.58855   0.51698   -1.000
 3770.00    0.58052   0.51015   -1.000
 3771.00    0.56706   0.51906   -1.000
 3772.00    0.57924   0.54193   -1.000
 3773.00    0.59022   0.57213   -1.000
 3774.00    0.65777   0.60296   -1.000
 3775.00    0.70272   0.63117   -1.000
 3776.00    0.68002   0.65679   -1.000
 3777.00    0.72725   0.68097   -1.000
 3778.00    0.73216   0.70374   -1.000
 3779.00    0.72392   0.72410  173.627
 3780.00    0.73930   0.74058  172.528
 3781.00    0.75663   0.75197  171.637
 3782.00    0.75079   0.75729  172.285
 3783.00    0.75747   0.75533  177.057
 3784.00    0.79407   0.74561   -1.000
 3785.00    0.77024   0.72924   -1.000
 3786.00    0.74299   0.70981   -1.000
 3787.00    0.72535   0.69154   -1.000
 3788.00    0.68188   0.67723  212.307
 3789.00    0.68978   0.66664   -1.000
 3790.00    0.69563   0.65693   -1.000
 3791.00    0.70133   0.64407   -1.000
 3792.00    0.70870   0.62468   -1.000
 3793.00    0.68854   0.59770   -1.000
 3794.00    0.67372   0.56447   -1.000
 3795.00    0.63731   0.52867   -1.000
 3796.00    0.59612   0.49633   -1.000
 3797.00    0.56427   0.47570   -1.000
 3798.00    0.52218   0.47449   -1.000
 3799.00    0.51318   0.49593   -1.000
 3800.00    0.57161   0.53519   -1.000
 3801.00    0.61620   0.58240   -1.000
 3802.00    0.65482   0.62663   -1.000
 3803.00    0.70309   0.66085   -1.000
 3804.00    0.71221   0.68300   -1.000
 3805.00    0.73274   0.69589   -1.000
 3806.00    0.72449   0.70507   -1.000
 3807.00    0.69244   0.71604   -1.000
 3808.00    0.71144   0.73064   -1.000
 3809.00    0.72707   0.74571   -1.000
 3810.00    0.73106   0.75516   -1.000
 3811.00    0.76302   0.75369  206.279
 3812.00    0.76206   0.74074   -1.000
 3813.00    0.72813   0.72146  231.808
 3814.00    0.68044   0.70379   -1.000
 3815.00    0.65244   0.69349   -1.000
 3816.00    0.65905   0.69042   -1.000
 3817.00    0.69634   0.68919  233.550
 3818.00    0.73812   0.68468   -1.000
 3819.00    0.74773   0.67618   -1.000
 3820.00    0.68521   0.66712   -1.000
 3821.00    0.63233   0.66029   -1.000
 3822.00    0.65224   0.65403  236.845
 3823.00    0.68496   0.64441   -1.000
 3824.00    0.67607   0.62975   28.524
 3825.00    0.66206   0.61241   29.000
 3826.00    0.63344   0.59623   28.699
 3827.00    0.58854   0.58263   28.229
 3828.00    0.57107   0.56992   27.887
 3829.00    0.57435   0.55440   28.390
 3830.00    0.64344   0.53308   -1.000
 3831.00    0.60021   0.50518   -1.000
 3832.00    0.52594   0.47334   32.760
 3833.00    0.48769   0.44310   31.972
 3834.00    0.45653   0.42118   30.752
 3835.00    0.44918   0.41237   30.294
 3836.00    0.46613   0.41777   30.984
 3837.00    0.51769   0.43533   31.534
 3838.00    0.50313   0.46229   30.740
 3839.00    0.50049   0.49652   33.785
 3840.00    0.54754   0.53628   -1.000
 3841.00    0.64112   0.57856   -1.000
 3842.00    0.66975   0.61936   -1.000
 3843.00    0.64581   0.65489  220.415
 3844.00    0.70618   0.68330   -1.000
 3845.00    0.72620   0.70506   -1.000
 3846.00    0.74346   0.72115   -1.000
 3847.00    0.73139   0.73232  227.674
 3848.00    0.73396   0.73908  235.911
 3849.00    0.71529   0.74345   -1.000
 3850.00    0.70328   0.74779   -1.000
 3851.00    0.73264   0.75305   -1.000
 3852.00    0.71789   0.75754   -1.000
 3853.00    0.75613   0.75838  235.695
 3854.00    0.77329   0.75418   -1.000
 3855.00    0.73403   0.74582  236.845
 3856.00    0.71707   0.73540  109.165
 3857.00    0.77835   0.72535   27.184
 3858.00    0.75452   0.71858   28.539
 3859.00    0.69200   0.71787   32.513
 3860.00    0.70715   0.72476   -1.000
 3861.00    0.73514   0.73705  223.146
 3862.00    0.74621   0.75042  215.167
 3863.00    0.76226   0.76023  217.317
 3864.00    0.78466   0.76517   -1.000
 3865.00    0.78123   0.76643   -1.000
 3866.00    0.79746   0.76580   -1.000
 3867.00    0.79184   0.76354   -1.000
 3868.00    0.75279   0.75816  236.845
 3869.00    0.73742   0.74814  110.643
 3870.00    0.75069   0.73446   31.882
 3871.00    0.72168   0.72104  236.845
 3872.00    0.67913   0.71329   -1.000
 3873.00    0.70457   0.71328  216.261
 3874.00    0.74491   0.71813   -1.000
 3875.00    0.76569   0.72079   -1.000
 3876.00    0.76737   0.71648   -1.000
 3877.00    0.72895   0.70568   -1.000
 3878.00    0.68777   0.69297  236.845
 3879.00    0.67965   0.68208  236.845
 3880.00    0.68514   0.67301   -1.000
 3881.00    0.67403   0.66301   -1.000
 3882.00    0.68742   0.64905   -1.000
 3883.00    0.68207   0.62885   -1.000
 3884.00    0.64162   0.60113   -1.000
 3885.00    0.64253   0.56673   -1.000
 3886.00    0.63589   0.53009   -1.000
 3887.00    0.59149   0.49983   -1.000
 3888.00    0.54997   0.48464   -1.000
 3889.00    0.53728   0.49007   -1.000
 3890.00    0.57117   0.51421   -1.000
 3891.00    0.62862   0.54955   -1.000
 3892.00    0.64677   0.58617   -1.000
 3893.00    0.67579   0.61810   -1.000
 3894.00    0.68517   0.64415   -1.000
 3895.00    0.69801   0.66625   -1.000
 3896.00    0.73123   0.68568   -1.000
 3897.00    0.75354   0.70220   -1.000
 3898.00    0.78623   0.71568   -1.000
 3899.00    0.74870   0.72690   -1.000
 3900.00    0.70967   0.73679   -1.000
 3901.00    0.73814   0.74468  181.265
 3902.00    0.77834   0.74927   -1.000
 3903.00    0.78976   0.75030   -1.000
 3904.00    0.78342   0.75040   -1.000
 3905.00    0.78332   0.75394   -1.000
 3906.00    0.75129   0.76419  182.325
 3907.00    0.77873   0.78107  171.398
 3908.00    0.80789   0.80096  167.933
 3909.00    0.79449   0.81876   -1.000
 3910.00    0.83995   0.83130  164.969
 3911.00    0.85140   0.83755  164.525
 3912.00    0.84909   0.83855  166.807
 3913.00    0.83964   0.83593  170.403
 3914.00    0.79019   0.83142   -1.000
 3915.00    0.78618   0.82601   -1.000
 3916.00    0.79964   0.81993   -1.000
 3917.00    0.83178   0.81267   -1.000
 3918.00    0.81409   0.80414  193.366
 3919.00    0.80430   0.79552  201.726
 3920.00    0.79472   0.78870  204.656
 3921.00    0.79278   0.78521  202.312
 3922.00    0.77026   0.78407  199.480
 3923.00    0.80538   0.78206   -1.000
 3924.00    0.80811   0.77471   -1.000
 3925.00    0.77445   0.75867   -1.000
 3926.00    0.73266   0.73291  110.285
 3927.00    0.74569   0.69821   30.917
 3928.00    0.67350   0.65642   36.246
 3929.00    0.62274   0.60915   42.480
 3930.00    0.56642   0.55852   50.200
 3931.00    0.46863   0.50947   58.056
 3932.00    0.40163   0.46999   -1.000
 3933.00    0.37003   0.45008   -1.000
 3934.00    0.34654   0.45589   -1.000
 3935.00    0.40786   0.48673   41.099
 3936.00    0.46922   0.53461   33.908
 3937.00    0.52831   0.58924   35.133
 3938.00    0.60419   0.64083   -1.000
 3939.00    0.65684   0.68387   -1.000
 3940.00    0.70830   0.71540  232.523
 3941.00    0.71991   0.73568  230.881
 3942.00    0.76337   0.74740   -1.000
 3943.00    0.77909   0.75467   -1.000
 3944.00    0.76711   0.76165  196.445
 3945.00    0.79423   0.77009   -1.000
 3946.00    0.82334   0.77921   -1.000
 3947.00    0.84111   0.78743   -1.000
 3948.00    0.85450   0.79376   -1.000
 3949.00    0.81679   0.79816   -1.000
 3950.00    0.83216   0.80072   -1.000
 3951.00    0.86131   0.80195   -1.000
 3952.00    0.82499   0.80230   -1.000
 3953.00    0.81758   0.80156  167.714
 3954.00    0.83952   0.79872   -1.000
 3955.00    0.85712   0.79294   -1.000
 3956.00    0.85819   0.78474   -1.000
 3957.00    0.80845   0.77454   -1.000
 3958.00    0.80924   0.76075   -1.000
 3959.00    0.80999   0.74048   -1.000
 3960.00    0.81040   0.71210   -1.000
 3961.00    0.76441   0.67693   -1.000
 3962.00    0.70080   0.63788   -1.000
 3963.00    0.66396   0.59524   29.141
 3964.00    0.58520   0.54736   34.516
 3965.00    0.53599   0.49292   42.573
 3966.00    0.45258   0.43516   51.181
 3967.00    0.37743   0.38376   54.615
 3968.00    0.32992   0.34974   49.326
 3969.00    0.30292   0.34190   40.569
 3970.00    0.31620   0.36168   33.461
 3971.00    0.37267   0.40430   34.958
 3972.00    0.45751   0.46055  236.845
 3973.00    0.52608   0.52184  216.823
 3974.00    0.60799   0.58117   -1.000
 3975.00    0.68483   0.63527   -1.000
 3976.00    0.74249   0.68293   -1.000
 3977.00    0.78141   0.72399   -1.000
 3978.00    0.78586   0.75842   -1.000
 3979.00    0.80085   0.78488  153.784
 3980.00    0.82847   0.80333   -1.000
 3981.00    0.84872   0.81504   -1.000
 3982.00    0.88793   0.82347   -1.000
 3983.00    0.87841   0.83183   -1.000
 3984.00    0.88302   0.84168   -1.000
 3985.00    0.89979   0.85287   -1.000
 3986.00    0.90694   0.86463   -1.000
 3987.00    0.90666   0.87629   -1.000
 3988.00    0.93373   0.88741   -1.000
 3989.00    0.93314   0.89774   -1.000
 3990.00    0.92293   0.90713  139.098
 3991.00    0.94907   0.91509   -1.000
 3992.00    0.95511   0.92039   -1.000
 3993.00    0.96415   0.92150   -1.000
 3994.00    0.96730   0.91821   -1.000
 3995.00    0.93962   0.91236   -1.000
 3996.00    0.93218   0.90745   -1.000
 3997.00    0.91928   0.90693  143.891
 3998.00    0.94619   0.91205   -1.000
 3999.00    0.96943   0.92114   -1.000
 4000.00    0.98423   0.93064   -1.000
 4001.00    0.97500   0.93606   -1.000
 4002.00    0.96608   0.93457   -1.000
 4003.00    0.97814   0.92639   -1.000
 4004.00    0.95941   0.91563   -1.000
 4005.00    0.93739   0.90844   -1.000
 4006.00    0.93149   0.91007  137.839
 4007.00    0.94852   0.92019   -1.000
 4008.00    0.96471   0.93484   -1.000
 4009.00    0.97751   0.94857   -1.000
 4010.00    0.93945   0.95825  130.271
 4011.00    1.01263   0.96385   -1.000
 4012.00    1.00000   0.96690   -1.000
 4013.00    0.97762   0.96907  130.330
 4014.00    0.98137   0.97103  129.070
 4015.00    0.98892   0.97308  130.370
 4016.00    1.00532   0.97549   -1.000
 4017.00    1.02489   0.97854   -1.000
 4018.00    1.03842   0.98221   -1.000
 4019.00    1.00756   0.98546  129.664
 4020.00    1.01318   0.98710   -1.000
 4021.00    1.01860   0.98613   -1.000
 4022.00    1.00810   0.98311  133.044
 4023.00    0.98586   0.97966  133.145
 4024.00    0.99871   0.97830  129.403
 4025.00    0.99571   0.98024  125.169
 4026.00    0.99275   0.98391  123.463
 4027.00    1.01485   0.98542   -1.000
 4028.00    0.98280   0.98056  131.537
 4029.00    0.98402   0.96911  139.984
 4030.00    0.97552   0.95453  144.892
 4031.00    0.97365   0.94251   -1.000
 4032.00    0.97710   0.93787   -1.000
 4033.00    0.99692   0.94224   -1.000
 4034.00    0.98664   0.95502   -1.000
 4035.00    1.00605   0.97306   -1.000
 4036.00    1.01084   0.99239  121.397
 4037.00    1.00060   1.00805  121.688
 4038.00    1.03140   1.01660  124.439
 4039.00    1.02929   1.01716  127.081
 4040.00    1.03338   1.01136  128.255
 4041.00    1.01349   0.99992  130.038
 4042.00    1.00296   0.98339  137.837
 4043.00    0.96870   0.96282  151.018
 4044.00    0.96333   0.94312  158.597
 4045.00    0.92834   0.93273  149.520
 4046.00    0.92798   0.93621  136.003
 4047.00    0.97139   0.95268  128.840
 4048.00    1.02843   0.97457   -1.000
 4049.00    1.04796   0.99324   -1.000
 4050.00    1.03900   1.00339   -1.000
 4051.00    1.04270   1.00429   -1.000
 4052.00    1.02782   0.99864   -1.000
 4053.00    1.01242   0.99022  134.734
 4054.00    0.99094   0.98249  135.746
 4055.00    0.99159   0.97684  136.774
 4056.00    1.00876   0.97422   -1.000
 4057.00    0.98948   0.97491  135.050
 4058.00    0.96543   0.97771  130.550
 4059.00    0.96652   0.97999  129.088
 4060.00    1.00231   0.97712  133.002
 4061.00    1.00305   0.96689   -1.000
 4062.00    1.01084   0.95145   -1.000
 4063.00    0.98591   0.93624   -1.000
 4064.00    0.97322   0.92741   -1.000
 4065.00    0.94758   0.92690  136.302
 4066.00    0.98031   0.93320   -1.000
 4067.00    1.00995   0.94168   -1.000
 4068.00    0.98511   0.94782   -1.000
 4069.00    0.98394   0.94822   -1.000
 4070.00    1.00159   0.94354   -1.000
 4071.00    0.99243   0.93703   -1.000
 4072.00    0.97857   0.93185   -1.000
 4073.00    0.95158   0.92807  133.334
 4074.00    0.94548   0.92242  141.110
 4075.00    0.95155   0.91341   -1.000
 4076.00    0.95902   0.90342   -1.000
 4077.00    0.95212   0.89826   -1.000
 4078.00    0.92233   0.90240  136.813
 4079.00    0.96420   0.91486   -1.000
 4080.00    1.00548   0.93004   -1.000
 4081.00    0.98289   0.94048   -1.000
 4082.00    0.97342   0.94348   -1.000
 4083.00    1.00116   0.94079   -1.000
 4084.00    0.98899   0.93820   -1.000
 4085.00    1.00529   0.93992   -1.000
 4086.00    1.00266   0.94633   -1.000
 4087.00    1.00332   0.95397   -1.000
 4088.00    1.02275   0.95804   -1.000
 4089.00    1.00740   0.95606   -1.000
 4090.00    1.01317   0.94796   -1.000
 4091.00    0.98519   0.93580   -1.000
 4092.00    0.95670   0.92051   -1.000
 4093.00    0.96259   0.90201   -1.000
 4094.00    0.94368   0.87934   -1.000
 4095.00    0.90874   0.85182   -1.000
 4096.00    0.91328   0.81954   -1.000
 4097.00    0.89175   0.78193   -1.000
 4098.00    0.85641   0.73949   -1.000
 4099.00    0.81103   0.69522   -1.000
 4100.00    0.75751   0.65690   -1.000
 4101.00    0.70981   0.63552   -1.000
 4102.00    0.70439   0.63859   -1.000
 4103.00    0.71930   0.66611   -1.000
 4104.00    0.76583   0.70951   -1.000
 4105.00    0.80617   0.75616   -1.000
 4106.00    0.85279   0.79706   -1.000
 4107.00    0.90867   0.82814   -1.000
 4108.00    0.92234   0.85053   -1.000
 4109.00    0.91222   0.86784   -1.000
 4110.00    0.92261   0.88328   -1.000
 4111.00    0.91866   0.89900  132.658
 4112.00    0.94386   0.91545  130.456
 4113.00    0.96984   0.93185   -1.000
 4114.00    0.98640   0.94635   -1.000
 4115.00    1.01500   0.95663   -1.000
 4116.00    1.01322   0.96156   -1.000
 4117.00    1.02954   0.96161   -1.000
 4118.00    0.99446   0.95939   -1.000
 4119.00    0.93977   0.95764   -1.000
 4120.00    0.93849   0.95852   -1.000
 4121.00    0.97926   0.96213  133.837
 4122.00    0.98980   0.96770  132.116
 4123.00    0.98694   0.97376  130.202
 4124.00    0.96828   0.97858  130.352
 4125.00    1.00078   0.98063  132.438
 4126.00    0.99823   0.97937  134.913
 4127.00    0.96825   0.97569  135.872
 4128.00    0.96849   0.97071  136.797
 4129.00    1.00786   0.96516   -1.000
 4130.00    0.99653   0.95894   -1.000
 4131.00    0.94054   0.95338  147.207
 4132.00    0.93832   0.95123  146.146
 4133.00    0.94987   0.95572  140.511
 4134.00    0.95595   0.96791  133.964
 4135.00    1.00766   0.98577  130.218
 4136.00    1.02831   1.00520  128.189
 4137.00    1.03406   1.02140  126.560
 4138.00    1.07284   1.03090   -1.000
 4139.00    1.09959   1.03114   -1.000
 4140.00    1.05398   1.02163   -1.000
 4141.00    1.00683   1.00529  149.459
 4142.00    0.99105   0.98825  153.781
 4143.00    0.93666   0.97699   -1.000
 4144.00    0.95636   0.97616   -1.000
 4145.00    1.00125   0.98386  134.594
 4146.00    1.02634   0.99499   -1.000
 4147.00    1.00738   1.00432  137.269
 4148.00    1.01054   1.00946  140.633
 4149.00    1.02513   1.01136  141.613
 4150.00    1.00341   1.01114  140.557
 4151.00    0.98696   1.00918   -1.000
 4152.00    0.98838   1.00543   -1.000
 4153.00    0.97321   1.00084   -1.000
 4154.00    1.04111   0.99774   -1.000
 4155.00    1.26115   0.99847   -1.000
 4156.00    1.22393   1.00384   -1.000
 4157.00    0.68383   1.01276   -1.000
 4158.00    0.82371   1.02314   -1.000
 4159.00    1.09323   1.03285   -1.000
 4160.00    1.03635   1.04094  130.321
 4161.00    1.02020   1.04736   -1.000
 4162.00    0.99853   1.05211   -1.000
 4163.00    0.96787   1.05468   -1.000
 4164.00    0.99924   1.05422   -1.000
 4165.00    1.01768   1.05042   -1.000
 4166.00    1.00074   1.04413   -1.000
 4167.00    0.99338   1.03635   -1.000
 4168.00    0.98194   1.02739   -1.000
 4169.00    0.99581   1.01563   -1.000
 4170.00    0.99933   1.00068  148.112
 4171.00    0.97116   0.98463  154.938
 4172.00    0.92175   0.97210   -1.000
 4173.00    0.90801   0.96759   -1.000
 4174.00    0.93762   0.97124   -1.000
 4175.00    0.99047   0.97997  144.094
 4176.00    0.97355   0.98958  144.591
 4177.00    0.96856   0.99807   -1.000
 4178.00    0.97989   1.00519   -1.000
 4179.00    1.00436   1.01094  140.453
 4180.00    1.02576   1.01496  140.178
 4181.00    1.03959   1.01735  138.264
 4182.00    1.00387   1.01876  135.524
 4183.00    0.97846   1.02004   -1.000
 4184.00    1.02060   1.02041  135.230
 4185.00    1.01372   1.01884  139.793
 4186.00    0.98523   1.01568   -1.000
 4187.00    0.97934   1.01266   -1.000
 4188.00    0.97730   1.01236   -1.000
 4189.00    0.98828   1.01574   -1.000
 4190.00    0.99286   1.02190   -1.000
 4191.00    1.00227   1.02882   -1.000
 4192.00    1.00584   1.03363   -1.000
 4193.00    1.00605   1.03338   -1.000
 4194.00    1.01493   1.02670  143.178
 4195.00    1.01625   1.01411  147.236
 4196.00    0.99152   0.99843  149.147
 4197.00    0.99109   0.98365  148.863
 4198.00    0.96573   0.97270  146.955
 4199.00    0.94569   0.96721   -1.000
 4200.00    0.94433   0.96722   -1.000
 4201.00    0.96854   0.97182  143.293
 4202.00    0.98488   0.98014  141.321
 4203.00    0.96735   0.99169   -1.000
 4204.00    0.97343   1.00533   -1.000
 4205.00    0.97177   1.01960   -1.000
 4206.00    0.98576   1.03261   -1.000
 4207.00    1.02257   1.04252   -1.000
 4208.00    1.01064   1.04887   -1.000
 4209.00    0.99832   1.05236   -1.000
 4210.00    1.00349   1.05410   -1.000
 4211.00    0.99765   1.05410   -1.000
 4212.00    1.00100   1.05105   -1.000
 4213.00    0.99977   1.04393   -1.000
 4214.00    1.00905   1.03446   -1.000
 4215.00    1.02864   1.02693  138.082
 4216.00    1.01511   1.02529  129.893
 4217.00    1.02891   1.03110  124.819
 4218.00    1.04192   1.04114  122.004
 4219.00    1.03646   1.04972  121.424
 4220.00    1.04845   1.05138  123.670
 4221.00    1.07094   1.04219   -1.000
 4222.00    1.04014   1.02103  140.174
 4223.00    1.01625   0.99063   -1.000
 4224.00    0.98631   0.95761   -1.000
 4225.00    0.92346   0.93158  181.149
 4226.00    0.89436   0.92142   -1.000
 4227.00    0.89661   0.93100   -1.000
 4228.00    0.93223   0.95581   -1.000
 4229.00    0.98323   0.98468  126.470
 4230.00    1.02701   1.00758  126.734
 4231.00    1.02380   1.01856  129.870
 4232.00    1.01743   1.01875  132.712
 4233.00    1.00816   1.01297  134.452
 4234.00    0.98673   1.00625   -1.000
 4235.00    0.99794   1.00189  138.962
 4236.00    1.01075   1.00137  137.157
 4237.00    1.01220   1.00513  134.222
 4238.00    1.00856   1.01244  132.167
 4239.00    1.00248   1.02181  129.807
 4240.00    1.02850   1.03168  128.425
 4241.00    1.06197   1.04046  127.428
 4242.00    1.05447   1.04729  125.022
 4243.00    1.05092   1.05090  123.483
 4244.00    1.07307   1.04992  126.166
 4245.00    1.05217   1.04354  131.915
 4246.00    1.00672   1.03278   -1.000
 4247.00    0.98682   1.02125   -1.000
 4248.00    1.00067   1.01275  139.990
 4249.00    0.98399   1.00972   -1.000
 4250.00    0.96438   1.01169   -1.000
 4251.00    0.97023   1.01584   -1.000
 4252.00    0.99342   1.01943   -1.000
 4253.00    1.00088   1.02074   -1.000
 4254.00    0.99810   1.02116   -1.000
 4255.00    0.99730   1.02180   -1.000
 4256.00    0.98831   1.02156   -1.000
 4257.00    1.00006   1.01861  135.476
 4258.00    1.01910   1.01251  141.969
 4259.00    1.01658   1.00696  142.831
 4260.00    0.99291   1.00724  136.053
 4261.00    0.99293   1.01646   -1.000
 4262.00    0.99863   1.03274   -1.000
 4263.00    1.01958   1.05030   -1.000
 4264.00    1.05025   1.06350  121.396
 4265.00    1.05641   1.06839  124.070
 4266.00    1.06397   1.06423  128.193
 4267.00    1.05214   1.05177  132.375
 4268.00    1.04796   1.03257  138.567
 4269.00    1.02940   1.00954  147.754
 4270.00    0.97372   0.98683  154.644
 4271.00    0.93449   0.96910   -1.000
 4272.00    0.92062   0.96072   -1.000
 4273.00    0.94234   0.96329   -1.000
 4274.00    0.97115   0.97559  138.377
 4275.00    0.99602   0.99458  130.045
 4276.00    1.01284   1.01509  125.856
 4277.00    1.02771   1.03139  127.654
 4278.00    1.04369   1.03990  133.254
 4279.00    1.04052   1.04078  136.566
 4280.00    1.00999   1.03715   -1.000
 4281.00    0.99611   1.03241   -1.000
 4282.00    1.01356   1.02821  133.948
 4283.00    1.01099   1.02330  136.460
 4284.00    0.98703   1.01645   -1.000
 4285.00    0.97648   1.00641   -1.000
 4286.00    0.97877   0.99294  146.486
 4287.00    0.97532   0.97758  152.795
 4288.00    0.94496   0.96273  158.335
 4289.00    0.92046   0.95252   -1.000
 4290.00    0.91295   0.95042   -1.000
 4291.00    0.91248   0.95573   -1.000
 4292.00    0.96595   0.96427  138.293
 4293.00    0.99797   0.97025   -1.000
 4294.00    0.98618   0.96929  142.649
 4295.00    0.97796   0.95989  147.127
 4296.00    0.95847   0.94272  156.325
 4297.00    0.93892   0.92001   -1.000
 4298.00    0.91139   0.89556  179.045
 4299.00    0.88819   0.87443  178.520
 4300.00    0.84670   0.86053  173.731
 4301.00    0.82511   0.85564   -1.000
 4302.00    0.85053   0.85814  168.750
 4303.00    0.85761   0.86425  167.575
 4304.00    0.85493   0.86925  169.940
 4305.00    0.84942   0.86954   -1.000
 4306.00    0.84981   0.86507  185.252
 4307.00    0.83217   0.85936   -1.000
 4308.00    0.82464   0.85748   -1.000
 4309.00    0.83629   0.86337   -1.000
 4310.00    0.83693   0.87736   -1.000
 4311.00    0.86009   0.89767   -1.000
 4312.00    0.90121   0.92339   -1.000
 4313.00    0.93779   0.95395  135.525
 4314.00    0.98598   0.98874  124.049
 4315.00    1.03126   1.02494  116.339
 4316.00    1.06973   1.05681  113.687
 4317.00    1.12059   1.07896   -1.000
 4318.00    1.14356   1.08778   -1.000
 4319.00    1.12144   1.08308   -1.000
 4320.00    1.09318   1.06650  124.280
 4321.00    1.04895   1.04058  131.432
 4322.00    1.01257   1.00942  141.969
 4323.00    0.98362   0.97901  152.740
 4324.00    0.94395   0.95704  153.339
 4325.00    0.94103   0.94947  140.704
 4326.00    0.96070   0.95785  127.131
 4327.00    0.99903   0.97692  120.304
 4328.00    1.02642   0.99767  119.137
 4329.00    1.03028   1.01341  119.386
 4330.00    1.02849   1.02099  118.205
 4331.00    1.03327   1.02112  116.342
 4332.00    1.04436   1.01449  115.492
 4333.00    1.04552   0.99973   -1.000
 4334.00    1.03575   0.97396   -1.000
 4335.00    1.01753   0.93474   -1.000
 4336.00    0.97605   0.88279   -1.000
 4337.00    0.92064   0.82470   -1.000
 4338.00    0.86166   0.77177   -1.000
 4339.00    0.81233   0.73620   -1.000
 4340.00    0.77057   0.72707   -1.000
 4341.00    0.75361   0.74585  135.397
 4342.00    0.79783   0.78550  128.604
 4343.00    0.86773   0.83495   -1.000
 4344.00    0.94147   0.88476   -1.000
 4345.00    0.99943   0.92870   -1.000
 4346.00    1.00722   0.96394   -1.000
 4347.00    1.02750   0.98901   -1.000
 4348.00    1.02291   1.00280  119.814
 4349.00    0.99482   1.00551  127.530
 4350.00    0.99577   1.00075  134.753
 4351.00    0.98844   0.99576  133.802
 4352.00    0.98654   0.99726  127.823
 4353.00    1.01630   1.00793  122.618
 4354.00    1.04682   1.02529  119.323
 4355.00    1.05997   1.04402  117.716
 4356.00    1.07134   1.06002  118.697
 4357.00    1.08878   1.07167  121.049
 4358.00    1.09773   1.08027  121.209
 4359.00    1.09240   1.08840  118.242
 4360.00    1.08460   1.09799  115.326
 4361.00    1.08944   1.10874  114.422
 4362.00    1.12603   1.11888  113.713
 4363.00    1.11422   1.12655  112.778
 4364.00    1.11125   1.12959  113.905
 4365.00    1.10613   1.12655  117.831
 4366.00    1.09181   1.11816   -1.000
 4367.00    1.08810   1.10696  121.550
 4368.00    1.06263   1.09546   -1.000
 4369.00    1.06961   1.08515  119.883
 4370.00    1.07197   1.07578  120.237
 4371.00    1.06924   1.06603  122.715
 4372.00    1.04740   1.05543  127.896
 4373.00    1.03807   1.04578  131.313
 4374.00    1.02259   1.04065  129.272
 4375.00    1.00949   1.04326   -1.000
 4376.00    1.03746   1.05311  118.398
 4377.00    1.05474   1.06537  117.413
 4378.00    1.06646   1.07334  118.701
 4379.00    1.09717   1.07081  122.032
 4380.00    1.08667   1.05473   -1.000
 4381.00    1.05674   1.02766   -1.000
 4382.00    1.04446   0.99724   -1.000
 4383.00    0.99814   0.97419  152.228
 4384.00    0.97107   0.96712  137.456
 4385.00    0.99037   0.97624  127.381
 4386.00    1.02829   0.99502   -1.000
 4387.00    1.06245   1.01525   -1.000
 4388.00    1.07338   1.03147   -1.000
 4389.00    1.05818   1.04267  126.165
 4390.00    1.05764   1.05037  123.448
 4391.00    1.06636   1.05646  121.872
 4392.00    1.07089   1.06137  123.509
 4393.00    1.09493   1.06513   -1.000
 4394.00    1.09234   1.06909  122.778
 4395.00    1.07909   1.07453  117.626
 4396.00    1.08666   1.08061  116.021
 4397.00    1.09275   1.08448  118.789
 4398.00    1.09247   1.08428  123.041
 4399.00    1.08644   1.08038  124.892
 4400.00    1.06429   1.07461  122.912
 4401.00    1.04378   1.06846   -1.000
 4402.00    1.05229   1.06170  128.489
 4403.00    1.05712   1.05429  133.971
 4404.00    1.04491   1.04827  132.772
 4405.00    1.02038   1.04631   -1.000
 4406.00    1.02538   1.05024   -1.000
 4407.00    1.06684   1.06011  125.003
 4408.00    1.07318   1.07484  119.833
 4409.00    1.06839   1.09244   -1.000
 4410.00    1.09558   1.10860  112.077
 4411.00    1.10037   1.11818  112.355
 4412.00    1.10361   1.11808  116.783
 4413.00    1.11824   1.10869  122.872
 4414.00    1.08841   1.09484  125.381
 4415.00    1.06089   1.08451   -1.000
 4416.00    1.06294   1.08397   -1.000
 4417.00    1.06842   1.09393   -1.000
 4418.00    1.07197   1.11041   -1.000
 4419.00    1.07742   1.12659   -1.000
 4420.00    1.10148   1.13666   -1.000
 4421.00    1.12117   1.13946  117.691
 4422.00    1.10235   1.13737   -1.000
 4423.00    1.08179   1.13367   -1.000
 4424.00    1.08589   1.13060   -1.000
 4425.00    1.08285   1.12883   -1.000
 4426.00    1.07412   1.12874   -1.000
 4427.00    1.07935   1.13024   -1.000
 4428.00    1.07544   1.13249   -1.000
 4429.00    1.07996   1.13443   -1.000
 4430.00    1.08867   1.13464   -1.000
 4431.00    1.08773   1.13181   -1.000
 4432.00    1.10256   1.12586   -1.000
 4433.00    1.10359   1.11842  126.083
 4434.00    1.08150   1.11353   -1.000
 4435.00    1.06772   1.11559   -1.000
 4436.00    1.07506   1.12559   -1.000
 4437.00    1.10732   1.13970   -1.000
 4438.00    1.14420   1.15139  110.209
 4439.00    1.14269   1.15514  114.532
 4440.00    1.13002   1.14951  119.916
 4441.00    1.13780   1.13869  123.296
 4442.00    1.12729   1.12991  121.651
 4443.00    1.09902   1.12900   -1.000
 4444.00    1.06976   1.13706   -1.000
 4445.00    1.09488   1.15037   -1.000
 4446.00    1.13458   1.16344   -1.000
 4447.00    1.14106   1.17252   -1.000
 4448.00    1.15138   1.17649   -1.000
 4449.00    1.16407   1.17568  113.840
 4450.00    1.13465   1.17071   -1.000
 4451.00    1.15311   1.16181  115.532
 4452.00    1.14480   1.14861  120.368
 4453.00    1.09806   1.13239   -1.000
 4454.00    1.08476   1.11679   -1.000
 4455.00    1.07815   1.10591   -1.000
 4456.00    1.09129   1.10175  121.873
 4457.00    1.10011   1.10345  122.256
 4458.00    1.07813   1.10855   -1.000
 4459.00    1.08056   1.11493   -1.000
 4460.00    1.08839   1.12150   -1.000
 4461.00    1.08239   1.12827   -1.000
 4462.00    1.10527   1.13575   -1.000
 4463.00    1.11800   1.14343   -1.000
 4464.00    1.15796   1.14948  114.814
 4465.00    1.15104   1.15223  115.346
 4466.00    1.13600   1.15143  117.057
 4467.00    1.13042   1.14863  118.804
 4468.00    1.12389   1.14707   -1.000
 4469.00    1.12777   1.15007   -1.000
 4470.00    1.14016   1.15897  112.147
 4471.00    1.15854   1.17272  108.559
 4472.00    1.17502   1.18855  106.392
 4473.00    1.19275   1.20302  105.982
 4474.00    1.20919   1.21353  105.810
 4475.00    1.22347   1.21890  104.940
 4476.00    1.20768   1.21873  104.914
 4477.00    1.19726   1.21260  107.000
 4478.00    1.20791   1.20067  111.452
 4479.00    1.19825   1.18484  115.878
 4480.00    1.18377   1.17003  117.364
 4481.00    1.18242   1.16232  114.461
 4482.00    1.16476   1.16506  109.660
 4483.00    1.15664   1.17715  106.214
 4484.00    1.16974   1.19347   -1.000
 4485.00    1.19606   1.20721  105.997
 4486.00    1.20727   1.21347  109.130
 4487.00    1.18829   1.21177   -1.000
 4488.00    1.17360   1.20530   -1.000
 4489.00    1.16154   1.19897   -1.000
 4490.00    1.14439   1.19624   -1.000
 4491.00    1.16178   1.19746   -1.000
 4492.00    1.17912   1.20050   -1.000
 4493.00    1.17844   1.20283   -1.000
 4494.00    1.17103   1.20411   -1.000
 4495.00    1.17005   1.20565   -1.000
 4496.00    1.18790   1.20839   -1.000
 4497.00    1.20709   1.21213  106.806
 4498.00    1.20128   1.21618  106.682
 4499.00    1.20161   1.21984  107.796
 4500.00    1.21492   1.22383  107.061
 4501.00    1.20531   1.23019   -1.000
 4502.00    1.21313   1.23974   -1.000
 4503.00    1.23305   1.25110  100.053
 4504.00    1.22965   1.26135   -1.000
 4505.00    1.22182   1.26796   -1.000
 4506.00    1.23416   1.26999   -1.000
 4507.00    1.25036   1.26878  103.413
 4508.00    1.25585   1.26653  102.608
 4509.00    1.25690   1.26448  102.494
 4510.00    1.25035   1.26220  103.876
 4511.00    1.24131   1.25850  105.916
 4512.00    1.23356   1.25292  107.333
 4513.00    1.20840   1.24604   -1.000
 4514.00    1.20094   1.23907   -1.000
 4515.00    1.20394   1.23343   -1.000
 4516.00    1.19404   1.22969   -1.000
 4517.00    1.20205   1.22733   -1.000
 4518.00    1.20801   1.22605  106.253
 4519.00    1.20530   1.22554  105.061
 4520.00    1.21638   1.22490  106.308
 4521.00    1.22793   1.22285  108.795
 4522.00    1.21754   1.21834  110.499
 4523.00    1.18523   1.21103   -1.000
 4524.00    1.15577   1.20106   -1.000
 4525.00    1.16744   1.18880   -1.000
 4526.00    1.16612   1.17524  120.309
 4527.00    1.13614   1.16231   -1.000
 4528.00    1.11305   1.15255   -1.000
 4529.00    1.11534   1.14731   -1.000
 4530.00    1.12993   1.14604  115.595
 4531.00    1.14448   1.14640  116.536
 4532.00    1.16196   1.14649  120.246
 4533.00    1.15647   1.14691  122.175
 4534.00    1.15819   1.15076  118.201
 4535.00    1.14603   1.16123  111.162
 4536.00    1.13440   1.17849   -1.000
 4537.00    1.16213   1.19921   -1.000
 4538.00    1.23034   1.21784  106.508
 4539.00    1.22663   1.23029  108.114
 4540.00    1.19965   1.23582   -1.000
 4541.00    1.20021   1.23646   -1.000
 4542.00    1.20976   1.23450   -1.000
 4543.00    0.86596   1.23099   -1.000
 4544.00    0.20152   1.22584   -1.000
 4545.00    0.05113   1.21903   -1.000
 4546.00    0.51085   1.21068   -1.000
 4547.00    0.96839   1.20127   -1.000
 4548.00    0.59666   1.19241   -1.000
 4549.00    0.95946   1.18654   -1.000
 4550.00    1.20294   1.18512  111.508
 4551.00    1.18215   1.18701  112.615
 4552.00    1.17946   1.18965  114.144
 4553.00    1.16847   1.19194   -1.000
 4554.00    1.18157   1.19489  111.273
 4555.00    1.18481   1.20072  106.943
 4556.00    1.18930   1.21113  103.574
 4557.00    1.20871   1.22525  102.780
 4558.00    1.21998   1.24023  103.194
 4559.00    1.22996   1.25283  103.143
 4560.00    1.22502   1.26045   -1.000
 4561.00    1.21996   1.26187   -1.000
 4562.00    1.21783   1.25783   -1.000
 4563.00    1.21161   1.25101   -1.000
 4564.00    1.22325   1.24526   -1.000
 4565.00    1.22087   1.24349   -1.000
 4566.00    1.21530   1.24637   -1.000
 4567.00    1.23348   1.25153  102.652
 4568.00    1.25410   1.25537  104.444
 4569.00    1.24554   1.25532  107.202
 4570.00    1.21278   1.25172   -1.000
 4571.00    1.19841   1.24739   -1.000
 4572.00    1.21478   1.24601   -1.000
 4573.00    1.23896   1.24897  103.221
 4574.00    1.24252   1.25436  103.501
 4575.00    1.23496   1.25908   -1.000
 4576.00    1.22812   1.26039   -1.000
 4577.00    1.21241   1.25670   -1.000
 4578.00    1.21138   1.24784   -1.000
 4579.00    1.22530   1.23569  111.602
 4580.00    1.21240   1.22304  110.688
 4581.00    1.19099   1.21281   -1.000
 4582.00    1.17534   1.20675   -1.000
 4583.00    1.17707   1.20544   -1.000
 4584.00    1.19402   1.20818  109.377
 4585.00    1.18763   1.21413   -1.000
 4586.00    1.20228   1.22217  104.577
 4587.00    1.22588   1.23089  103.199
 4588.00    1.23307   1.23849  103.782
 4589.00    1.21831   1.24328   -1.000
 4590.00    1.21291   1.24444   -1.000
 4591.00    1.20586   1.24283   -1.000
 4592.00    1.18211   1.24055   -1.000
 4593.00    1.18358   1.23976   -1.000
 4594.00    1.20944   1.24125   -1.000
 4595.00    1.23473   1.24459  106.479
 4596.00    1.23167   1.24852  106.250
 4597.00    1.22109   1.25163   -1.000
 4598.00    1.22799   1.25268   -1.000
 4599.00    1.23321   1.25161  108.174
 4600.00    1.23748   1.24916  107.863
 4601.00    1.22304   1.24676   -1.000
 4602.00    1.19324   1.24576   -1.000
 4603.00    1.21301   1.24693   -1.000
 4604.00    1.22845   1.25037   -1.000
 4605.00    1.24063   1.25595  103.915
 4606.00    1.26959   1.26318  101.754
 4607.00    1.26084   1.27122   99.966
 4608.00    1.25098   1.27883   -1.000
 4609.00    1.23413   1.28448   -1.000
 4610.00    1.23951   1.28677   -1.000
 4611.00    1.23995   1.28609   -1.000
 4612.00    1.25514   1.28367   -1.000
 4613.00    1.28297   1.28089  102.051
 4614.00    1.27370   1.27845  101.330
 4615.00    1.25521   1.27636  101.385
 4616.00    1.25493   1.27434  102.136
 4617.00    1.25428   1.27259  102.548
 4618.00    1.26540   1.27205  102.054
 4619.00    1.25894   1.27370  100.777
 4620.00    1.24831   1.27788   -1.000
 4621.00    1.26372   1.28362   99.937
 4622.00    1.26297   1.28896   -1.000
 4623.00    1.26070   1.29232   -1.000
 4624.00    1.26523   1.29336   -1.000
 4625.00    1.26276   1.29228   -1.000
 4626.00    1.26364   1.29003   -1.000
 4627.00    1.26113   1.28770   -1.000
 4628.00    1.25819   1.28611   -1.000
 4629.00    1.23805   1.28563   -1.000
 4630.00    1.23973   1.28631   -1.000
 4631.00    1.25677   1.28735   -1.000
 4632.00    1.25912   1.28720   -1.000
 4633.00    1.25380   1.28516   -1.000
 4634.00    1.24910   1.28181   -1.000
 4635.00    1.24955   1.27822   -1.000
 4636.00    1.24294   1.27524   -1.000
 4637.00    1.25001   1.27393   -1.000
 4638.00    1.26151   1.27495  105.311
 4639.00    1.25109   1.27843   -1.000
 4640.00    1.24772   1.28359   -1.000
 4641.00    1.26209   1.28883   -1.000
 4642.00    1.26329   1.29169   -1.000
 4643.00    1.24247   1.29009   -1.000
 4644.00    1.23841   1.28378   -1.000
 4645.00    1.24445   1.27425   -1.000
 4646.00    1.23168   1.26452   -1.000
 4647.00    1.22745   1.25841   -1.000
 4648.00    1.23828   1.25810  103.767
 4649.00    1.26023   1.26290  102.903
 4650.00    1.27088   1.26991  102.753
 4651.00    1.26342   1.27589  103.138
 4652.00    1.24895   1.27896   -1.000
 4653.00    1.22855   1.27889   -1.000
 4654.00    1.23349   1.27744   -1.000
 4655.00    1.24363   1.27756   -1.000
 4656.00    1.26501   1.28194  101.353
 4657.00    1.26423   1.29118   -1.000
 4658.00    1.26175   1.30350   -1.000
 4659.00    1.26311   1.31474   -1.000
 4660.00    1.28171   1.32115   -1.000
 4661.00    1.27991   1.32078   -1.000
 4662.00    1.27049   1.31379   -1.000
 4663.00    1.27574   1.30148   -1.000
 4664.00    1.26290   1.28579   -1.000
 4665.00    1.24921   1.26850  111.010
 4666.00    1.23840   1.25222  113.713
 4667.00    1.22906   1.24051  112.097
 4668.00    1.22343   1.23664  107.980
 4669.00    1.22670   1.24125  104.101
 4670.00    1.23615   1.25243  102.282
 4671.00    1.25358   1.26644  102.046
 4672.00    1.27793   1.27986  102.069
 4673.00    1.28745   1.29058  101.426
 4674.00    1.29874   1.29804   99.968
 4675.00    1.29346   1.30199   99.312
 4676.00    1.27525   1.30168   -1.000
 4677.00    1.26946   1.29696   -1.000
 4678.00    1.26317   1.28906   -1.000
 4679.00    1.23932   1.28037   -1.000
 4680.00    1.22960   1.27343   -1.000
 4681.00    1.24138   1.26987   -1.000
 4682.00    1.24468   1.27019   -1.000
 4683.00    1.25551   1.27360  101.346
 4684.00    1.27507   1.27844  101.621
 4685.00    1.27601   1.28311  101.881
 4686.00    1.27130   1.28675  102.237
 4687.00    1.27435   1.28907  102.221
 4688.00    1.27223   1.29024  102.547
 4689.00    1.26084   1.29076   -1.000
 4690.00    1.25799   1.29110   -1.000
 4691.00    1.26898   1.29194   -1.000
 4692.00    1.26828   1.29385   -1.000
 4693.00    1.27395   1.29654   97.562
 4694.00    1.30314   1.29889   97.101
 4695.00    1.31549   1.29968   98.644
 4696.00    1.29611   1.29767  101.649
 4697.00    1.26933   1.29206  103.911
 4698.00    1.25165   1.28352   -1.000
 4699.00    1.25189   1.27337  103.944
 4700.00    1.26846   1.26332  105.251
 4701.00    1.26700   1.25468  106.585
 4702.00    1.24783   1.24894  105.949
 4703.00    1.23686   1.24709  104.041
 4704.00    1.24212   1.24859  103.822
 4705.00    1.25765   1.25122  105.666
 4706.00    1.25005   1.25311  107.334
 4707.00    1.22670   1.25417   -1.000
 4708.00    1.21767   1.25590   -1.000
 4709.00    1.23941   1.25971  102.718
 4710.00    1.25278   1.26566  100.705
 4711.00    1.25407   1.27279  100.632
 4712.00    1.25309   1.27920   -1.000
 4713.00    1.27158   1.28384  103.205
 4714.00    1.29286   1.28758  102.218
 4715.00    1.28996   1.29205  100.142
 4716.00    1.28376   1.29830   98.799
 4717.00    1.30096   1.30562   98.351
 4718.00    1.31515   1.31274   98.015
 4719.00    1.32611   1.31835   98.197
 4720.00    1.31798   1.32205   99.018
 4721.00    1.29672   1.32411   -1.000
 4722.00    1.28649   1.32503   -1.000
 4723.00    1.27866   1.32490   -1.000
 4724.00    1.27904   1.32295   -1.000
 4725.00    1.29390   1.31813  102.020
 4726.00    1.28466   1.30988   -1.000
 4727.00    1.25527   1.29935   -1.000
 4728.00    1.23019   1.28909   -1.000
 4729.00    1.24491   1.28159   -1.000
 4730.00    1.27222   1.27795  103.530
 4731.00    1.28286   1.27823  102.420
 4732.00    1.29472   1.28134  101.682
 4733.00    1.28952   1.28539  101.120
 4734.00    1.27849   1.28878  101.292
 4735.00    1.29564   1.29103  102.016
 4736.00    1.29807   1.29256  101.452
 4737.00    1.27903   1.29432  100.693
 4738.00    1.28309   1.29708  101.033
 4739.00    1.28696   1.30071  101.437
 4740.00    1.29339   1.30457  101.125
 4741.00    1.31282   1.30849  100.145
 4742.00    1.31306   1.31250   99.623
 4743.00    1.31110   1.31652   99.822
 4744.00    1.31907   1.32048   99.526
 4745.00    1.32345   1.32441   98.630
 4746.00    1.32077   1.32861   97.979
 4747.00    1.32765   1.33327   97.963
 4748.00    1.33638   1.33773   98.086
 4749.00    1.31638   1.34136   98.441
 4750.00    1.29205   1.34318   -1.000
 4751.00    1.28937   1.34224   -1.000
 4752.00    1.28677   1.33844   -1.000
 4753.00    1.28280   1.33283   -1.000
 4754.00    1.29283   1.32752   -1.000
 4755.00    1.29113   1.32429   -1.000
 4756.00    1.27905   1.32394   -1.000
 4757.00    1.28976   1.32588   -1.000
 4758.00    1.30687   1.32849  101.607
 4759.00    1.30410   1.32944   -1.000
 4760.00    1.28595   1.32662   -1.000
 4761.00    1.27580   1.31943   -1.000
 4762.00    1.26473   1.30913   -1.000
 4763.00    1.24889   1.29899   -1.000
 4764.00    1.25135   1.29172   -1.000
 4765.00    1.26168   1.28927   -1.000
 4766.00    1.27212   1.29216  103.641
 4767.00    1.29843   1.29977  101.673
 4768.00    1.31031   1.31004  101.017
 4769.00    1.31326   1.32021  101.555
 4770.00    1.32064   1.32814  102.459
 4771.00    1.31899   1.33376  102.402
 4772.00    1.31777   1.33819  100.674
 4773.00    1.31437   1.34299   -1.000
 4774.00    1.30940   1.34835   -1.000
 4775.00    1.31413   1.35321   -1.000
 4776.00    1.32720   1.35634   -1.000
 4777.00    1.32221   1.35681   -1.000
 4778.00    1.29745   1.35492   -1.000
 4779.00    1.28493   1.35147   -1.000
 4780.00    1.29404   1.34745   -1.000
 4781.00    1.30584   1.34312   -1.000
 4782.00    1.30722   1.33852   -1.000
 4783.00    1.29358   1.33391   -1.000
 4784.00    1.30855   1.32954  103.986
 4785.00    1.31564   1.32587  104.846
 4786.00    1.30278   1.32346  105.106
 4787.00    1.29959   1.32312   -1.000
 4788.00    1.29235   1.32526   -1.000
 4789.00    1.28647   1.32998   -1.000
 4790.00    1.28606   1.33729   -1.000
 4791.00    1.31431   1.34680   -1.000
 4792.00    1.32759   1.35771   -1.000
 4793.00    1.32921   1.36844   -1.000
 4794.00    1.35780   1.37724   97.223
 4795.00    1.34937   1.38230   -1.000
 4796.00    1.32286   1.38284   -1.000
 4797.00    1.32195   1.37976   -1.000
 4798.00    1.31881   1.37503   -1.000
 4799.00    1.33013   1.37121   -1.000
 4800.00    1.34990   1.36991   99.107
 4801.00    1.33510   1.37098   -1.000
 4802.00    1.31577   1.37263   -1.000
 4803.00    1.32258   1.37317   -1.000
 4804.00    1.32761   1.37178   -1.000
 4805.00    1.31561   1.36914   -1.000
 4806.00    1.31226   1.36650   -1.000
 4807.00    1.32324   1.36486   -1.000
 4808.00    1.33729   1.36491   -1.000
 4809.00    1.34342   1.36657  100.053
 4810.00    1.33102   1.36916   -1.000
 4811.00    1.33077   1.37227   -1.000
 4812.00    1.33915   1.37599   -1.000
 4813.00    1.34285   1.38039   -1.000
 4814.00    1.34807   1.38544   -1.000
 4815.00    1.34248   1.39075   -1.000
 4816.00    1.33887   1.39555   -1.000
 4817.00    1.35379   1.39896   -1.000
 4818.00    1.36274   1.40025   -1.000
 4819.00    1.35392   1.39894   -1.000
 4820.00    1.33873   1.39431   -1.000
 4821.00    1.32704   1.38615   -1.000
 4822.00    1.33500   1.37562   -1.000
 4823.00    1.32739   1.36534   -1.000
 4824.00    1.30440   1.35868   -1.000
 4825.00    1.30071   1.35696   -1.000
 4826.00    1.31563   1.35878   -1.000
 4827.00    1.32289   1.36170   -1.000
 4828.00    1.32333   1.36339   -1.000
 4829.00    1.31262   1.36317   -1.000
 4830.00    1.29321   1.36088   -1.000
 4831.00    1.29735   1.35747   -1.000
 4832.00    1.31967   1.35469   -1.000
 4833.00    1.34092   1.35351   98.766
 4834.00    1.32439   1.35396   -1.000
 4835.00    1.31296   1.35492   -1.000
 4836.00    1.32088   1.35484   -1.000
 4837.00    1.31592   1.35268   -1.000
 4838.00    1.31524   1.34808   -1.000
 4839.00    1.31778   1.34196  102.378
 4840.00    1.31940   1.33587  102.011
 4841.00    1.32318   1.33147  101.369
 4842.00    1.32518   1.32937  100.481
 4843.00    1.32742   1.32928   99.189
 4844.00    1.32598   1.33059   98.115
 4845.00    1.32160   1.33206   98.828
 4846.00    1.33018   1.33181  100.665
 4847.00    1.33082   1.32903  101.425
 4848.00    1.32730   1.32455  100.687
 4849.00    1.31074   1.31925   99.797
 4850.00    1.28797   1.31307   -1.000
 4851.00    1.28498   1.30443  100.714
 4852.00    1.27939   1.29163  102.606
 4853.00    1.27547   1.27328  105.674
 4854.00    1.26998   1.24929  107.112
 4855.00    1.24867   1.22077  106.368
 4856.00    1.22293   1.18800   -1.000
 4857.00    1.20207   1.15004   -1.000
 4858.00    1.17470   1.10493   -1.000
 4859.00    1.12375   1.05530   -1.000
 4860.00    1.05268   1.01025   -1.000
 4861.00    0.97332   0.98183  124.026
 4862.00    0.93356   0.97946   -1.000
 4863.00    0.98904   1.00273  109.378
 4864.00    1.10040   1.04459   -1.000
 4865.00    1.17348   1.09414   -1.000
 4866.00    1.20046   1.14154   -1.000
 4867.00    1.21550   1.17995   -1.000
 4868.00    1.22880   1.20615  106.191
 4869.00    1.23331   1.22057  109.067
 4870.00    1.21735   1.22639  109.980
 4871.00    1.18989   1.22899   -1.000
 4872.00    1.20904   1.23432   -1.000
 4873.00    1.25109   1.24460  104.012
 4874.00    1.27490   1.25892  103.345
 4875.00    1.28096   1.27421  102.893
 4876.00    1.27528   1.28864  101.987
 4877.00    1.27313   1.30202   -1.000
 4878.00    1.28373   1.31453   -1.000
 4879.00    1.29265   1.32561   -1.000
 4880.00    1.29839   1.33399   -1.000
 4881.00    1.30078   1.33838   -1.000
 4882.00    1.29827   1.33909   -1.000
 4883.00    1.29885   1.33667   -1.000
 4884.00    1.28971   1.33205   -1.000
 4885.00    1.28429   1.32636   -1.000
 4886.00    1.28736   1.32045   -1.000
 4887.00    1.28703   1.31478   -1.000
 4888.00    1.28089   1.30926   -1.000
 4889.00    1.26781   1.30451   -1.000
 4890.00    1.25521   1.30335   -1.000
 4891.00    1.24767   1.30924   -1.000
 4892.00    1.27216   1.32442   -1.000
 4893.00    1.32890   1.34734   95.141
 4894.00    1.35200   1.37245   94.025
 4895.00    1.37141   1.39474   93.921
 4896.00    1.39002   1.41033   95.030
 4897.00    1.37397   1.41798   -1.000
 4898.00    1.35493   1.41844   -1.000
 4899.00    1.34637   1.41428   -1.000
 4900.00    1.35001   1.40819   -1.000
 4901.00    1.34735   1.40229   -1.000
 4902.00    1.33719   1.39769   -1.000
 4903.00    1.34063   1.39541   -1.000
 4904.00    1.34597   1.39638   -1.000
 4905.00    1.35219   1.39956   -1.000
 4906.00    1.34912   1.40188   -1.000
 4907.00    1.33488   1.40077   -1.000
 4908.00    1.32555   1.39491   -1.000
 4909.00    1.31075   1.38617   -1.000
 4910.00    1.30387   1.37792   -1.000
 4911.00    1.31912   1.37408   -1.000
 4912.00    1.33419   1.37588   -1.000
 4913.00    1.33294   1.38173   -1.000
 4914.00    1.33289   1.38776   -1.000
 4915.00    1.33005   1.38908   -1.000
 4916.00    1.32249   1.38136   -1.000
 4917.00    1.31664   1.36363   -1.000
 4918.00    1.29082   1.33901   -1.000
 4919.00    1.26278   1.31409   -1.000
 4920.00    1.24592   1.29594   -1.000
 4921.00    1.25540   1.28869   -1.000
 4922.00    1.28371   1.29241  103.597
 4923.00    1.30474   1.30407  102.917
 4924.00    1.30864   1.32097  100.881
 4925.00    1.30402   1.34087   -1.000
 4926.00    1.32762   1.36171   -1.000
 4927.00    1.36716   1.38151   96.520
 4928.00    1.37242   1.39774   95.902
 4929.00    1.35049   1.40830   -1.000
 4930.00    1.34798   1.41156   -1.000
 4931.00    1.36220   1.40712   -1.000
 4932.00    1.36274   1.39657   -1.000
 4933.00    1.33355   1.38371   -1.000
 4934.00    1.30293   1.37195   -1.000
 4935.00    1.29409   1.36306   -1.000
 4936.00    1.29281   1.35622   -1.000
 4937.00    1.31426   1.35084   -1.000
 4938.00    1.33119   1.34879  104.276
 4939.00    1.32709   1.35221  100.771
 4940.00    1.32808   1.36225   -1.000
 4941.00    1.35128   1.37712   96.895
 4942.00    1.37227   1.39300   96.502
 4943.00    1.37360   1.40651   -1.000
 4944.00    1.37546   1.41576   -1.000
 4945.00    1.37864   1.42122   -1.000
 4946.00    1.36979   1.42477   -1.000
 4947.00    1.35295   1.42837   -1.000
 4948.00    1.35660   1.43245   -1.000
 4949.00    1.37389   1.43602   -1.000
 4950.00    1.38957   1.43762   -1.000
 4951.00    1.39322   1.43623   -1.000
 4952.00    1.38206   1.43118   -1.000
 4953.00    1.37376   1.42181   -1.000
 4954.00    1.35994   1.40752   -1.000
 4955.00    1.33266   1.38847   -1.000
 4956.00    1.31019   1.36802   -1.000
 4957.00    1.30371   1.35291   -1.000
 4958.00    1.31393   1.34875   -1.000
 4959.00    1.34283   1.35693   97.983
 4960.00    1.36521   1.37286   97.882
 4961.00    1.37735   1.39012   98.524
 4962.00    1.36448   1.40328   -1.000
 4963.00    1.34934   1.40937   -1.000
 4964.00    1.36497   1.40844   -1.000
 4965.00    1.36794   1.40282   -1.000
 4966.00    1.36008   1.39576   -1.000
 4967.00    1.34801   1.38998   -1.000
 4968.00    1.34583   1.38719   -1.000
 4969.00    1.36132   1.38820   -1.000
 4970.00    1.36267   1.39276   -1.000
 4971.00    1.36603   1.39989   -1.000
 4972.00    1.37197   1.40805   -1.000
 4973.00    1.35801   1.41558   -1.000
 4974.00    1.35169   1.42065   -1.000
 4975.00    1.36247   1.42212   -1.000
 4976.00    1.37135   1.41933   -1.000
 4977.00    1.37292   1.41214   -1.000
 4978.00    1.36486   1.40068   -1.000
 4979.00    1.34046   1.38515   -1.000
 4980.00    1.32199   1.36604   -1.000
 4981.00    1.30904   1.34511   -1.000
 4982.00    1.28353   1.32627   -1.000
 4983.00    1.27645   1.31438   -1.000
 4984.00    1.29586   1.31300  105.243
 4985.00    1.31874   1.32188  102.269
 4986.00    1.33202   1.33741  101.084
 4987.00    1.33867   1.35432  101.930
 4988.00    1.34811   1.36759  103.229
 4989.00    1.36293   1.37502  103.765
 4990.00    1.36532   1.37742  103.292
 4991.00    1.35425   1.37753  102.603
 4992.00    1.33662   1.37787   -1.000
 4993.00    1.32429   1.37972   -1.000
 4994.00    1.34195   1.38283   -1.000
 4995.00    1.35799   1.38579   -1.000
 4996.00    1.35130   1.38670   -1.000
 4997.00    1.35225   1.38390   -1.000
 4998.00    1.34580   1.37670   -1.000
 4999.00    1.32099   1.36632   -1.000
 5000.00    1.31117   1.35519   -1.000
 5001.00    1.31167   1.34586   -1.000
 5002.00    1.30555   1.33930   -1.000
 5003.00    1.29030   1.33449   -1.000
 5004.00    1.29704   1.33007   -1.000
 5005.00    1.31786   1.32610  108.547
 5006.00    1.31644   1.32475  105.490
 5007.00    1.29481   1.32755   -1.000
 5008.00    1.28306   1.33354   -1.000
 5009.00    1.29572   1.33926   -1.000
 5010.00    1.30684   1.34045   -1.000
 5011.00    1.31712   1.33525  112.802
 5012.00    1.30417   1.32487  113.757
 5013.00    1.28275   1.31334   -1.000
 5014.00    1.28624   1.30435  109.676
 5015.00    1.28712   1.29978  108.336
 5016.00    1.28416   1.29944  108.158
 5017.00    1.29378   1.30223  107.530
 5018.00    1.30280   1.30760  106.464
 5019.00    1.30959   1.31490  106.299
 5020.00    1.32279   1.32305  106.670
 5021.00    1.33171   1.33130  106.458
 5022.00    1.33196   1.33922  105.561
 5023.00    1.33942   1.34707  104.648
 5024.00    1.33594   1.35453  104.581
 5025.00    1.34004   1.36041  105.102
 5026.00    1.37359   1.36461  104.835
 5027.00    1.38687   1.36809  103.310
 5028.00    1.38248   1.37214  101.595
 5029.00    1.38056   1.37783  100.045
 5030.00    1.37780   1.38509   98.664
 5031.00    1.37158   1.39252   98.216
 5032.00    1.36818   1.39776   -1.000
 5033.00    1.37900   1.39820  103.624
 5034.00    1.38523   1.39241  106.511
 5035.00    1.36172   1.38128  107.505
 5036.00    1.32807   1.36658   -1.000
 5037.00    1.32060   1.35013   -1.000
 5038.00    1.32313   1.33272  115.772
 5039.00    1.31234   1.31616  118.032
 5040.00    1.28695   1.30471  114.883
 5041.00    1.27097   1.30300   -1.000
 5042.00    1.28958   1.31348  102.881
 5043.00    1.35754   1.33420   99.808
 5044.00    1.17091   1.35928   -1.000
 5045.00    0.46356   1.38191   -1.000
 5046.00   -0.01102   1.39634    0.000
 5047.00    0.09192   1.40014   -1.000
 5048.00    0.61461   1.39469   -1.000
 5049.00    1.17736   1.38457   -1.000
 5050.00    1.34044   1.37522   -1.000
 5051.00    1.32633   1.37114   -1.000
 5052.00    1.32485   1.37424   -1.000
 5053.00    1.36138   1.38346   98.590
 5054.00    1.39063   1.39569   97.998
 5055.00    1.39492   1.40833   97.958
 5056.00    1.40568   1.41959   98.148
 5057.00    1.41460   1.42871   98.212
 5058.00    1.42294   1.43551   97.828
 5059.00    1.42819   1.43975   97.537
 5060.00    1.41469   1.44091   98.281
 5061.00    1.40287   1.43822   -1.000
 5062.00    1.40520   1.43089  103.771
 5063.00    1.39937   1.41945  106.150
 5064.00    1.37039   1.40643   -1.000
 5065.00    1.35986   1.39478   -1.000
 5066.00    1.36338   1.38680  103.543
 5067.00    1.36532   1.38277  103.148
 5068.00    1.36609   1.38179  102.550
 5069.00    1.36685   1.38242  102.683
 5070.00    1.37359   1.38314  103.536
 5071.00    1.38794   1.38306  103.211
 5072.00    1.38846   1.38252  102.152
 5073.00    1.37560   1.38226  101.722
 5074.00    1.37372   1.38231  101.628
 5075.00    1.37545   1.38158  102.129
 5076.00    1.37050   1.37828  104.529
 5077.00    1.35871   1.37111  108.962
 5078.00    1.35211   1.36041  112.061
 5079.00    1.34259   1.34909  111.265
 5080.00    1.31634   1.34081  108.831
 5081.00    1.31117   1.33812   -1.000
 5082.00    1.33396   1.34179  105.234
 5083.00    1.34017   1.35080  103.332
 5084.00    1.36136   1.36344  102.132
 5085.00    1.38777   1.37743  101.745
 5086.00    1.38316   1.39071  101.411
 5087.00    1.39303   1.40213  100.768
 5088.00    1.40696   1.41141  100.130
 5089.00    1.40654   1.41883   99.599
 5090.00    1.39806   1.42482   98.731
 5091.00    1.47250   1.42965   -1.000
 5092.00    1.64434   1.43283   -1.000
 5093.00    1.57167   1.43297   -1.000
 5094.00    1.41932   1.42844  101.523
 5095.00    1.39529   1.41864  103.867
 5096.00    1.37516   1.40497   -1.000
 5097.00    1.38163   1.39062  107.389
 5098.00    1.36688   1.37952  106.025
 5099.00    1.35045   1.37459  103.094
 5100.00    1.36362   1.37653  101.252
 5101.00    1.38887   1.38309  101.226
 5102.00    1.40010   1.39050  102.263
 5103.00    1.39802   1.39537  103.600
 5104.00    1.39343   1.39571  104.886
 5105.00    1.37748   1.39148  106.189
 5106.00    1.36138   1.38444  106.692
 5107.00    1.35170   1.37737  106.207
 5108.00    1.34265   1.37296   -1.000
 5109.00    1.34216   1.37304   -1.000
 5110.00    1.35948   1.37813  102.889
 5111.00    1.37854   1.38736  101.637
 5112.00    1.39456   1.39893  100.578
 5113.00    1.40447   1.41107   99.883
 5114.00    1.41533   1.42235   99.062
 5115.00    1.42043   1.43185   98.126
 5116.00    1.41991   1.43880   97.931
 5117.00    1.41692   1.44252   98.800
 5118.00    1.40658   1.44231   -1.000
 5119.00    1.40865   1.43771  101.825
 5120.00    1.39727   1.42894   -1.000
 5121.00    1.37983   1.41689   -1.000
 5122.00    1.38324   1.40302  108.851
 5123.00    1.36800   1.38919  108.578
 5124.00    1.34689   1.37742   -1.000
 5125.00    1.34796   1.36896  107.238
 5126.00    1.35564   1.36414  107.043
 5127.00    1.37014   1.36251  107.074
 5128.00    1.37600   1.36356  106.231
 5129.00    1.36812   1.36685  104.570
 5130.00    1.37799   1.37200  103.307
 5131.00    1.39152   1.37842  102.405
 5132.00    1.38969   1.38518  101.466
 5133.00    1.37963   1.39119  100.932
 5134.00    1.38061   1.39520  101.858
 5135.00    1.38775   1.39602  104.111
 5136.00    1.38708   1.39301  106.173
 5137.00    1.38175   1.38677  106.967
 5138.00    1.35469   1.37891  106.446
 5139.00    1.33458   1.37158   -1.000
 5140.00    1.32770   1.36629   -1.000
 5141.00    1.33475   1.36366   -1.000
 5142.00    1.33377   1.36356   -1.000
 5143.00    1.32937   1.36529   -1.000
 5144.00    1.34292   1.36772  106.303
 5145.00    1.36420   1.36969  106.912
 5146.00    1.37508   1.37072  106.249
 5147.00    1.36757   1.37123  105.314
 5148.00    1.36650   1.37144  105.821
 5149.00    1.37226   1.37098  107.537
 5150.00    1.37063   1.36968  108.800
 5151.00    1.35803   1.36795  108.757
 5152.00    1.35689   1.36699  107.290
 5153.00    1.37509   1.36862  104.809
 5154.00    1.38313   1.37439  102.127
 5155.00    1.36761   1.38459   99.926
 5156.00    1.38028   1.39783   98.725
 5157.00    1.42485   1.41160   98.433
 5158.00    1.42752   1.42309   98.633
 5159.00    1.41317   1.43003   99.108
 5160.00    1.41466   1.43081  100.000
 5161.00    1.40687   1.42434  101.388
 5162.00    1.39601   1.40970  104.287
 5163.00    1.38845   1.38585  110.939
 5164.00    1.37934   1.35241   -1.000
 5165.00    1.35018   1.31172   -1.000
 5166.00    1.28980   1.26960  133.900
 5167.00    1.22722   1.23365  127.946
 5168.00    1.19835   1.20925  123.761
 5169.00    1.22810   1.19599   -1.000
 5170.00    1.26757   1.19072   -1.000
 5171.00    1.25861   1.19158   -1.000
 5172.00    1.24292   1.20033   -1.000
 5173.00    1.25220   1.22037   -1.000
 5174.00    1.29312   1.25163   -1.000
 5175.00    1.34329   1.28962   -1.000
 5176.00    1.39070   1.32672   -1.000
 5177.00    1.41490   1.35490   -1.000
 5178.00    1.41363   1.36833   -1.000
 5179.00    1.41421   1.36401   -1.000
 5180.00    1.41540   1.34274   -1.000
 5181.00    1.40697   1.30965   -1.000
 5182.00    1.34966   1.27445   -1.000
 5183.00    1.27560   1.24903  124.973
 5184.00    1.25627   1.24194  112.738
 5185.00    1.30830   1.25472   -1.000
 5186.00    1.35741   1.28122   -1.000
 5187.00    1.37481   1.31200   -1.000
 5188.00    1.38051   1.33874   -1.000
 5189.00    1.36995   1.35632  107.326
 5190.00    1.38027   1.36382  110.547
 5191.00    1.39176   1.36397   -1.000
 5192.00    1.36981   1.36105  109.701
 5193.00    1.35141   1.35903  107.946
 5194.00    1.34653   1.36036  106.368
 5195.00    1.37772   1.36583  104.462
 5196.00    1.40231   1.37525  102.538
 5197.00    1.41062   1.38740  101.341
 5198.00    1.43311   1.40008   -1.000
 5199.00    1.43580   1.41051  101.428
 5200.00    1.41182   1.41575  102.877
 5201.00    1.40304   1.41349  105.064
 5202.00    1.40349   1.40304  108.019
 5203.00    1.38859   1.38576  111.407
 5204.00    1.37805   1.36492  113.034
 5205.00    1.35951   1.34478  113.480
 5206.00    1.33980   1.32928  114.144
 5207.00    1.33785   1.32126  113.419
 5208.00    1.34969   1.32241  110.460
 5209.00    1.37276   1.33294   -1.000
 5210.00    1.38920   1.35137   -1.000
 5211.00    1.40273   1.37408   99.204
 5212.00    1.42162   1.39619   99.079
 5213.00    1.44341   1.41312   -1.000
 5214.00    1.44510   1.42278  102.744
 5215.00    1.41860   1.42670  102.694
 5216.00    1.40799   1.42878  100.954
 5217.00    1.41063   1.43297   99.130
 5218.00    1.41156   1.44085   98.093
 5219.00    1.43642   1.45112   97.575
 5220.00    1.46178   1.46020   98.187
 5221.00    1.45248   1.46387  100.540
 5222.00    1.45803   1.45884  104.311
 5223.00    1.45984   1.44394  109.010
 5224.00    1.42678   1.42120  112.892
 5225.00    1.39196   1.39633  112.591
 5226.00    1.36029   1.37657  107.649
 5227.00    1.34489   1.36777  102.537
 5228.00    1.36063   1.37095   99.830
 5229.00    1.40866   1.38239   99.096
 5230.00    1.43932   1.39600   -1.000
 5231.00    1.43239   1.40661  102.238
 5232.00    1.43056   1.41270  102.806
 5233.00    1.43363   1.41654  101.213
 5234.00    1.42622   1.42186   98.776
 5235.00    1.42430   1.43109   97.179
 5236.00    1.44968   1.44407   96.731
 5237.00    1.48335   1.45848   96.911
 5238.00    1.49555   1.47148   96.936
 5239.00    1.48670   1.48114   96.503
 5240.00    1.48181   1.48701   96.361
 5241.00    1.49462   1.48984   96.317
 5242.00    1.48817   1.49078   96.136
 5243.00    1.47458   1.49016   97.255
 5244.00    1.48273   1.48728   99.942
 5245.00    1.48912   1.48141  102.620
 5246.00    1.45893   1.47265  103.680
 5247.00    1.43537   1.46235  103.842
 5248.00    1.44849   1.45241  104.329
 5249.00    1.44641   1.44467  104.294
 5250.00    1.42825   1.44030  103.174
 5251.00    1.42200   1.43946  101.971
 5252.00    1.42067   1.44144  101.606
 5253.00    1.42843   1.44560  101.187
 5254.00    1.46122   1.45187   99.414
 5255.00    1.49109   1.46003   96.816
 5256.00    1.48893   1.46912   95.282
 5257.00    1.48852   1.47666   95.559
 5258.00    1.48794   1.47924   97.563
 5259.00    1.46806   1.47360  101.193
 5260.00    1.45455   1.45815  105.858
 5261.00    1.44564   1.43392  110.077
 5262.00    1.41735   1.40446  112.901
 5263.00    1.36747   1.37469  113.936
 5264.00    1.33635   1.34944  112.757
 5265.00    1.33953   1.33132  110.701
 5266.00    1.34811   1.32002   -1.000
 5267.00    1.35749   1.31362   -1.000
 5268.00    1.35273   1.31050   -1.000
 5269.00    1.33744   1.31161  110.568
 5270.00    1.33405   1.31865  105.012
 5271.00    1.34720   1.33196  102.707
 5272.00    1.38665   1.35025   -1.000
 5273.00    1.43469   1.37085   -1.000
 5274.00    1.45770   1.39172   -1.000
 5275.00    1.45082   1.41189   -1.000
 5276.00    1.44963   1.43096   95.609
 5277.00    1.47130   1.44782   95.345
 5278.00    1.47921   1.46006   97.060
 5279.00    1.46199   1.46569   99.572
 5280.00    1.46130   1.46442  101.690
 5281.00    1.46970   1.45856  102.677
 5282.00    1.48140   1.45243   -1.000
 5283.00    1.43554   1.45093   98.716
 5284.00    1.41625   1.45676   -1.000
 5285.00    1.46130   1.46967   94.038
 5286.00    1.50628   1.48657   94.152
 5287.00    1.51434   1.50368   94.360
 5288.00    1.51153   1.51804   93.988
 5289.00    1.52522   1.52796   93.644
 5290.00    1.52898   1.53315   93.929
 5291.00    1.53296   1.53410   94.716
 5292.00    1.51907   1.53095   95.851
 5293.00    1.49771   1.52348   97.970
 5294.00    1.49409   1.51149  101.371
 5295.00    1.48349   1.49556  104.570
 5296.00    1.47251   1.47830  105.144
 5297.00    1.46020   1.46340  103.104
 5298.00    1.45909   1.45404  100.879
 5299.00    1.46872   1.45193   99.807
 5300.00    1.47118   1.45653   98.826
 5301.00    1.48249   1.46629   96.657
 5302.00    1.49050   1.47909   94.541
 5303.00    1.50341   1.49241   93.777
 5304.00    1.52098   1.50432   94.311
 5305.00    1.53533   1.51361   95.201
 5306.00    1.53835   1.52014   95.098
 5307.00    1.53966   1.52496   94.193
 5308.00    1.53759   1.52913   93.442
 5309.00    1.51773   1.53315   93.297
 5310.00    1.52964   1.53645   93.686
 5311.00    1.54847   1.53772   94.147
 5312.00    1.53555   1.53579   94.728
 5313.00    1.52237   1.53032   95.585
 5314.00    1.51963   1.52218   96.478
 5315.00    1.51752   1.51360   96.802
 5316.00    1.51972   1.50708   96.327
 5317.00    1.51260   1.50422   95.787
 5318.00    1.50575   1.50449   95.877
 5319.00    1.50899   1.50565   96.459
 5320.00    1.50518   1.50489   97.440
 5321.00    1.50214   1.49977   98.964
 5322.00    1.49116   1.48952  100.192
 5323.00    1.45959   1.47471  100.472
 5324.00    1.43074   1.45659  102.197
 5325.00    1.45282   1.43640  107.499
 5326.00    1.47412   1.41620   -1.000
 5327.00    1.43899   1.40003   -1.000
 5328.00    1.40346   1.39205  104.588
 5329.00    1.39828   1.39518  100.165
 5330.00    1.43319   1.40869   98.426
 5331.00    1.47975   1.42893   -1.000
 5332.00    1.50367   1.45106   -1.000
 5333.00    1.50450   1.47065   -1.000
 5334.00    1.49801   1.48486   96.043
 5335.00    1.49311   1.49273   96.692
 5336.00    1.48142   1.49438   97.598
 5337.00    1.48119   1.49058   99.589
 5338.00    1.48972   1.48299  101.656
 5339.00    1.48432   1.47443  101.705
 5340.00    1.46900   1.46810   99.533
 5341.00    1.46044   1.46635   97.384
 5342.00    1.46967   1.46910   96.799
 5343.00    1.50338   1.47433   -1.000
 5344.00    1.53111   1.47929   -1.000
 5345.00    1.49608   1.48197   98.435
 5346.00    1.47833   1.48215   99.180
 5347.00    1.48756   1.48123   99.659
 5348.00    1.49429   1.48138   98.705
 5349.00    1.49741   1.48442   96.620
 5350.00    1.50053   1.49099   95.038
 5351.00    1.51717   1.50040   94.463
 5352.00    1.54094   1.51141   -1.000
 5353.00    1.56261   1.52285   -1.000
 5354.00    1.55751   1.53369   91.954
 5355.00    1.55879   1.54316   91.786
 5356.00    1.56342   1.55050   91.929
 5357.00    1.54445   1.55498   92.199
 5358.00    1.54552   1.55588   93.032
 5359.00    1.55443   1.55268   94.458
 5360.00    1.54289   1.54543   95.928
 5361.00    1.53651   1.53496   96.845
 5362.00    1.53189   1.52269   97.427
 5363.00    1.50504   1.51038   98.005
 5364.00    1.49709   1.49940   98.005
 5365.00    1.47963   1.49023   97.874
 5366.00    1.46780   1.48210   98.542
 5367.00    1.48570   1.47364  100.536
 5368.00    1.49670   1.46388   -1.000
 5369.00    1.48827   1.45367   -1.000
 5370.00    1.46576   1.44585  102.188
 5371.00    1.46718   1.44409   97.675
 5372.00    1.46691   1.45079   94.563
 5373.00    1.49047   1.46538   93.383
 5374.00    1.52432   1.48459   -1.000
 5375.00    1.55329   1.50377   -1.000
 5376.00    1.57428   1.51890   -1.000
 5377.00    1.56604   1.52789   -1.000
 5378.00    1.55899   1.53071   -1.000
 5379.00    1.55120   1.52880   95.843
 5380.00    1.53913   1.52418   96.469
 5381.00    1.53248   1.51902   96.568
 5382.00    1.52156   1.51529   96.225
 5383.00    1.51867   1.51437   95.367
 5384.00    1.52707   1.51651   94.887
 5385.00    1.52917   1.52060   95.140
 5386.00    1.53751   1.52463   95.919
 5387.00    1.54554   1.52646   97.227
 5388.00    1.52430   1.52472   98.466
 5389.00    1.52464   1.51932   99.111
 5390.00    1.53220   1.51117   99.268
 5391.00    1.50517   1.50167   99.478
 5392.00    1.49386   1.49200  100.085
 5393.00    1.49244   1.48259  101.234
 5394.00    1.49056   1.47357  103.075
 5395.00    1.49611   1.46538   -1.000
 5396.00    1.48673   1.45926   -1.000
 5397.00    1.47932   1.45679   98.629
 5398.00    1.49177   1.45867   -1.000
 5399.00    1.49549   1.46388   -1.000
 5400.00    1.49863   1.46963   -1.000
 5401.00    1.47957   1.47228  100.208
 5402.00    1.48402   1.46933  103.483
 5403.00    1.47825   1.46093  105.634
 5404.00    1.45972   1.44980  105.305
 5405.00    1.45279   1.43987  103.335
 5406.00    1.45549   1.43410  102.003
 5407.00    1.45574   1.43340  102.372
 5408.00    1.48531   1.43716   -1.000
 5409.00    1.50586   1.44411   -1.000
 5410.00    1.48881   1.45324   -1.000
 5411.00    1.49117   1.46382   96.402
 5412.00    1.50572   1.47511   -1.000
 5413.00    1.53441   1.48645   -1.000
 5414.00    1.55065   1.49716   -1.000
 5415.00    1.53935   1.50681   -1.000
 5416.00    1.52288   1.51510   95.170
 5417.00    1.51871   1.52167   95.975
 5418.00    1.53426   1.52605   96.685
 5419.00    1.55264   1.52783   96.583
 5420.00    1.54710   1.52687   96.166
 5421.00    1.53781   1.52367   96.974
 5422.00    1.53531   1.51934   98.067
 5423.00    1.51916   1.51538   97.601
 5424.00    1.51222   1.51291   96.075
 5425.00    1.51236   1.51167   95.763
 5426.00    1.50296   1.51028   97.742
 5427.00    1.51121   1.50702  100.824
 5428.00    1.52714   1.50126   -1.000
 5429.00    1.51594   1.49383  100.644
 5430.00    1.48770   1.48633  100.000
 5431.00    1.47224   1.48033  101.036
 5432.00    1.48212   1.47668  102.334
 5433.00    1.50169   1.47590  102.422
 5434.00    1.49488   1.47872  100.836
 5435.00    1.47621   1.48598   98.235
 5436.00    1.49247   1.49791   95.961
 5437.00    1.54086   1.51336   94.439
 5438.00    1.55461   1.52995   93.510
 5439.00    1.55975   1.54474   93.179
 5440.00    1.56790   1.55506   93.145
 5441.00    1.55334   1.55906   93.833
 5442.00    1.53537   1.55573   95.909
 5443.00    1.53927   1.54540   99.495
 5444.00    1.52242   1.53000  103.091
 5445.00    1.51156   1.51333  103.559
 5446.00    1.49775   1.50003  100.850
 5447.00    1.48049   1.49370   97.834
 5448.00    1.48146   1.49553   96.380
 5449.00    1.51379   1.50343   96.168
 5450.00    1.53665   1.51306   96.773
 5451.00    1.53910   1.51969   98.627
 5452.00    1.53929   1.52045  101.356
 5453.00    1.52534   1.51552  103.792
 5454.00    1.51226   1.50811  103.375
 5455.00    1.50318   1.50248  100.275
 5456.00    1.50036   1.50193   97.267
 5457.00    1.51314   1.50692   96.120
 5458.00    1.53652   1.51505   96.816
 5459.00    1.56306   1.52245   -1.000
 5460.00    1.57847   1.52608   -1.000
 5461.00    1.57582   1.52536   -1.000
 5462.00    1.55638   1.52211   -1.000
 5463.00    1.54113   1.51926   98.773
 5464.00    1.53706   1.51907   98.113
 5465.00    1.53340   1.52228   97.221
 5466.00    1.53466   1.52795   96.595
 5467.00    1.53826   1.53417   97.143
 5468.00    1.54352   1.53908   98.172
 5469.00    1.53781   1.54136   98.717
 5470.00    1.53459   1.54034   99.157
 5471.00    1.54567   1.53586  100.033
 5472.00    1.53421   1.52810  101.358
 5473.00    1.51819   1.51766  103.330
 5474.00    1.52068   1.50590  105.147
 5475.00    1.53724   1.49497   -1.000
 5476.00    1.51390   1.48735  102.254
 5477.00    1.48501   1.48476   99.907
 5478.00    1.49279   1.48737   99.942
 5479.00    1.51186   1.49389  101.131
 5480.00    1.53523   1.50230   -1.000
 5481.00    1.55784   1.51099   -1.000
 5482.00    1.54157   1.51921   97.974
 5483.00    1.52999   1.52666   96.787
 5484.00    1.52809   1.53298   97.254
 5485.00    1.52652   1.53753   98.582
 5486.00    1.53646   1.53999   99.408
 5487.00    1.55568   1.54067   99.557
 5488.00    1.56150   1.54059   99.042
 5489.00    1.55760   1.54085   98.304
 5490.00    1.55073   1.54199   97.842
 5491.00    1.54316   1.54379   97.908
 5492.00    1.54007   1.54551   98.014
 5493.00    1.55091   1.54632   98.006
 5494.00    1.54940   1.54573   98.518
 5495.00    1.56700   1.54372   99.245
 5496.00    1.57020   1.54069   -1.000
 5497.00    1.54869   1.53716   98.049
 5498.00    1.54065   1.53350   98.287
 5499.00    1.53917   1.52983   99.717
 5500.00    1.53732   1.52618  100.310
 5501.00    1.52787   1.52254   99.708
 5502.00    1.51816   1.51904   99.303
 5503.00    1.53687   1.51580  100.243
 5504.00    1.55436   1.51299   -1.000
 5505.00    1.52886   1.51083  100.974
 5506.00    1.50153   1.50968   99.475
 5507.00    1.50096   1.50982   98.707
 5508.00    1.50941   1.51097   99.102
 5509.00    1.53336   1.51221  100.727
 5510.00    1.54245   1.51243   -1.000
 5511.00    1.53332   1.51123  103.637
 5512.00    1.52505   1.50940  102.966
 5513.00    1.51442   1.50873  101.249
 5514.00    1.52411   1.51099   99.638
 5515.00    1.53683   1.51700   97.870
 5516.00    1.55559   1.52624   -1.000
 5517.00    1.57209   1.53712   -1.000
 5518.00    1.57939   1.54769   -1.000
 5519.00    1.57249   1.55631   95.845
 5520.00    1.57725   1.56195   96.142
 5521.00    1.58904   1.56410   96.357
 5522.00    1.58581   1.56252   96.819
 5523.00    1.56739   1.55709   97.952
 5524.00    1.55641   1.54798   99.989
 5525.00    1.55212   1.53616  102.534
 5526.00    1.53247   1.52374  103.684
 5527.00    1.51333   1.51368  102.122
 5528.00    1.50590   1.50863   99.463
 5529.00    1.51916   1.50973   97.804
 5530.00    1.52806   1.51583   97.652
 5531.00    1.56445   1.52414   -1.000
 5532.00    1.57569   1.53168   -1.000
 5533.00    1.56514   1.53680   -1.000
 5534.00    1.54945   1.53967   98.194
 5535.00    1.55423   1.54160   97.790
 5536.00    1.56717   1.54404   97.430
 5537.00    1.56091   1.54764   96.607
 5538.00    1.56681   1.55209   95.778
 5539.00    1.57054   1.55650   95.617
 5540.00    1.56312   1.55989   96.383
 5541.00    1.56572   1.56162   97.394
 5542.00    1.56516   1.56171   97.837
 5543.00    1.55756   1.56085   97.678
 5544.00    1.56135   1.56018   97.429
 5545.00    1.58143   1.56076   96.920
 5546.00    1.58934   1.56311   96.034
 5547.00    1.58164   1.56701   95.181
 5548.00    1.57638   1.57163   94.816
 5549.00    1.58406   1.57584   95.152
 5550.00    1.59012   1.57863   95.922
 5551.00    1.59099   1.57947   96.967
 5552.00    1.59277   1.57852   97.611
 5553.00    1.59236   1.57652   97.604
 5554.00    1.58192   1.57447   97.319
 5555.00    1.57015   1.57314   97.113
 5556.00    1.57054   1.57280   96.985
 5557.00    1.58886   1.57310   96.876
 5558.00    1.59918   1.57330   97.005
 5559.00    1.58278   1.57262   97.441
 5560.00    1.57312   1.57054   98.319
 5561.00    1.56374   1.56700   99.104
 5562.00    1.57112   1.56241   99.479
 5563.00    1.57561   1.55743   99.691
 5564.00    1.57558   1.55270   99.818
 5565.00    1.57085   1.54862   99.683
 5566.00    1.55844   1.54521   99.464
 5567.00    1.54993   1.54233   99.629
 5568.00    1.55117   1.53975   99.663
 5569.00    1.52642   1.53736   99.639
 5570.00    1.48104   1.53527   -1.000
 5571.00    1.30122   1.53378   -1.000
 5572.00    0.56984   1.53335   -1.000
 5573.00   -1.30649   1.53442    0.000
 5574.00   -3.39813   1.53717    0.000
 5575.00   -2.92600   1.54144    0.000
 5576.00    0.28193   1.54672   -1.000
 5577.00    4.39907   1.55231   -1.000
 5578.00    5.37441   1.55746   -1.000
 5579.00    3.45874   1.56145   -1.000
 5580.00    2.03754   1.56369   -1.000
 5581.00    1.65194   1.56367   -1.000
 5582.00    1.55888   1.56086   98.596
 5583.00    1.54977   1.55469  100.416
 5584.00    1.55385   1.54473  102.946
 5585.00    1.53404   1.53132  105.340
 5586.00    1.51506   1.51612  106.517
 5587.00    1.50393   1.50197  105.713
 5588.00    1.50797   1.49196  103.898
 5589.00    1.51147   1.48806  102.323
 5590.00    1.52190   1.49034   -1.000
 5591.00    1.53203   1.49704   -1.000
 5592.00    1.52935   1.50567  101.678
 5593.00    1.53658   1.51403  100.378
 5594.00    1.55514   1.52081   -1.000
 5595.00    1.54745   1.52540   99.907
 5596.00    1.54823   1.52750  101.523
 5597.00    1.55522   1.52702   -1.000
 5598.00    1.53803   1.52432  102.982
 5599.00    1.53550   1.52046  103.379
 5600.00    1.53993   1.51717  103.924
 5601.00    1.54407   1.51654   -1.000
 5602.00    1.53258   1.52036  100.106
 5603.00    1.52260   1.52947   97.680
 5604.00    1.56199   1.54324   96.278
 5605.00    1.59161   1.55960   -1.000
 5606.00    1.60202   1.57588   95.967
 5607.00    1.61662   1.58963   -1.000
 5608.00    1.63171   1.59934   -1.000
 5609.00    1.61806   1.60438   95.870
 5610.00    1.62054   1.60450   96.143
 5611.00    1.61133   1.59959   97.799
 5612.00    1.58245   1.58981  100.937
 5613.00    1.56091   1.57632  103.608
 5614.00    1.55197   1.56166  103.473
 5615.00    1.54241   1.54931  101.260
 5616.00    1.54077   1.54232   99.585
 5617.00    1.56204   1.54189   99.124
 5618.00    1.59543   1.54691   -1.000
 5619.00    1.59927   1.55456   -1.000
 5620.00    1.57394   1.56173   98.473
 5621.00    1.55118   1.56621  100.108
 5622.00    1.55654   1.56733  102.045
 5623.00    1.58661   1.56603  102.129
 5624.00    1.60025   1.56429   -1.000
 5625.00    1.57809   1.56420   99.072
 5626.00    1.57748   1.56710   97.871
 5627.00    1.57396   1.57294   97.062
 5628.00    1.59306   1.58048   96.702
 5629.00    1.59673   1.58785   96.350
 5630.00    1.60247   1.59336   96.336
 5631.00    1.63000   1.59600   -1.000
 5632.00    1.63790   1.59561   -1.000
 5633.00    1.59893   1.59273   98.326
 5634.00    1.58240   1.58826   99.027
 5635.00    1.60753   1.58321   99.716
 5636.00    1.60680   1.57842   -1.000
 5637.00    1.59596   1.57445   99.769
 5638.00    1.58559   1.57154  100.010
 5639.00    1.58325   1.56973  100.141
 5640.00    1.59738   1.56894   -1.000
 5641.00    1.58630   1.56913   99.364
 5642.00    1.57063   1.57026   99.141
 5643.00    1.57948   1.57225   98.569
 5644.00    1.60231   1.57483   -1.000
 5645.00    1.59957   1.57759   97.941
 5646.00    1.59162   1.58007   97.771
 5647.00    1.60152   1.58194   97.932
 5648.00    1.60313   1.58308   97.990
 5649.00    1.60320   1.58354   97.364
 5650.00    1.59275   1.58336   96.971
 5651.00    1.58847   1.58238   97.229
 5652.00    1.59712   1.58011   97.944
 5653.00    1.59465   1.57588   98.866
 5654.00    1.56970   1.56924  100.571
 5655.00    1.58684   1.56031   -1.000
 5656.00    1.58706   1.55010   -1.000
 5657.00    1.56089   1.54036  104.617
 5658.00    1.54816   1.53310  102.392
 5659.00    1.54032   1.52978  101.593
 5660.00    1.56532   1.53078   -1.000
 5661.00    1.58174   1.53540   -1.000
 5662.00    1.58630   1.54232   -1.000
 5663.00    1.60229   1.55014   -1.000
 5664.00    1.59768   1.55767   -1.000
 5665.00    1.60549   1.56405   -1.000
 5666.00    1.59514   1.56887   -1.000
 5667.00    1.59859   1.57229   -1.000
 5668.00    1.60427   1.57498   -1.000
 5669.00    1.60094   1.57779   98.411
 5670.00    1.60864   1.58129   -1.000
 5671.00    1.63659   1.58552   -1.000
 5672.00    1.63812   1.59001   -1.000
 5673.00    1.63882   1.59412   -1.000
 5674.00    1.64237   1.59732   -1.000
 5675.00    1.64024   1.59929   -1.000
 5676.00    1.64839   1.59986   -1.000
 5677.00    1.62752   1.59886   -1.000
 5678.00    1.62145   1.59602   -1.000
 5679.00    1.60681   1.59120   98.614
 5680.00    1.60600   1.58461   99.802
 5681.00    1.61506   1.57703   -1.000
 5682.00    1.63336   1.56964   -1.000
 5683.00    1.63643   1.56359   -1.000
 5684.00    1.63405   1.55953   -1.000
 5685.00    1.63855   1.55747   -1.000
 5686.00    1.62907   1.55703   -1.000
 5687.00    1.63234   1.55796   -1.000
 5688.00    1.64363   1.56039   -1.000
 5689.00    1.63249   1.56462   -1.000
 5690.00    1.64250   1.57063   -1.000
 5691.00    1.65075   1.57779   -1.000
 5692.00    1.64365   1.58503   -1.000
 5693.00    1.63974   1.59118   -1.000
 5694.00    1.63011   1.59534   -1.000
 5695.00    1.62078   1.59707   -1.000
 5696.00    1.62059   1.59630   -1.000
 5697.00    1.61951   1.59330   -1.000
 5698.00    1.59016   1.58865  100.814
 5699.00    1.57948   1.58319  101.401
 5700.00    1.58695   1.57787  100.854
 5701.00    1.59283   1.57346   99.819
 5702.00    1.57327   1.57015   99.420
 5703.00    1.54697   1.56742   99.943
 5704.00    1.56798   1.56424  101.248
 5705.00    1.57057   1.55957  103.080
 5706.00    1.56661   1.55297  104.760
 5707.00    1.56358   1.54504  105.547
 5708.00    1.55815   1.53735  105.428
 5709.00    1.55313   1.53200  104.474
 5710.00    1.53984   1.53088  102.490
 5711.00    1.53851   1.53490   99.995
 5712.00    1.55355   1.54368   98.284
 5713.00    1.58386   1.55560   -1.000
 5714.00    1.61313   1.56856   -1.000
 5715.00    1.63666   1.58072   -1.000
 5716.00    1.63282   1.59105   -1.000
 5717.00    1.62423   1.59946   -1.000
 5718.00    1.61472   1.60638   95.711
 5719.00    1.63426   1.61232   95.448
 5720.00    1.63465   1.61747   95.292
 5721.00    1.62531   1.62170   95.173
 5722.00    1.63197   1.62461   95.341
 5723.00    1.64592   1.62583   96.055
 5724.00    1.66188   1.62523   -1.000
 5725.00    1.65254   1.62310   -1.000
 5726.00    1.64314   1.62009   97.570
 5727.00    1.61774   1.61705   96.958
 5728.00    1.60778   1.61469   97.079
 5729.00    1.61613   1.61342   97.560
 5730.00    1.63673   1.61331   97.347
 5731.00    1.64144   1.61426   -1.000
 5732.00    1.64192   1.61614   -1.000
 5733.00    1.63447   1.61876   95.767
 5734.00    1.63316   1.62176   95.893
 5735.00    1.63345   1.62462   96.154
 5736.00    1.62251   1.62687   96.267
 5737.00    1.62874   1.62821   96.447
 5738.00    1.64211   1.62867   96.607
 5739.00    1.64440   1.62850   96.811
 5740.00    1.63391   1.62800   96.659
 5741.00    1.62870   1.62750   96.532
 5742.00    1.62229   1.62719   95.927
 5743.00    1.61692   1.62715   95.361
 5744.00    1.63647   1.62724   95.715
 5745.00    1.64693   1.62722   96.629
 5746.00    1.63215   1.62685   97.105
 5747.00    1.62557   1.62594   96.672
 5748.00    1.63628   1.62436   96.307
 5749.00    1.63874   1.62192   96.901
 5750.00    1.64270   1.61850   -1.000
 5751.00    1.63025   1.61435   99.070
 5752.00    1.62350   1.61035   99.211
 5753.00    1.63619   1.60783   -1.000
 5754.00    1.61359   1.60793   96.356
 5755.00    1.60177   1.61092   95.100
 5756.00    1.62479   1.61581   95.175
 5757.00    1.63812   1.62080   96.154
 5758.00    1.61721   1.62403   97.405
 5759.00    1.63458   1.62452   98.733
 5760.00    1.66905   1.62259   -1.000
 5761.00    1.64353   1.61970   -1.000
 5762.00    1.61497   1.61778   96.838
 5763.00    1.62652   1.61833   95.553
 5764.00    1.62780   1.62175   95.129
 5765.00    1.63220   1.62720   95.019
 5766.00    1.63492   1.63314   94.870
 5767.00    1.62750   1.63801   95.005
 5768.00    1.63317   1.64079   95.310
 5769.00    1.62659   1.64127   95.810
 5770.00    1.64701   1.63976   96.402
 5771.00    1.65601   1.63692   96.700
 5772.00    1.64302   1.63352   96.830
 5773.00    1.63416   1.63020   96.677
 5774.00    1.63887   1.62735   96.227
 5775.00    1.60433   1.62484   96.067
 5776.00    1.56844   1.62210   -1.000
 5777.00    1.55999   1.61831   -1.000
 5778.00    1.57049   1.61291   -1.000
 5779.00    1.55220   1.60603   -1.000
 5780.00    1.54231   1.59856   -1.000
 5781.00    1.56082   1.59188  100.784
 5782.00    1.59816   1.58726  100.417
 5783.00    1.61811   1.58545   -1.000
 5784.00    1.61356   1.58652   -1.000
 5785.00    1.62180   1.59001   -1.000
 5786.00    1.61559   1.59506   96.908
 5787.00    1.59470   1.60070   96.892
 5788.00    1.61966   1.60603   97.297
 5789.00    1.63913   1.61052   -1.000
 5790.00    1.64839   1.61422   -1.000
 5791.00    1.64774   1.61763   -1.000
 5792.00    1.62763   1.62129   95.252
 5793.00    1.61369   1.62535   95.106
 5794.00    1.61384   1.62948   95.588
 5795.00    1.62469   1.63311   96.208
 5796.00    1.63921   1.63588   95.919
 5797.00    1.65076   1.63792   94.789
 5798.00    1.64432   1.63965   93.484
 5799.00    1.65831   1.64147   93.097
 5800.00    1.68345   1.64336   -1.000
 5801.00    1.68801   1.64487   -1.000
 5802.00    1.67163   1.64548   -1.000
 5803.00    1.66768   1.64497   -1.000
 5804.00    1.64249   1.64365   95.625
 5805.00    1.64489   1.64222   95.273
 5806.00    1.66302   1.64141   94.975
 5807.00    1.67873   1.64161   -1.000
 5808.00    1.67310   1.64273   -1.000
 5809.00    1.68118   1.64433   -1.000
 5810.00    1.67420   1.64578   -1.000
 5811.00    1.67355   1.64654   -1.000
 5812.00    1.66333   1.64629   95.065
 5813.00    1.67511   1.64511   -1.000
 5814.00    1.69060   1.64352   -1.000
 5815.00    1.68846   1.64231   -1.000
 5816.00    1.66084   1.64224   94.025
 5817.00    1.65653   1.64369   93.557
 5818.00    1.67947   1.64647   -1.000
 5819.00    1.68128   1.64993   -1.000
 5820.00    1.69099   1.65329   -1.000
 5821.00    1.70204   1.65602   -1.000
 5822.00    1.69922   1.65797   -1.000
 5823.00    1.69138   1.65927   -1.000
 5824.00    1.69046   1.66017   -1.000
 5825.00    1.69461   1.66091   -1.000
 5826.00    1.70197   1.66161   -1.000
 5827.00    1.69756   1.66230   -1.000
 5828.00    1.71637   1.66286   -1.000
 5829.00    1.71430   1.66315   -1.000
 5830.00    1.69886   1.66308   -1.000
 5831.00    1.68594   1.66262   -1.000
 5832.00    1.69296   1.66187   -1.000
 5833.00    1.68577   1.66107   -1.000
 5834.00    1.68972   1.66050   -1.000
 5835.00    1.70021   1.66040   -1.000
 5836.00    1.69342   1.66086   -1.000
 5837.00    1.70605   1.66176   -1.000
 5838.00    1.72225   1.66286   -1.000
 5839.00    1.71844   1.66389   -1.000
 5840.00    1.70793   1.66457   -1.000
 5841.00    1.69989   1.66466   -1.000
 5842.00    1.68466   1.66396   93.180
 5843.00    1.67302   1.66236   93.770
 5844.00    1.67516   1.65993   94.264
 5845.00    1.68285   1.65693   -1.000
 5846.00    1.68776   1.65370   -1.000
 5847.00    1.70288   1.65048   -1.000
 5848.00    1.68785   1.64721   -1.000
 5849.00    1.66020   1.64355   95.902
 5850.00    1.68079   1.63904   -1.000
 5851.00    1.68073   1.63339   -1.000
 5852.00    1.66503   1.62660   -1.000
 5853.00    1.65882   1.61893   -1.000
 5854.00    1.65231   1.61087   -1.000
 5855.00    1.65137   1.60308   -1.000
 5856.00    1.65019   1.59649   -1.000
 5857.00    1.66941   1.59222   -1.000
 5858.00    1.67429   1.59124   -1.000
 5859.00    1.66905   1.59387   -1.000
 5860.00    1.66940   1.59948   -1.000
 5861.00    1.68043   1.60667   -1.000
 5862.00    1.65567   1.61383   -1.000
 5863.00    1.64570   1.61970   -1.000
 5864.00    1.65264   1.62375   -1.000
 5865.00    1.69491   1.62621   -1.000
 5866.00    1.72346   1.62787   -1.000
 5867.00    1.69354   1.62971   -1.000
 5868.00    1.68671   1.63235   -1.000
 5869.00    1.69656   1.63578   -1.000
 5870.00    1.70051   1.63932   -1.000
 5871.00    1.71783   1.64205   -1.000
 5872.00    1.71975   1.64326   -1.000
 5873.00    1.68495   1.64277   -1.000
 5874.00    1.70695   1.64088   -1.000
 5875.00    1.71750   1.63810   -1.000
 5876.00    1.68210   1.63487   -1.000
 5877.00    1.67193   1.63138   -1.000
 5878.00    1.67885   1.62761   -1.000
 5879.00    1.67624   1.62341   -1.000
 5880.00    1.66839   1.61853   -1.000
 5881.00    1.66317   1.61266   -1.000
 5882.00    1.64629   1.60522   -1.000
 5883.00    1.57958   1.59520   97.675
 5884.00    1.43409   1.58111   -1.000
 5885.00    1.10718   1.56126   -1.000
 5886.00    0.70698   1.53467   -1.000
 5887.00    0.85222   1.50228   -1.000
 5888.00    1.05210   1.46754   -1.000
 5889.00    1.45931   1.43585   -1.000
 5890.00    1.85354   1.41222   -1.000
 5891.00    1.58327   1.39897   -1.000
 5892.00    1.08488   1.39486   -1.000
 5893.00    0.90521   1.39650   -1.000
 5894.00    1.11040   1.40101   -1.000
 5895.00    1.54363   1.40792   -1.000
 5896.00    1.67066   1.41889   -1.000
 5897.00    1.65206   1.43590   -1.000
 5898.00    1.67558   1.45925   -1.000
 5899.00    1.65918   1.48703   -1.000
 5900.00    1.66058   1.51589   -1.000
 5901.00    1.65856   1.54254   -1.000
 5902.00    1.66191   1.56481   -1.000
 5903.00    1.67352   1.58193   -1.000
 5904.00    1.68573   1.59426   -1.000
 5905.00    1.70296   1.60280   -1.000
 5906.00    1.70868   1.60870   -1.000
 5907.00    1.68608   1.61283   -1.000
 5908.00    1.67062   1.61562   -1.000
 5909.00    1.67781   1.61709   -1.000
 5910.00    1.66107   1.61706   -1.000
 5911.00    1.63629   1.61539   99.466
 5912.00    1.64834   1.61232   -1.000
 5913.00    1.67669   1.60855   -1.000
 5914.00    1.68359   1.60514   -1.000
 5915.00    1.69567   1.60318   -1.000
 5916.00    1.66883   1.60329   -1.000
 5917.00    1.65343   1.60544   -1.000
 5918.00    1.67418   1.60898   -1.000
 5919.00    1.68589   1.61299   -1.000
 5920.00    1.66769   1.61668   -1.000
 5921.00    1.68637   1.61965   -1.000
 5922.00    1.69789   1.62192   -1.000
 5923.00    1.68611   1.62364   -1.000
 5924.00    1.69723   1.62488   -1.000
 5925.00    1.70548   1.62546   -1.000
 5926.00    1.68766   1.62509   -1.000
 5927.00    1.68628   1.62370   -1.000
 5928.00    1.67892   1.62161   -1.000
 5929.00    1.65443   1.61953   -1.000
 5930.00    1.65281   1.61824   -1.000
 5931.00    1.68762   1.61820   -1.000
 5932.00    1.73019   1.61940   -1.000
 5933.00    1.70639   1.62149   -1.000
 5934.00    1.71139   1.62403   -1.000
 5935.00    1.68530   1.62664   -1.000
 5936.00    1.67685   1.62900   -1.000
 5937.00    1.66527   1.63070   -1.000
 5938.00    1.68495   1.63143   -1.000
 5939.00    1.67640   1.63108   -1.000
 5940.00    1.65617   1.62996   -1.000
 5941.00    1.70267   1.62863   -1.000
 5942.00    1.70171   1.62761   -1.000
 5943.00    1.68881   1.62711   -1.000
 5944.00    1.67614   1.62694   -1.000
 5945.00    1.68393   1.62666   -1.000
 5946.00    1.71421   1.62595   -1.000
 5947.00    1.68900   1.62477   -1.000
 5948.00    1.66911   1.62339   -1.000
 5949.00    1.65288   1.62215   -1.000
 5950.00    1.63093   1.62126   99.321
 5951.00    1.63674   1.62071   99.272
 5952.00    1.67157   1.62033   -1.000
 5953.00    1.69791   1.62002   -1.000
 5954.00    1.68882   1.61983   -1.000
 5955.00    1.67685   1.61999   -1.000
 5956.00    1.67696   1.62086   -1.000
 5957.00    1.67416   1.62276   -1.000
 5958.00    1.69542   1.62579   -1.000
 5959.00    1.71230   1.62970   -1.000
 5960.00    1.70516   1.63387   -1.000
 5961.00    1.69205   1.63749   -1.000
 5962.00    1.69117   1.63996   -1.000
 5963.00    1.69131   1.64106   -1.000
 5964.00    1.67030   1.64104   -1.000
 5965.00    1.66196   1.64052   97.923
 5966.00    1.67246   1.64018   -1.000
 5967.00    1.68735   1.64055   -1.000
 5968.00    1.69042   1.64175   -1.000
 5969.00    1.69271   1.64349   -1.000
 5970.00    1.71615   1.64512   -1.000
 5971.00    1.71560   1.64591   -1.000
 5972.00    1.68267   1.64526   -1.000
 5973.00    1.65997   1.64302   98.578
 5974.00    1.65872   1.63953   99.284
 5975.00    1.66532   1.63564   -1.000
 5976.00    1.67798   1.63236   -1.000
 5977.00    1.66720   1.63045   -1.000
 5978.00    1.67665   1.63007   -1.000
 5979.00    1.68435   1.63066   -1.000
 5980.00    1.68939   1.63124   -1.000
 5981.00    1.68708   1.63089   -1.000
 5982.00    1.67931   1.62934   -1.000
 5983.00    1.67372   1.62705   -1.000
 5984.00    1.69108   1.62502   -1.000
 5985.00    1.69025   1.62425   -1.000
 5986.00    1.67177   1.62521   -1.000
 5987.00    1.66243   1.62773   -1.000
 5988.00    1.68614   1.63119   -1.000
 5989.00    1.69446   1.63494   -1.000
 5990.00    1.67173   1.63851   -1.000
 5991.00    1.67495   1.64170   -1.000
 5992.00    1.67458   1.64439   -1.000
 5993.00    1.68381   1.64638   -1.000
 5994.00    1.68244   1.64741   -1.000
 5995.00    1.69004   1.64732   -1.000
 5996.00    1.70030   1.64622   -1.000
 5997.00    1.69553   1.64451   -1.000
 5998.00    1.71580   1.64262   -1.000
 5999.00    1.68958   1.64086   -1.000
 6000.00    1.66308   1.63923   -1.000
 6001.00    1.67764   1.63761   -1.000
 6002.00    1.65976   1.63581   -1.000
 6003.00    1.63659   1.63373   99.071
 6004.00    1.65361   1.63133   -1.000
 6005.00    1.67163   1.62874   -1.000
 6006.00    1.66729   1.62626   -1.000
 6007.00    1.65605   1.62445   -1.000
 6008.00    1.64951   1.62382   -1.000
 6009.00    1.65333   1.62459   -1.000
 6010.00    1.65785   1.62644   -1.000
 6011.00    1.65242   1.62859   -1.000
 6012.00    1.67859   1.63024   -1.000
 6013.00    1.67638   1.63092   -1.000
 6014.00    1.66322   1.63059   -1.000
 6015.00    1.65743   1.62949   -1.000
 6016.00    1.67232   1.62786   -1.000
 6017.00    1.68339   1.62590   -1.000
 6018.00    1.67213   1.62375   -1.000
 6019.00    1.68945   1.62169   -1.000
 6020.00    1.66719   1.62015   -1.000
 6021.00    1.64052   1.61964   -1.000
 6022.00    1.66012   1.62063   -1.000
 6023.00    1.68914   1.62333   -1.000
 6024.00    1.70050   1.62764   -1.000
 6025.00    1.68839   1.63318   -1.000
 6026.00    1.67450   1.63941   -1.000
 6027.00    1.67848   1.64571   -1.000
 6028.00    1.68681   1.65157   -1.000
 6029.00    1.70284   1.65671   -1.000
 6030.00    1.69274   1.66098   -1.000
 6031.00    1.68566   1.66439   -1.000
 6032.00    1.70036   1.66704   -1.000
 6033.00    1.70088   1.66901   -1.000
 6034.00    1.70995   1.67027   -1.000
 6035.00    1.72023   1.67076   -1.000
 6036.00    1.72386   1.67042   -1.000
 6037.00    1.72880   1.66927   -1.000
 6038.00    1.71489   1.66750   -1.000
 6039.00    1.69193   1.66550   -1.000
 6040.00    1.69530   1.66375   -1.000
 6041.00    1.69626   1.66277   -1.000
 6042.00    1.70045   1.66292   -1.000
 6043.00    1.69855   1.66427   -1.000
 6044.00    1.68558   1.66665   -1.000
 6045.00    1.68372   1.66966   95.908
 6046.00    1.69869   1.67280   -1.000
 6047.00    1.70730   1.67563   -1.000
 6048.00    1.71118   1.67773   -1.000
 6049.00    1.69584   1.67878   96.635
 6050.00    1.67999   1.67857   96.815
 6051.00    1.69999   1.67706   -1.000
 6052.00    1.69830   1.67438   -1.000
 6053.00    1.68342   1.67097   98.039
 6054.00    1.68791   1.66748   -1.000
 6055.00    1.68818   1.66465   -1.000
 6056.00    1.68657   1.66301   -1.000
 6057.00    1.67878   1.66267   97.186
 6058.00    1.67352   1.66320   97.274
 6059.00    1.67205   1.66376   97.495
 6060.00    1.61663   1.66339   -1.000
 6061.00    1.62065   1.66144  100.772
 6062.00    1.44866   1.65792   -1.000
 6063.00    0.65994   1.65361   -1.000
 6064.00    1.43894   1.64987   -1.000
 6065.00    1.63134   1.64816   74.327
 6066.00    1.61322   1.64937   99.953
 6067.00    1.49198   1.65352   -1.000
 6068.00    1.44448   1.65972   -1.000
 6069.00    0.49240   1.66664   -1.000
 6070.00    1.29933   1.67303   -1.000
 6071.00    1.70987   1.67801   -1.000
 6072.00    1.70484   1.68119   -1.000
 6073.00    1.69920   1.68252   96.746
 6074.00    1.69976   1.68209   -1.000
 6075.00    1.69753   1.68005   -1.000
 6076.00    1.71115   1.67667   -1.000
 6077.00    1.70344   1.67239   -1.000
 6078.00    1.66971   1.66777   99.243
 6079.00    1.68086   1.66335   99.329
 6080.00    1.67864   1.65955   -1.000
 6081.00    1.66746   1.65658   99.615
 6082.00    1.66961   1.65451   99.542
 6083.00    1.66365   1.65342   99.438
 6084.00    1.66423   1.65328   99.156
 6085.00    1.66000   1.65398   98.759
 6086.00    1.67048   1.65526   98.927
 6087.00    1.68371   1.65670   -1.000
 6088.00    1.67490   1.65790   99.949
 6089.00    1.65674   1.65871   99.917
 6090.00    1.66358   1.65930   99.296
 6091.00    1.66380   1.66005   98.792
 6092.00    1.66751   1.66136   98.235
 6093.00    1.66902   1.66338   97.803
 6094.00    1.67912   1.66583   97.820
 6095.00    1.69355   1.66809   -1.000
 6096.00    1.70516   1.66921   -1.000
 6097.00    1.69345   1.66821   -1.000
 6098.00    1.67504   1.66436   99.264
 6099.00    1.66439   1.65757  101.665
 6100.00    1.67038   1.64866   -1.000
 6101.00    1.65940   1.63945   -1.000
 6102.00    1.65029   1.63225  100.769
 6103.00    1.65299   1.62908   -1.000
 6104.00    1.66430   1.63080   -1.000
 6105.00    1.68379   1.63685   -1.000
 6106.00    1.67541   1.64555   -1.000
 6107.00    1.67029   1.65490   99.414
 6108.00    1.66945   1.66325   99.203
 6109.00    1.67107   1.66976   98.773
 6110.00    1.68770   1.67441   98.736
 6111.00    1.69564   1.67757   -1.000
 6112.00    1.70125   1.67960   -1.000
 6113.00    1.69214   1.68071   98.338
 6114.00    1.66994   1.68082   98.985
 6115.00    1.66822   1.67963   99.144
 6116.00    1.67886   1.67662   99.610
 6117.00    1.66327   1.67127  101.024
 6118.00    1.64975   1.66337  102.349
 6119.00    1.66692   1.65330  103.338
 6120.00    1.65909   1.64233  103.454
 6121.00    1.63483   1.63233  101.835
 6122.00    1.63853   1.62534  100.502
 6123.00    1.64302   1.62281   -1.000
 6124.00    1.62547   1.62504  100.997
 6125.00    1.63956   1.63115  100.898
 6126.00    1.67855   1.63951   -1.000
 6127.00    1.67356   1.64838   -1.000
 6128.00    1.66589   1.65652   98.930
 6129.00    1.66886   1.66311   98.698
 6130.00    1.65423   1.66754   98.878
 6131.00    1.65544   1.66897   99.793
 6132.00    1.62998   1.66649  102.017
 6133.00    1.60906   1.65952   -1.000
 6134.00    1.60444   1.64838   -1.000
 6135.00    1.61937   1.63475  108.097
 6136.00    1.61955   1.62126  105.473
 6137.00    1.59691   1.61070  102.480
 6138.00    1.61232   1.60516  101.284
 6139.00    1.61572   1.60542  101.429
 6140.00    1.61296   1.61090  101.602
 6141.00    1.63390   1.62015  100.610
 6142.00    1.64803   1.63106   -1.000
 6143.00    1.65118   1.64168   99.218
 6144.00    1.66523   1.65064   99.664
 6145.00    1.68976   1.65681   -1.000
 6146.00    1.68943   1.65981   -1.000
 6147.00    1.65127   1.66005  101.617
 6148.00    1.66478   1.65848  101.641
 6149.00    1.67513   1.65631   -1.000
 6150.00    1.66462   1.65440  100.572
 6151.00    1.65127   1.65309  100.433
 6152.00    1.65501   1.65216  101.267
 6153.00    1.67531   1.65101   -1.000
 6154.00    1.65362   1.64891  101.881
 6155.00    1.66976   1.64516   -1.000
 6156.00    1.65178   1.63898  103.372
 6157.00    1.64032   1.62980  105.333
 6158.00    1.62047   1.61743  108.516
 6159.00    1.62709   1.60229   -1.000
 6160.00    1.60678   1.58581   -1.000
 6161.00    1.61920   1.57036   -1.000
 6162.00    1.59758   1.55862   -1.000
 6163.00    1.58687   1.55237   -1.000
 6164.00    1.58835   1.55194   -1.000
 6165.00    1.60475   1.55590   -1.000
 6166.00    1.60298   1.56202   -1.000
 6167.00    1.61170   1.56822   -1.000
 6168.00    1.61398   1.57361   -1.000
 6169.00    1.61156   1.57874   -1.000
 6170.00    1.62977   1.58467   -1.000
 6171.00    1.64210   1.59213   -1.000
 6172.00    1.62854   1.60107   -1.000
 6173.00    1.61378   1.61074  104.267
 6174.00    1.63754   1.61992  104.068
 6175.00    1.66260   1.62773   -1.000
 6176.00    1.65135   1.63405  103.274
 6177.00    1.65666   1.63910  102.898
 6178.00    1.66282   1.64330   -1.000
 6179.00    1.67523   1.64694   -1.000
 6180.00    1.66092   1.65010  101.832
 6181.00    1.64880   1.65257  102.034
 6182.00    1.65768   1.65394  102.394
 6183.00    1.66135   1.65381  103.213
 6184.00    1.64899   1.65182  104.346
 6185.00    1.62737   1.64782  105.424
 6186.00    1.63367   1.64195  106.427
 6187.00    1.65211   1.63469  107.197
 6188.00    1.64914   1.62689   -1.000
 6189.00    1.63699   1.61966  109.303
 6190.00    1.62342   1.61428  108.087
 6191.00    1.63626   1.61192   -1.000
 6192.00    1.62763   1.61314  103.674
 6193.00    1.61338   1.61765  103.034
 6194.00    1.62822   1.62439  102.882
 6195.00    1.64226   1.63175  103.557
 6196.00    1.63738   1.63805  104.769
 6197.00    1.63799   1.64242  105.621
 6198.00    1.63239   1.64501  105.519
 6199.00    1.62095   1.64661  104.443
 6200.00    1.62115   1.64820  103.126
 6201.00    1.65193   1.65059  102.845
 6202.00    1.66059   1.65408  102.854
 6203.00    1.64789   1.65842  102.677
 6204.00    1.66995   1.66291  102.675
 6205.00    1.68296   1.66669  103.079
 6206.00    1.66815   1.66904  103.064
 6207.00    1.64152   1.66944  103.527
 6208.00    1.65382   1.66757  104.485
 6209.00    1.66048   1.66331  105.297
 6210.00    1.62862   1.65683  106.335
 6211.00    1.62828   1.64867  107.969
 6212.00    1.64438   1.63970  109.048
 6213.00    1.62377   1.63103  109.329
 6214.00    1.57683   1.62361   -1.000
 6215.00    1.56607   1.61806   -1.000
 6216.00    1.58427   1.61454  108.205
 6217.00    1.59523   1.61287  107.784
 6218.00    1.57551   1.61272   -1.000
 6219.00    1.59264   1.61380  107.669
 6220.00    1.53243   1.61590   -1.000
 6221.00    1.51086   1.61872   -1.000
 6222.00    1.65668   1.62176   -1.000
 6223.00    1.66442   1.62427   -1.000
 6224.00    1.65721   1.62537   -1.000
 6225.00    1.64488   1.62432   -1.000
 6226.00    1.62245   1.62085  108.589
 6227.00    1.62926   1.61523  110.401
 6228.00    1.64310   1.60827   -1.000
 6229.00    1.60859   1.60137  111.308
 6230.00    1.57847   1.59612  109.693
 6231.00    1.57196   1.59382  107.608
 6232.00    1.58759   1.59497  105.863
 6233.00    1.57961   1.59898  105.388
 6234.00    1.62631   1.60434   -1.000
 6235.00    1.65145   1.60921   -1.000
 6236.00    1.66958   1.61220   -1.000
 6237.00    1.61219   1.61273  109.436
 6238.00    1.62280   1.61104  109.880
 6239.00    1.62657   1.60773  109.835
 6240.00    1.59676   1.60346  110.656
 6241.00    1.61119   1.59873  111.381
 6242.00    1.63850   1.59399   -1.000
 6243.00    1.65527   1.58983   -1.000
 6244.00    1.61066   1.58699   -1.000
 6245.00    1.61043   1.58618   -1.000
 6246.00    1.60947   1.58772   -1.000
 6247.00    1.59203   1.59115  106.860
 6248.00    1.60853   1.59523  107.865
 6249.00    1.61088   1.59836  109.882
 6250.00    1.59718   1.59916  111.225
 6251.00    1.58851   1.59706  111.981
 6252.00    1.57111   1.59258  112.289
 6253.00    1.53870   1.58712   -1.000
 6254.00    1.53311   1.58224   -1.000
 6255.00    1.51820   1.57915   -1.000
 6256.00    1.57333   1.57843  113.781
 6257.00    1.61602   1.58014   -1.000
 6258.00    1.62713   1.58409   -1.000
 6259.00    1.62425   1.58995   -1.000
 6260.00    1.60584   1.59730  107.181
 6261.00    1.60181   1.60545  106.661
 6262.00    1.60989   1.61356  107.524
 6263.00    1.60711   1.62082  108.235
 6264.00    1.61461   1.62671  107.738
 6265.00    1.60745   1.63104  106.950
 6266.00    1.61762   1.63389  107.342
 6267.00    1.62350   1.63552  107.887
 6268.00    1.63375   1.63612  107.738
 6269.00    1.62353   1.63571  107.364
 6270.00    1.61182   1.63416  107.113
 6271.00    1.61133   1.63128  107.401
 6272.00    1.61627   1.62692  108.190
 6273.00    1.61275   1.62091  109.064
 6274.00    1.57193   1.61325   -1.000
 6275.00    1.52443   1.60445   -1.000
 6276.00    1.50724   1.59553   -1.000
 6277.00    1.49474   1.58801   -1.000
 6278.00    1.53841   1.58329   -1.000
 6279.00    1.51550   1.58228   -1.000
 6280.00    1.49326   1.58518   -1.000
 6281.00    1.50516   1.59146   -1.000
 6282.00    1.52401   1.60014   -1.000
 6283.00    1.54093   1.60993   -1.000
 6284.00    1.55402   1.61934   -1.000
 6285.00    1.58530   1.62723   -1.000
 6286.00    1.61773   1.63287  106.256
 6287.00    1.63444   1.63606  106.833
 6288.00    1.64689   1.63702  107.748
 6289.00    1.62819   1.63624  108.548
 6290.00    1.61898   1.63431  108.753
 6291.00    1.60413   1.63168  108.870
 6292.00    1.59704   1.62874  109.065
 6293.00    1.59315   1.62559  109.922
 6294.00    1.57711   1.62211   -1.000
 6295.00    1.58054   1.61819  110.805
 6296.00    1.63364   1.61389   -1.000
 6297.00    1.72496   1.60955   -1.000
 6298.00    1.80538   1.60573   -1.000
 6299.00    1.88292   1.60320   -1.000
 6300.00    1.84853   1.60264   -1.000
 6301.00    1.70118   1.60443   -1.000
 6302.00    1.62099   1.60859  109.164
 6303.00    1.58041   1.61480  107.831
 6304.00    1.57196   1.62244   -1.000
 6305.00    1.60234   1.63045  105.938
 6306.00    1.65992   1.63751   -1.000
 6307.00    1.66410   1.64271   -1.000
 6308.00    1.65472   1.64577  106.982
 6309.00    1.63088   1.64675  107.388
 6310.00    1.61500   1.64585  107.832
 6311.00    1.59880   1.64341   -1.000
 6312.00    1.60288   1.63978  108.943
 6313.00    1.58979   1.63534   -1.000
 6314.00    1.58397   1.63073   -1.000
 6315.00    1.58870   1.62664  109.138
 6316.00    1.58782   1.62390  109.296
 6317.00    1.59174   1.62321  108.885
 6318.00    1.57118   1.62488   -1.000
 6319.00    1.59262   1.62885  106.504
 6320.00    1.63913   1.63465  106.103
 6321.00    1.64935   1.64161  105.748
 6322.00    1.62959   1.64881  105.170
 6323.00    1.64262   1.65538  104.844
 6324.00    1.65690   1.66084  104.791
 6325.00    1.65495   1.66514  104.255
 6326.00    1.62096   1.66816   -1.000
 6327.00    1.61704   1.66985   -1.000
 6328.00    1.61589   1.67042   -1.000
 6329.00    1.65337   1.67000  104.122
 6330.00    1.69750   1.66858   -1.000
 6331.00    1.70619   1.66597   -1.000
 6332.00    1.62407   1.66208  104.504
 6333.00    1.60505   1.65721   -1.000
 6334.00    1.63208   1.65206  107.204
 6335.00    1.64218   1.64758  106.287
 6336.00    1.63469   1.64489  105.201
 6337.00    1.62869   1.64473  104.038
 6338.00    1.64983   1.64716  103.541
 6339.00    1.64821   1.65138  103.032
 6340.00    1.65298   1.65599  103.121
 6341.00    1.65533   1.65985  104.073
 6342.00    1.65639   1.66249  104.208
 6343.00    1.66246   1.66395  103.915
 6344.00    1.67021   1.66485  103.346
 6345.00    1.65146   1.66612  102.616
 6346.00    1.64199   1.66839  102.232
 6347.00    1.67630   1.67182  102.261
 6348.00    1.70628   1.67589   -1.000
 6349.00    1.68396   1.67977  102.133
 6350.00    1.66984   1.68255  102.580
 6351.00    1.67417   1.68342  103.051
 6352.00    1.64320   1.68221  104.255
 6353.00    1.64575   1.67923  105.151
 6354.00    1.65348   1.67503  105.185
 6355.00    1.63396   1.67022  105.497
 6356.00    1.65073   1.66533  106.723
 6357.00    1.64627   1.66073  107.165
 6358.00    1.64304   1.65662  106.720
 6359.00    1.64376   1.65303  106.379
 6360.00    1.66167   1.65019  106.284
 6361.00    1.71588   1.64848   -1.000
 6362.00    1.74513   1.64804   -1.000
 6363.00    1.76007   1.64888   -1.000
 6364.00    1.74368   1.65100   -1.000
 6365.00    1.69794   1.65414   -1.000
 6366.00    1.67881   1.65786   -1.000
 6367.00    1.67505   1.66163  102.361
 6368.00    1.67332   1.66509  102.440
 6369.00    1.67522   1.66819  102.086
 6370.00    1.69651   1.67092   -1.000
 6371.00    1.69715   1.67336   -1.000
 6372.00    1.67609   1.67560  102.038
 6373.00    1.66980   1.67745  102.261
 6374.00    1.67080   1.67847  102.645
 6375.00    1.63764   1.67832  103.171
 6376.00    1.61116   1.67690   -1.000
 6377.00    1.64282   1.67450  104.271
 6378.00    1.64685   1.67166  104.335
 6379.00    1.64008   1.66889  104.540
 6380.00    1.64075   1.66671  104.508
 6381.00    1.61650   1.66539   -1.000
 6382.00    1.61467   1.66507   -1.000
 6383.00    1.62548   1.66571  104.959
 6384.00    1.62278   1.66710  104.864
 6385.00    1.64665   1.66879  105.192
 6386.00    1.67276   1.67025  105.530
 6387.00    1.63823   1.67090  106.418
 6388.00    1.60739   1.67025   -1.000
 6389.00    1.60014   1.66813   -1.000
 6390.00    1.58869   1.66490   -1.000
 6391.00    1.58260   1.66122   -1.000
 6392.00    1.58700   1.65783   -1.000
 6393.00    1.58423   1.65526   -1.000
 6394.00    1.55604   1.65391   -1.000
 6395.00    1.54953   1.65373   -1.000
 6396.00    1.53369   1.65415   -1.000
 6397.00    1.53540   1.65449   -1.000
 6398.00    1.53949   1.65440   -1.000
 6399.00    1.51374   1.65430   -1.000
 6400.00    1.49473   1.65501   -1.000
 6401.00    1.51143   1.65723   -1.000
 6402.00    1.51590   1.66095   -1.000
 6403.00    1.52245   1.66514   -1.000
 6404.00    1.53084   1.66847   -1.000
 6405.00    1.49225   1.66998   -1.000
 6406.00    1.47103   1.66961   -1.000
 6407.00    1.47002   1.66793   -1.000
 6408.00    1.45267   1.66585   -1.000
 6409.00    1.43406   1.66431   -1.000
 6410.00    1.42927   1.66381   -1.000
 6411.00    1.43180   1.66431   -1.000
 6412.00    1.41347   1.66541   -1.000
 6413.00    1.38511   1.66692   -1.000
 6414.00    1.39572   1.66851   -1.000
 6415.00    1.40720   1.66956   -1.000
 6416.00    1.36785   1.66954   -1.000
 6417.00    1.37391   1.66853   -1.000
 6418.00    1.37048   1.66706   -1.000
 6419.00    1.35849   1.66590   -1.000
 6420.00    1.35113   1.66591   -1.000
 6421.00    1.33653   1.66786   -1.000
 6422.00    1.32137   1.67198   -1.000
 6423.00    1.31051   1.67770   -1.000
 6424.00    1.30680   1.68376   -1.000
 6425.00    1.29690   1.68841   -1.000
 6426.00    1.29619   1.69044   -1.000
 6427.00    1.28448   1.68971   -1.000
 6428.00    1.24930   1.68661   -1.000
