###################################################################
## OUTPUT of StarlightChains_v04.for    [Cid@UFSC - 01/Apr/2007] ##
###################################################################

## Some input info
NGC6544_a_1.cxt                          [arq_obs]
Base.BC03.N                              [arq_base]
NGC6544_a_1.msk                          [arq_masks]
StCv04.C11.config                        [arq_config]
   45                                    [N_base]
    0                                    [N_YAV_components = # of components with extra extinction!]
    0                                    [i_FitPowerLaw (1/0 = Yes/No)]
-9.99                                    [alpha_PowerLaw]
CCM                                      [red_law_option]
 1.458241                                [q_norm = A(l_norm)/A(V)]

## (Re)Sampling Parameters
 3359.00                                 [l_ini (A)]
 6428.00                                 [l_fin (A)]
    1.00                                 [dl    (A)]     (OBS: dl_cushion =    50.00 A)

## Normalization info
 4020.00                                 [l_norm (A) - for base]
 4010.00                                 [llow_norm (A) - window for f_obs]
 4060.00                                 [lupp_norm (A) - window for f_obs]
2.994762E-15                             [fobs_norm (in input units)]

## S/N
 4730.00                                 [llow_SN (A) - window for S/N]
 4780.00                                 [lupp_SN (A) - window for S/N]
  55.157                                 [S/N in S/N window]
  29.824                                 [S/N in norm. window]
 209.596                                 [S/N_err in S/N window]
 113.332                                 [S/N_err in norm. window]
  1.0000                                 [fscale_chi2]

## etc...
  2147483600                             [idum_orig]
  3067                                   [NOl_eff]
  1470                                   [Nl_eff]
  1597    NSIGMA                         [Ntot_cliped & clip_method]
  1432480                                [Nglobal_steps]
   7                                     [N_chains]
  13                                     [NEX0s_base = N_base in EX0s-fits]
 0   1   1       75   2.0   2.769E+02    [Clip-Bug, RC-Crash & Burn-In warning-flags, n_censored_weights, wei_nsig_threshold & wei_limit]
    25     25.177     25.169      0.008  [idt_all, wdt_TotTime, wdt_UsrTime & wdt_SysTime (sec)]

## Synthesis Results - Best model ##

 3.03285E+00                             [chi2/Nl_eff]
     2.42372                             [adev (%)]

    96.02317                             [sum-of-x (%)]
 4.13902E-13                             [Flux_tot (units of input spectrum!)]
 6.66965E-09                             [Mini_tot (???)]
 3.39041E-09                             [Mcor_tot (???)]

 -25.03                                  [v0_min  (km/s)]
  52.01                                  [vd_min  (km/s)]
 3.6999                                  [AV_min  (mag)]
 0.0000                                  [YAV_min (mag)]

# j     x_j(%)      Mini_j(%)     Mcor_j(%)     age_j(yr)     Z_j      (L/M)_j    YAV?  Mstars   component_j        a/Fe...       SSP_chi2r SSP_adev(%)   SSP_AV   SSP_x(%)
  1      5.8221     3.3777E-02    6.6446E-02    1.000000E+06  0.00400  1.114E-02    0   1.0000   age020_m42            0.0000     2.5734E+03    42.4112   4.0000   112.6028
  2     11.2256     1.7812E-02    3.5036E-02    3.160000E+06  0.00400  4.073E-02    0   0.9999   age045_m42            0.0000     6.9690E+02    23.5280   4.0000   117.9193
  3     15.9813     4.0759E-02    7.6076E-02    5.010000E+06  0.00400  2.534E-02    0   0.9488   age055_m42            0.0000     1.3361E+03    31.7878   4.0000   117.2297
  4     15.5208     7.8920E-02    1.3758E-01    1.000000E+07  0.00400  1.271E-02    0   0.8862   age070_m42            0.0000     3.4019E+02    16.2483   4.0000   109.8231
  5      4.5875     5.8477E-02    9.4031E-02    2.512000E+07  0.00400  5.070E-03    0   0.8174   age090_m42            0.0000     2.2753E+02    13.5133   4.0000   108.9711
  6      0.0000     0.0000E+00    0.0000E+00    4.000000E+07  0.00400  3.505E-03    0   0.7851   age104_m42            0.0000     8.0089E+01     8.3612   4.0000   104.6258
  7      0.0000     0.0000E+00    0.0000E+00    1.015200E+08  0.00400  2.268E-03    0   0.7207   age116_m42            0.0000     3.6321E+02    16.0428   4.0000   111.4003
  8      0.0000     0.0000E+00    0.0000E+00    2.861200E+08  0.00400  1.079E-03    0   0.6613   age125_m42            0.0000     3.7224E+02    14.4415   3.7716   106.2431
  9      0.0000     0.0000E+00    0.0000E+00    6.405400E+08  0.00400  5.077E-04    0   0.6197   age132_m42            0.0000     3.8620E+02    14.5397   3.4094   110.8163
 10      0.0000     0.0000E+00    0.0000E+00    9.047900E+08  0.00400  3.535E-04    0   0.6024   age135_m42            0.0000     3.0988E+02    13.7721   3.1562   110.4512
 11      0.0000     0.0000E+00    0.0000E+00    1.434000E+09  0.00400  1.910E-04    0   0.5716   age139_m42            0.0000     2.6613E+02    13.8643   2.6091   108.8526
 12      4.4259     2.9134E+00    3.1310E+00    2.500000E+09  0.00400  9.818E-05    0   0.5463   age150_m42            0.0000     2.1280E+02    13.4268   2.2957   104.8448
 13     13.7389     1.8820E+01    1.9355E+01    5.000000E+09  0.00400  4.718E-05    0   0.5228   age161_m42            0.0000     2.0093E+02    13.0938   2.1108   101.8887
 14      2.0539     6.0198E+00    5.8974E+00    1.100000E+10  0.00400  2.205E-05    0   0.4980   age185_m42            0.0000     2.7052E+02    14.5188   1.8299    99.3955
 15      1.0953     3.7592E+00    3.6436E+00    1.300000E+10  0.00400  1.883E-05    0   0.4927   age193_m42            0.0000     2.8075E+02    14.6397   1.8110    99.2294
 16      1.0919     3.5479E-03    6.9795E-03    1.000000E+06  0.02000  1.989E-02    0   1.0000   age020_m62            0.0000     2.5062E+03    41.7385   4.0000   113.4328
 17      0.0000     0.0000E+00    0.0000E+00    3.160000E+06  0.02000  3.772E-02    0   0.9858   age045_m62            0.0000     2.2000E+03    39.3922   4.0000   115.4115
 18      0.0000     0.0000E+00    0.0000E+00    5.010000E+06  0.02000  3.227E-02    0   0.9342   age055_m62            0.0000     1.0895E+03    28.8703   4.0000   118.7844
 19     14.6701     9.3778E-02    1.6144E-01    1.000000E+07  0.02000  1.011E-02    0   0.8751   age070_m62            0.0000     4.1239E+02    16.6483   4.0000   108.0477
 20      0.0000     0.0000E+00    0.0000E+00    2.512000E+07  0.02000  4.206E-03    0   0.8099   age090_m62            0.0000     2.9567E+02    15.2096   4.0000   106.9203
 21      0.0000     0.0000E+00    0.0000E+00    4.000000E+07  0.02000  3.373E-03    0   0.7799   age104_m62            0.0000     1.9867E+02    12.0942   4.0000   110.8421
 22      0.0000     0.0000E+00    0.0000E+00    1.015200E+08  0.02000  1.878E-03    0   0.7221   age116_m62            0.0000     3.3084E+02    15.2231   4.0000   113.2854
 23      0.0000     0.0000E+00    0.0000E+00    2.861200E+08  0.02000  8.869E-04    0   0.6700   age125_m62            0.0000     5.1631E+02    15.8537   3.8109   110.5192
 24      0.0000     0.0000E+00    0.0000E+00    6.405400E+08  0.02000  3.657E-04    0   0.6322   age132_m62            0.0000     4.6169E+02    16.5382   3.1018   113.7114
 25      0.0000     0.0000E+00    0.0000E+00    9.047900E+08  0.02000  2.312E-04    0   0.6152   age135_m62            0.0000     3.6874E+02    15.6625   2.7146   113.0173
 26      0.0000     0.0000E+00    0.0000E+00    1.434000E+09  0.02000  1.168E-04    0   0.5865   age139_m62            0.0000     2.6622E+02    14.6475   2.2469   108.1770
 27      0.0000     0.0000E+00    0.0000E+00    2.500000E+09  0.02000  5.505E-05    0   0.5610   age150_m62            0.0000     2.9002E+02    15.3471   1.8426   105.5523
 28      0.0000     0.0000E+00    0.0000E+00    5.000000E+09  0.02000  2.596E-05    0   0.5353   age161_m62            0.0000     4.1731E+02    17.4183   1.4914   104.9633
 29      0.0000     0.0000E+00    0.0000E+00    1.100000E+10  0.02000  1.169E-05    0   0.5103   age185_m62            0.0000     5.8044E+02    19.5372   1.1204   105.4068
 30      0.0000     0.0000E+00    0.0000E+00    1.300000E+10  0.02000  9.691E-06    0   0.5047   age193_m62            0.0000     6.1318E+02    19.8685   1.0770   105.3672
 31      0.0000     0.0000E+00    0.0000E+00    1.000000E+06  0.05000  2.651E-02    0   0.9998   age020_m72            0.0000     2.4752E+03    41.6934   4.0000   114.7144
 32      0.0000     0.0000E+00    0.0000E+00    3.160000E+06  0.05000  4.817E-02    0   0.9577   age045_m72            0.0000     1.8020E+03    36.4025   4.0000   118.3505
 33      0.0000     0.0000E+00    0.0000E+00    5.010000E+06  0.05000  3.101E-02    0   0.9147   age055_m72            0.0000     1.1345E+03    29.4775   4.0000   117.5739
 34      0.0000     0.0000E+00    0.0000E+00    1.000000E+07  0.05000  8.954E-03    0   0.8524   age070_m72            0.0000     1.5143E+03    33.7999   4.0000   118.8907
 35      0.0000     0.0000E+00    0.0000E+00    2.512000E+07  0.05000  4.207E-03    0   0.7902   age090_m72            0.0000     7.6984E+02    24.8649   4.0000   119.0995
 36      0.0000     0.0000E+00    0.0000E+00    4.000000E+07  0.05000  3.198E-03    0   0.7618   age104_m72            0.0000     3.9910E+02    17.5512   4.0000   117.3487
 37      0.0000     0.0000E+00    0.0000E+00    1.015200E+08  0.05000  1.716E-03    0   0.7092   age116_m72            0.0000     3.9250E+02    16.8526   4.0000   115.1616
 38      0.0000     0.0000E+00    0.0000E+00    2.861200E+08  0.05000  7.047E-04    0   0.6618   age125_m72            0.0000     5.1959E+02    16.3829   3.5980   110.5352
 39      0.0000     0.0000E+00    0.0000E+00    6.405400E+08  0.05000  2.633E-04    0   0.6253   age132_m72            0.0000     4.2721E+02    16.4964   2.7214   112.5272
 40      0.0000     0.0000E+00    0.0000E+00    9.047900E+08  0.05000  1.484E-04    0   0.6088   age135_m72            0.0000     3.4477E+02    16.2668   2.1893   108.1617
 41      0.0000     0.0000E+00    0.0000E+00    1.434000E+09  0.05000  7.827E-05    0   0.5847   age139_m72            0.0000     3.6396E+02    17.0312   1.7480   105.2404
 42      0.0000     0.0000E+00    0.0000E+00    2.500000E+09  0.05000  3.759E-05    0   0.5583   age150_m72            0.0000     4.3923E+02    17.9614   1.3991   104.6779
 43      0.0000     0.0000E+00    0.0000E+00    5.000000E+09  0.05000  1.548E-05    0   0.5320   age161_m72            0.0000     5.9052E+02    19.7339   0.9765   103.3428
 44      1.0919     1.0804E+01    1.0775E+01    1.100000E+10  0.05000  6.532E-06    0   0.5070   age185_m72            0.0000     8.0743E+02    22.3823   0.6151   101.1273
 45      4.7180     5.7357E+01    5.6620E+01    1.300000E+10  0.05000  5.316E-06    0   0.5018   age193_m72            0.0000     8.9505E+02    23.3656   0.5070   100.3991


## Synthesis Results - Average & Chains ##

# j      x_j: min, <> & last-chain-values for 1 ...  7 chains
  1      5.8221      6.7417      6.6364      6.6755      6.2537      6.6026      6.7700      6.7294      6.6432
  2     11.2256     11.2822     11.1748     11.5060     10.9608     11.3596     10.9667     11.3438     11.2979
  3     15.9813     16.1051     15.9119     16.0559     16.0967     16.2938     15.9624     15.6986     15.7923
  4     15.5208     14.0981     14.2757     14.7980     14.0059     14.7343     14.5804     14.3740     13.9871
  5      4.5875      3.6991      4.4043      3.7356      3.9820      3.5794      3.4612      3.6704      3.4458
  6      0.0000      0.0793      0.0000      0.0000      0.0000      0.2711      0.0000      0.0000      0.0000
  7      0.0000      0.0882      0.1208      0.0000      0.1257      0.0000      0.0000      0.0000      0.2255
  8      0.0000      0.0423      0.0000      0.0000      0.0000      0.0918      0.0000      0.0000      0.0314
  9      0.0000      0.1202      0.0397      0.0344      0.0000      0.0033      0.1347      0.7669      0.0667
 10      0.0000      0.1059      0.1410      0.1003      0.3611      0.6725      0.3176      0.0000      0.0848
 11      0.0000      0.0324      0.0080      0.0000      0.0000      0.0000      0.0000      0.0210      0.0126
 12      4.4259      5.4691      5.2386      5.3647      5.4935      4.5838      5.4238      5.3009      5.3016
 13     13.7389     13.4931     13.3962     13.3236     13.5087     13.4915     13.4969     13.4770     13.6926
 14      2.0539      1.9490      1.9385      1.9677      1.8913      1.9891      1.9392      1.9922      1.9049
 15      1.0953      0.9078      1.1045      1.0394      0.8889      1.0628      0.8799      0.8533      0.9155
 16      1.0919      1.9330      1.9433      1.8907      1.7926      1.5872      1.9151      1.9007      1.9368
 17      0.0000      0.3223      0.3109      0.1806      0.3801      0.5184      0.1953      0.3941      0.4104
 18      0.0000      0.3769      0.2204      0.3755      0.6028      0.0000      0.5399      0.2874      0.8559
 19     14.6701     12.5156     12.7437     12.4367     13.2792     12.8746     12.8940     12.9065     12.8383
 20      0.0000      0.0788      0.0000      0.0000      0.0399      0.0000      0.0343      0.0000      0.0000
 21      0.0000      0.1190      0.0000      0.1858      0.1311      0.0447      0.2330      0.1010      0.3308
 22      0.0000      0.1243      0.1461      0.1528      0.1842      0.0863      0.2573      0.0000      0.3002
 23      0.0000      0.0417      0.0000      0.1932      0.0000      0.0436      0.0000      0.0000      0.0000
 24      0.0000      0.0120      0.0000      0.0027      0.0000      0.0000      0.0000      0.0000      0.0000
 25      0.0000      0.0115      0.0000      0.0000      0.0000      0.0020      0.0000      0.0000      0.0000
 26      0.0000      0.0065      0.0000      0.0000      0.0000      0.0104      0.0000      0.0000      0.0000
 27      0.0000      0.0061      0.0000      0.0000      0.0000      0.0000      0.0000      0.0000      0.0000
 28      0.0000      0.0061      0.0000      0.0000      0.0000      0.0000      0.0000      0.0000      0.0000
 29      0.0000      0.0054      0.0048      0.0000      0.0000      0.0000      0.0240      0.0147      0.0000
 30      0.0000      0.0084      0.0000      0.0000      0.0000      0.0967      0.0246      0.0000      0.0059
 31      0.0000      0.0223      0.0000      0.0000      0.0000      0.0000      0.0122      0.0000      0.0000
 32      0.0000      0.0388      0.0000      0.0523      0.0000      0.0000      0.0000      0.0000      0.0000
 33      0.0000      0.0417      0.0939      0.0000      0.1628      0.0201      0.0000      0.2335      0.0000
 34      0.0000      0.0190      0.0000      0.0000      0.0000      0.0000      0.0000      0.0000      0.0000
 35      0.0000      0.0191      0.0000      0.0000      0.0000      0.0020      0.0000      0.0000      0.0000
 36      0.0000      0.0492      0.0166      0.0000      0.0000      0.0000      0.0000      0.0000      0.0000
 37      0.0000      0.0950      0.1909      0.0496      0.0000      0.0210      0.0655      0.0217      0.0000
 38      0.0000      0.0163      0.0429      0.0000      0.0000      0.0000      0.0000      0.0131      0.0000
 39      0.0000      0.0091      0.0000      0.0000      0.0000      0.0000      0.0000      0.0000      0.0000
 40      0.0000      0.0061      0.0000      0.0000      0.0000      0.0000      0.0000      0.0000      0.0000
 41      0.0000      0.0037      0.0000      0.0000      0.0535      0.0000      0.0000      0.0000      0.0000
 42      0.0000      0.0046      0.0000      0.0000      0.0000      0.0000      0.0000      0.0000      0.0000
 43      0.0000      0.0059      0.0000      0.0000      0.0000      0.0000      0.0000      0.0000      0.0000
 44      1.0919      1.1881      1.2012      1.1715      1.1756      1.2197      1.1798      1.1924      1.2484
 45      4.7180      4.7428      4.7258      4.7416      4.7095      4.7703      4.7297      4.7718      4.7164

# j      m_j: min, <> & last-chain-values for 1 ...  7 chains
  1  6.6446E-02  7.6230E-02  7.4960E-02  7.5620E-02  7.1285E-02  7.3770E-02  7.6723E-02  7.5972E-02  7.4973E-02
  2  3.5036E-02  3.4888E-02  3.4519E-02  3.5646E-02  3.4169E-02  3.4710E-02  3.3989E-02  3.5024E-02  3.4870E-02
  3  7.6076E-02  7.5958E-02  7.4967E-02  7.5866E-02  7.6533E-02  7.5934E-02  7.5455E-02  7.3925E-02  7.4341E-02
  4  1.3758E-01  1.2382E-01  1.2525E-01  1.3021E-01  1.2401E-01  1.2787E-01  1.2834E-01  1.2605E-01  1.2261E-01
  5  9.4031E-02  7.5123E-02  8.9348E-02  7.6003E-02  8.1522E-02  7.1826E-02  7.0449E-02  7.4423E-02  6.9844E-02
  6  0.0000E+00  2.2387E-03  0.0000E+00  0.0000E+00  0.0000E+00  7.5570E-03  0.0000E+00  0.0000E+00  0.0000E+00
  7  0.0000E+00  3.5296E-03  4.8282E-03  0.0000E+00  5.0703E-03  0.0000E+00  0.0000E+00  0.0000E+00  9.0084E-03
  8  0.0000E+00  3.2673E-03  0.0000E+00  0.0000E+00  0.0000E+00  6.9996E-03  0.0000E+00  0.0000E+00  2.4223E-03
  9  0.0000E+00  1.8482E-02  6.0969E-03  5.2956E-03  0.0000E+00  4.9697E-04  2.0757E-02  1.1772E-01  1.0231E-02
 10  0.0000E+00  2.2729E-02  3.0236E-02  2.1559E-02  7.8137E-02  1.4264E-01  6.8335E-02  0.0000E+00  1.8159E-02
 11  0.0000E+00  1.2203E-02  2.9985E-03  0.0000E+00  0.0000E+00  0.0000E+00  0.0000E+00  7.8965E-03  4.7342E-03
 12  3.1310E+00  3.8333E+00  3.6678E+00  3.7670E+00  3.8815E+00  3.1745E+00  3.8101E+00  3.7096E+00  3.7088E+00
 13  1.9355E+01  1.8834E+01  1.8678E+01  1.8631E+01  1.9008E+01  1.8607E+01  1.8881E+01  1.8782E+01  1.9076E+01
 14  5.8974E+00  5.5446E+00  5.5088E+00  5.6082E+00  5.4240E+00  5.5915E+00  5.5292E+00  5.6588E+00  5.4089E+00
 15  3.6436E+00  2.9920E+00  3.6365E+00  3.4320E+00  2.9534E+00  3.4611E+00  2.9065E+00  2.8080E+00  3.0116E+00
 16  6.9795E-03  1.2242E-02  1.2293E-02  1.1996E-02  1.1444E-02  9.9320E-03  1.2156E-02  1.2018E-02  1.2242E-02
 17  0.0000E+00  1.0609E-03  1.0223E-03  5.9567E-04  1.2613E-03  1.6863E-03  6.4443E-04  1.2952E-03  1.3484E-03
 18  0.0000E+00  1.3743E-03  8.0295E-04  1.3720E-03  2.2161E-03  0.0000E+00  1.9731E-03  1.0463E-03  3.1151E-03
 19  1.6144E-01  1.3646E-01  1.3880E-01  1.3585E-01  1.4596E-01  1.3870E-01  1.4090E-01  1.4050E-01  1.3971E-01
 20  0.0000E+00  1.9113E-03  0.0000E+00  0.0000E+00  9.7644E-04  0.0000E+00  8.3287E-04  0.0000E+00  0.0000E+00
 21  0.0000E+00  3.4656E-03  0.0000E+00  5.4207E-03  3.8478E-03  1.2856E-03  6.8006E-03  2.9367E-03  9.6155E-03
 22  0.0000E+00  6.0196E-03  7.0702E-03  7.4160E-03  8.9948E-03  4.1309E-03  1.2492E-02  0.0000E+00  1.4512E-02
 23  0.0000E+00  3.9653E-03  0.0000E+00  1.8419E-02  0.0000E+00  4.0951E-03  0.0000E+00  0.0000E+00  0.0000E+00
 24  0.0000E+00  2.6110E-03  0.0000E+00  5.9337E-04  0.0000E+00  0.0000E+00  0.0000E+00  0.0000E+00  0.0000E+00
 25  0.0000E+00  3.8515E-03  0.0000E+00  0.0000E+00  0.0000E+00  6.6066E-04  0.0000E+00  0.0000E+00  0.0000E+00
 26  0.0000E+00  4.1032E-03  0.0000E+00  0.0000E+00  0.0000E+00  6.5162E-03  0.0000E+00  0.0000E+00  0.0000E+00
 27  0.0000E+00  7.8236E-03  0.0000E+00  0.0000E+00  0.0000E+00  0.0000E+00  0.0000E+00  0.0000E+00  0.0000E+00
 28  0.0000E+00  1.5932E-02  0.0000E+00  0.0000E+00  0.0000E+00  0.0000E+00  0.0000E+00  0.0000E+00  0.0000E+00
 29  0.0000E+00  2.9915E-02  2.6587E-02  0.0000E+00  0.0000E+00  0.0000E+00  1.3252E-01  8.0962E-02  0.0000E+00
 30  0.0000E+00  5.5417E-02  0.0000E+00  0.0000E+00  0.0000E+00  6.2660E-01  1.6199E-01  0.0000E+00  3.8653E-02
 31  0.0000E+00  1.0581E-04  0.0000E+00  0.0000E+00  0.0000E+00  0.0000E+00  5.8290E-05  0.0000E+00  0.0000E+00
 32  0.0000E+00  9.7154E-05  0.0000E+00  1.3118E-04  0.0000E+00  0.0000E+00  0.0000E+00  0.0000E+00  0.0000E+00
 33  0.0000E+00  1.5494E-04  3.4838E-04  0.0000E+00  6.0972E-04  7.3641E-05  0.0000E+00  8.6614E-04  0.0000E+00
 34  0.0000E+00  2.2828E-04  0.0000E+00  0.0000E+00  0.0000E+00  0.0000E+00  0.0000E+00  0.0000E+00  0.0000E+00
 35  0.0000E+00  4.5118E-04  0.0000E+00  0.0000E+00  0.0000E+00  4.7731E-05  0.0000E+00  0.0000E+00  0.0000E+00
 36  0.0000E+00  1.4759E-03  4.9770E-04  0.0000E+00  0.0000E+00  0.0000E+00  0.0000E+00  0.0000E+00  0.0000E+00
 37  0.0000E+00  4.9473E-03  9.9265E-03  2.5851E-03  0.0000E+00  1.0794E-03  3.4190E-03  1.1304E-03  0.0000E+00
 38  0.0000E+00  1.9271E-03  5.0650E-03  0.0000E+00  0.0000E+00  0.0000E+00  0.0000E+00  1.5474E-03  0.0000E+00
 39  0.0000E+00  2.7136E-03  0.0000E+00  0.0000E+00  0.0000E+00  0.0000E+00  0.0000E+00  0.0000E+00  0.0000E+00
 40  0.0000E+00  3.1685E-03  0.0000E+00  0.0000E+00  0.0000E+00  0.0000E+00  0.0000E+00  0.0000E+00  0.0000E+00
 41  0.0000E+00  3.4539E-03  0.0000E+00  0.0000E+00  5.0751E-02  0.0000E+00  0.0000E+00  0.0000E+00  0.0000E+00
 42  0.0000E+00  8.6263E-03  0.0000E+00  0.0000E+00  0.0000E+00  0.0000E+00  0.0000E+00  0.0000E+00  0.0000E+00
 43  0.0000E+00  2.5663E-02  0.0000E+00  0.0000E+00  0.0000E+00  0.0000E+00  0.0000E+00  0.0000E+00  0.0000E+00
 44  1.0775E+01  1.1616E+01  1.1732E+01  1.1475E+01  1.1587E+01  1.1783E+01  1.1561E+01  1.1640E+01  1.2183E+01
 45  5.6620E+01  5.6393E+01  5.6131E+01  5.6482E+01  5.6450E+01  5.6046E+01  5.6364E+01  5.6649E+01  5.5972E+01

# AV, chi2 & Mass for <> & i_chain = 1 ...  7 solutions
AV       3.6999      3.6941      3.6964      3.6990      3.6940      3.6945      3.6945      3.6937      3.6952
chi2 3.0329E+00  3.0750E+00  3.0622E+00  3.0609E+00  3.0665E+00  3.0583E+00  3.0637E+00  3.0678E+00  3.0676E+00
Mass 3.3904E-09  3.3952E-09  3.4093E-09  3.4115E-09  3.3675E-09  3.4381E-09  3.3895E-09  3.3989E-09  3.4068E-09
 -25.03                                  [v0_min (km/s) before EX0s...]
  52.01                                  [vd_min (km/s) before EX0s...]


## Synthetic spectrum (Best Model) ##l_obs f_obs f_syn wei
 3070    [Nl_obs]
 3359.00    0.00000   0.52565   -2.000
 3360.00    0.00000   0.52280   -2.000
 3361.00    0.24325   0.52412   -1.000
 3362.00    0.28337   0.53056   -1.000
 3363.00    0.33291   0.53679   -1.000
 3364.00    0.32776   0.53857   -1.000
 3365.00    0.33336   0.53363   -1.000
 3366.00    0.32183   0.52472   -1.000
 3367.00    0.31068   0.51677   -1.000
 3368.00    0.32576   0.51376   -1.000
 3369.00    0.32536   0.51747   -1.000
 3370.00    0.32581   0.52228   -1.000
 3371.00    0.32303   0.52084   -1.000
 3372.00    0.34788   0.51740   -1.000
 3373.00    0.33411   0.51928   -1.000
 3374.00    0.36330   0.52888   -1.000
 3375.00    0.31767   0.54112   -1.000
 3376.00    0.33895   0.54415   -1.000
 3377.00    0.34968   0.53775   -1.000
 3378.00    0.35972   0.53072   -1.000
 3379.00    0.36946   0.52788   -1.000
 3380.00    0.36668   0.53180   -1.000
 3381.00    0.40248   0.53958   -1.000
 3382.00    0.39185   0.54768   -1.000
 3383.00    0.36995   0.55268   -1.000
 3384.00    0.39787   0.55571   -1.000
 3385.00    0.39031   0.55851   -1.000
 3386.00    0.40536   0.55912   -1.000
 3387.00    0.38655   0.55759   -1.000
 3388.00    0.39824   0.55594   -1.000
 3389.00    0.42781   0.55536   -1.000
 3390.00    0.39805   0.55579   -1.000
 3391.00    0.43080   0.55562   -1.000
 3392.00    0.40479   0.55503   -1.000
 3393.00    0.39245   0.55675   -1.000
 3394.00    0.37453   0.56209   -1.000
 3395.00    0.42142   0.56747   -1.000
 3396.00    0.43236   0.56949   -1.000
 3397.00    0.46356   0.56756   -1.000
 3398.00    0.41081   0.56224   -1.000
 3399.00    0.45365   0.55554   -1.000
 3400.00    0.47905   0.55290   31.764
 3401.00    0.48588   0.55189   31.320
 3402.00    0.47905   0.54760   31.582
 3403.00    0.40813   0.54376   -1.000
 3404.00    0.42170   0.54237   -1.000
 3405.00    0.45127   0.54138   -1.000
 3406.00    0.46482   0.54005   34.513
 3407.00    0.47833   0.54071   35.077
 3408.00    0.44572   0.54354   -1.000
 3409.00    0.42512   0.54759   -1.000
 3410.00    0.46534   0.54879   36.013
 3411.00    0.48753   0.54639   35.802
 3412.00    0.49513   0.54562   34.740
 3413.00    0.48484   0.54719   34.443
 3414.00    0.47284   0.55079   35.882
 3415.00    0.52313   0.55510   36.574
 3416.00    0.50247   0.56014   36.516
 3417.00    0.46038   0.56588   -1.000
 3418.00    0.49440   0.57147   34.120
 3419.00    0.51948   0.57539   32.510
 3420.00    0.53927   0.57607   30.870
 3421.00    0.47817   0.57396   30.691
 3422.00    0.53280   0.57099   30.482
 3423.00    0.55229   0.56925   30.655
 3424.00    0.51200   0.56903   31.530
 3425.00    0.53004   0.57010   32.253
 3426.00    0.53061   0.57298   31.391
 3427.00    0.51371   0.57730   30.559
 3428.00    0.51502   0.58261   30.369
 3429.00    0.50093   0.58476   -1.000
 3430.00    0.53677   0.58271   -1.000
 3431.00    0.54102   0.57952   -1.000
 3432.00    0.53959   0.57644   -1.000
 3433.00    0.52113   0.57577   -1.000
 3434.00    0.52874   0.57707   32.225
 3435.00    0.55513   0.57883   30.287
 3436.00    0.55087   0.57878   -1.000
 3437.00    0.52171   0.57596   -1.000
 3438.00    0.50021   0.57018   32.036
 3439.00    0.51449   0.56040   31.611
 3440.00    0.52773   0.54961   33.495
 3441.00    0.51278   0.54389   36.134
 3442.00    0.49580   0.54542   37.666
 3443.00    0.52292   0.55127   37.802
 3444.00    0.51683   0.55528   37.651
 3445.00    0.51957   0.55725   36.220
 3446.00    0.55963   0.56136   34.262
 3447.00    0.53323   0.56909   32.366
 3448.00    0.55671   0.57825   31.207
 3449.00    0.56253   0.58049   -1.000
 3450.00    0.53904   0.57290   -1.000
 3451.00    0.51217   0.56264   -1.000
 3452.00    0.52974   0.55490   -1.000
 3453.00    0.56650   0.55272   -1.000
 3454.00    0.60224   0.55486   -1.000
 3455.00    0.55638   0.55846  276.924
 3456.00    0.53271   0.56076   -1.000
 3457.00    0.57995   0.55845   -1.000
 3458.00    0.57547   0.55346   -1.000
 3459.00    0.58892   0.54922   -1.000
 3460.00    0.53677   0.54662   32.330
 3461.00    0.53071   0.54832   30.744
 3462.00    0.56715   0.55594   30.575
 3463.00    0.56562   0.56305  184.602
 3464.00    0.55837   0.56499  276.924
 3465.00    0.56888   0.56663  276.924
 3466.00    0.60248   0.56827   -1.000
 3467.00    0.60875   0.56979   -1.000
 3468.00    0.62595   0.57100   -1.000
 3469.00    0.59608   0.57272   -1.000
 3470.00    0.56346   0.57379  258.717
 3471.00    0.60074   0.57148   -1.000
 3472.00    0.55558   0.56759  258.852
 3473.00    0.57575   0.56314   -1.000
 3474.00    0.58123   0.55796   -1.000
 3475.00    0.55187   0.55404  276.924
 3476.00    0.53709   0.55258   32.757
 3477.00    0.55021   0.55180   31.686
 3478.00    0.55346   0.55172   31.107
 3479.00    0.55561   0.55335  178.364
 3480.00    0.55724   0.55691  269.985
 3481.00    0.58101   0.55807   -1.000
 3482.00    0.58028   0.55433   -1.000
 3483.00    0.57937   0.55145   -1.000
 3484.00    0.60730   0.55537   -1.000
 3485.00    0.61988   0.56572   -1.000
 3486.00    0.59936   0.57635   -1.000
 3487.00    0.55967   0.58205   -1.000
 3488.00    0.60226   0.58127   -1.000
 3489.00    0.59251   0.57512   -1.000
 3490.00    0.58201   0.57013   -1.000
 3491.00    0.56629   0.57159  276.924
 3492.00    0.59475   0.57694   -1.000
 3493.00    0.62876   0.57916   -1.000
 3494.00    0.59657   0.57621   -1.000
 3495.00    0.56158   0.57153  276.924
 3496.00    0.60552   0.56986   -1.000
 3497.00    0.61939   0.57366   -1.000
 3498.00    0.57919   0.57876  276.924
 3499.00    0.57564   0.57811  275.906
 3500.00    0.58940   0.57402   -1.000
 3501.00    0.57917   0.57376  243.567
 3502.00    0.61020   0.57741   -1.000
 3503.00    0.63505   0.57917   -1.000
 3504.00    0.59265   0.57510   -1.000
 3505.00    0.57790   0.56930  241.404
 3506.00    0.61093   0.56699   -1.000
 3507.00    0.59168   0.56899   -1.000
 3508.00    0.59182   0.57189   -1.000
 3509.00    0.59202   0.57183   -1.000
 3510.00    0.59521   0.56930   -1.000
 3511.00    0.60296   0.56587   -1.000
 3512.00    0.60079   0.56203   -1.000
 3513.00    0.59555   0.55960   -1.000
 3514.00    0.60934   0.56277   -1.000
 3515.00    0.60520   0.57039   -1.000
 3516.00    0.60027   0.57861   -1.000
 3517.00    0.62708   0.58457   -1.000
 3518.00    0.60203   0.58618   -1.000
 3519.00    0.59628   0.58323   -1.000
 3520.00    0.60235   0.57711   -1.000
 3521.00    0.58168   0.57065   -1.000
 3522.00    0.59532   0.56635   -1.000
 3523.00    0.57350   0.56410   -1.000
 3524.00    0.56772   0.56331  276.924
 3525.00    0.56381   0.56380   32.956
 3526.00    0.56701   0.56674   31.347
 3527.00    0.59698   0.57283   31.246
 3528.00    0.57707   0.58017  167.365
 3529.00    0.59330   0.58604  272.283
 3530.00    0.61184   0.58916   -1.000
 3531.00    0.61558   0.59078   -1.000
 3532.00    0.60303   0.59223   -1.000
 3533.00    0.57789   0.59313   -1.000
 3534.00    0.59313   0.59417  256.410
 3535.00    0.59463   0.59513  252.221
 3536.00    0.60174   0.59481  246.937
 3537.00    0.62432   0.59484   -1.000
 3538.00    0.60757   0.59666  244.008
 3539.00    0.62395   0.59821   -1.000
 3540.00    0.60291   0.59822  238.588
 3541.00    0.60638   0.59799  240.253
 3542.00    0.60163   0.60009  244.650
 3543.00    0.56903   0.60410   -1.000
 3544.00    0.58250   0.60706   -1.000
 3545.00    0.59321   0.60688  242.109
 3546.00    0.59367   0.60593  241.135
 3547.00    0.58166   0.60616   -1.000
 3548.00    0.57415   0.60657   -1.000
 3549.00    0.59459   0.60676  252.143
 3550.00    0.60844   0.60694  251.723
 3551.00    0.58605   0.60686   -1.000
 3552.00    0.58841   0.60538   -1.000
 3553.00    0.54917   0.60226   -1.000
 3554.00    0.57642   0.59962   -1.000
 3555.00    0.61825   0.59908   -1.000
 3556.00    0.58848   0.59997  270.932
 3557.00    0.59420   0.60072  264.979
 3558.00    0.60321   0.60013  265.575
 3559.00    0.59218   0.59928  269.221
 3560.00    0.59639   0.60092  272.711
 3561.00    0.58882   0.60538   -1.000
 3562.00    0.61253   0.60773  265.549
 3563.00    0.62046   0.60259   -1.000
 3564.00    0.59912   0.59086  264.591
 3565.00    0.58038   0.58134  276.924
 3566.00    0.56545   0.57859   33.689
 3567.00    0.56177   0.57953   31.785
 3568.00    0.55576   0.57913   31.569
 3569.00    0.54418   0.57377   31.375
 3570.00    0.54843   0.56628   32.333
 3571.00    0.54857   0.56152   32.977
 3572.00    0.54332   0.56152   32.088
 3573.00    0.56795   0.56340   30.687
 3574.00    0.58865   0.56530   -1.000
 3575.00    0.61267   0.56772   -1.000
 3576.00    0.61106   0.56961   -1.000
 3577.00    0.58809   0.56797   -1.000
 3578.00    0.57561   0.56306   -1.000
 3579.00    0.56826   0.55684   -1.000
 3580.00    0.51658   0.55249   34.973
 3581.00    0.51422   0.55105   33.939
 3582.00    0.52492   0.55145   35.886
 3583.00    0.54016   0.55193   36.284
 3584.00    0.56701   0.54996   36.440
 3585.00    0.53781   0.54658   37.288
 3586.00    0.53390   0.54547   38.494
 3587.00    0.53331   0.54713   39.108
 3588.00    0.55530   0.55233   37.361
 3589.00    0.59820   0.56167   35.375
 3590.00    0.56985   0.57085   33.650
 3591.00    0.57190   0.57547   30.758
 3592.00    0.57595   0.57644  148.288
 3593.00    0.56855   0.57743  271.874
 3594.00    0.57634   0.58088  270.393
 3595.00    0.58996   0.58636  266.296
 3596.00    0.58716   0.59185  258.159
 3597.00    0.57114   0.59749   -1.000
 3598.00    0.60796   0.60292  238.332
 3599.00    0.63784   0.60589   -1.000
 3600.00    0.60726   0.60440  227.998
 3601.00    0.57846   0.59868   -1.000
 3602.00    0.60751   0.59136   -1.000
 3603.00    0.60127   0.58502   -1.000
 3604.00    0.60053   0.58259   -1.000
 3605.00    0.60390   0.58334   -1.000
 3606.00    0.58661   0.58396  272.979
 3607.00    0.58800   0.58227  270.547
 3608.00    0.58841   0.57972  272.982
 3609.00    0.58660   0.58034  276.924
 3610.00    0.54711   0.58460   -1.000
 3611.00    0.55624   0.58862   -1.000
 3612.00    0.58707   0.59095  276.924
 3613.00    0.58909   0.59245  268.777
 3614.00    0.59988   0.59436  262.075
 3615.00    0.60746   0.59643   -1.000
 3616.00    0.58701   0.59461  248.245
 3617.00    0.59631   0.58794  247.807
 3618.00    0.57682   0.58433  267.047
 3619.00    0.57296   0.58754   -1.000
 3620.00    0.56636   0.59516   33.761
 3621.00    0.62575   0.60534   -1.000
 3622.00    0.63879   0.61379   -1.000
 3623.00    0.62782   0.61787   -1.000
 3624.00    0.62838   0.62151  238.765
 3625.00    0.61770   0.62858  235.549
 3626.00    0.60776   0.63698   -1.000
 3627.00    0.63248   0.64138  217.934
 3628.00    0.65507   0.63635   -1.000
 3629.00    0.62959   0.62258  217.302
 3630.00    0.59494   0.60785  229.681
 3631.00    0.56853   0.59929   -1.000
 3632.00    0.54765   0.59924   -1.000
 3633.00    0.55983   0.60495   -1.000
 3634.00    0.56991   0.61054   -1.000
 3635.00    0.58666   0.61031   -1.000
 3636.00    0.59613   0.60825  259.915
 3637.00    0.63330   0.61162   -1.000
 3638.00    0.64227   0.61850   -1.000
 3639.00    0.61043   0.62403  228.137
 3640.00    0.61165   0.62508  220.207
 3641.00    0.62558   0.62224  219.179
 3642.00    0.64630   0.61712   -1.000
 3643.00    0.63892   0.61088   -1.000
 3644.00    0.60955   0.60573  243.559
 3645.00    0.60005   0.60164  251.388
 3646.00    0.60561   0.59781  256.018
 3647.00    0.61622   0.59635   -1.000
 3648.00    0.62459   0.59776   -1.000
 3649.00    0.62082   0.60188   -1.000
 3650.00    0.59712   0.60826  258.969
 3651.00    0.62501   0.61521  248.836
 3652.00    0.62200   0.62087  236.963
 3653.00    0.63432   0.62451  226.843
 3654.00    0.63221   0.62698  220.835
 3655.00    0.63351   0.63027  217.511
 3656.00    0.66040   0.63490   -1.000
 3657.00    0.66435   0.63802   -1.000
 3658.00    0.66236   0.63840   -1.000
 3659.00    0.66555   0.63694   -1.000
 3660.00    0.64117   0.63482  208.296
 3661.00    0.64091   0.63244  208.310
 3662.00    0.63699   0.62968  210.366
 3663.00    0.63241   0.62804  212.637
 3664.00    0.66232   0.62751   -1.000
 3665.00    0.66574   0.62806   -1.000
 3666.00    0.65035   0.62812   -1.000
 3667.00    0.64077   0.62542   -1.000
 3668.00    0.64769   0.62243   -1.000
 3669.00    0.62293   0.62366  222.415
 3670.00    0.60726   0.62891   -1.000
 3671.00    0.63594   0.63436  226.946
 3672.00    0.64718   0.63621  219.158
 3673.00    0.65204   0.63405   -1.000
 3674.00    0.65431   0.63003   -1.000
 3675.00    0.66356   0.62507   -1.000
 3676.00    0.66738   0.62004   -1.000
 3677.00    0.64295   0.61457   -1.000
 3678.00    0.61997   0.60996  226.217
 3679.00    0.60256   0.60844  233.101
 3680.00    0.63012   0.61124   -1.000
 3681.00    0.66348   0.61656   -1.000
 3682.00    0.63910   0.62042   -1.000
 3683.00    0.63796   0.62176   -1.000
 3684.00    0.63633   0.61845   -1.000
 3685.00    0.63002   0.60963   -1.000
 3686.00    0.60801   0.60190  237.883
 3687.00    0.60654   0.60409  247.693
 3688.00    0.60359   0.61669  252.844
 3689.00    0.61939   0.63024  247.078
 3690.00    0.63988   0.63578  231.724
 3691.00    0.66795   0.63456   -1.000
 3692.00    0.67722   0.63424   -1.000
 3693.00    0.66950   0.63661   -1.000
 3694.00    0.63200   0.63701  214.852
 3695.00    0.64684   0.63254   -1.000
 3696.00    0.65145   0.62750   -1.000
 3697.00    0.64228   0.62948   -1.000
 3698.00    0.66711   0.64118   -1.000
 3699.00    0.69031   0.65734   -1.000
 3700.00    0.70103   0.66548   -1.000
 3701.00    0.70347   0.65595   -1.000
 3702.00    0.67602   0.62940   -1.000
 3703.00    0.64516   0.59766   -1.000
 3704.00    0.62156   0.57707   -1.000
 3705.00    0.62096   0.57609   -1.000
 3706.00    0.61394   0.59082   -1.000
 3707.00    0.63683   0.60830   -1.000
 3708.00    0.62601   0.61758  258.521
 3709.00    0.62775   0.61396   -1.000
 3710.00    0.61481   0.60353   -1.000
 3711.00    0.64189   0.59705   -1.000
 3712.00    0.64372   0.60274   -1.000
 3713.00    0.66330   0.62076   -1.000
 3714.00    0.68977   0.64470   -1.000
 3715.00    0.67105   0.66498  197.528
 3716.00    0.67471   0.67364  196.371
 3717.00    0.66362   0.66912  200.834
 3718.00    0.65406   0.64863  209.431
 3719.00    0.62713   0.61262   -1.000
 3720.00    0.60450   0.57635   -1.000
 3721.00    0.57002   0.55703   -1.000
 3722.00    0.56283   0.56028   35.554
 3723.00    0.59417   0.58587  128.012
 3724.00    0.62124   0.62171  258.619
 3725.00    0.65823   0.64847  231.725
 3726.00    0.69257   0.66103   -1.000
 3727.00    0.67883   0.66966  220.519
 3728.00    0.68897   0.67674   -1.000
 3729.00    0.70683   0.67798   -1.000
 3730.00    0.71573   0.66540   -1.000
 3731.00    0.67347   0.63501   -1.000
 3732.00    0.60329   0.59380  237.520
 3733.00    0.57769   0.55454   -1.000
 3734.00    0.56761   0.53103   34.979
 3735.00    0.55819   0.53410   33.302
 3736.00    0.54770   0.56140   34.971
 3737.00    0.55291   0.60175   33.641
 3738.00    0.60869   0.64421   30.663
 3739.00    0.64099   0.67926   -1.000
 3740.00    0.67758   0.69825   -1.000
 3741.00    0.71528   0.70215   -1.000
 3742.00    0.70176   0.69508  225.443
 3743.00    0.69035   0.68264  232.922
 3744.00    0.65483   0.66839  246.981
 3745.00    0.66085   0.65090   -1.000
 3746.00    0.65312   0.62652   -1.000
 3747.00    0.60280   0.59370   -1.000
 3748.00    0.57147   0.55698   35.696
 3749.00    0.56127   0.53291   32.342
 3750.00    0.59577   0.53775   32.956
 3751.00    0.61569   0.56807   -1.000
 3752.00    0.65558   0.60944   -1.000
 3753.00    0.69635   0.64905   -1.000
 3754.00    0.68978   0.67830  219.095
 3755.00    0.72867   0.69172   -1.000
 3756.00    0.74507   0.68851   -1.000
 3757.00    0.68362   0.67272  211.063
 3758.00    0.68123   0.65711   -1.000
 3759.00    0.68702   0.65101   -1.000
 3760.00    0.66238   0.65492  267.808
 3761.00    0.67894   0.66566   -1.000
 3762.00    0.70986   0.67798   -1.000
 3763.00    0.70709   0.68437   -1.000
 3764.00    0.69038   0.68180  232.340
 3765.00    0.68979   0.67027   -1.000
 3766.00    0.67321   0.65214   -1.000
 3767.00    0.66127   0.62857   -1.000
 3768.00    0.65093   0.59916   -1.000
 3769.00    0.61974   0.56959   -1.000
 3770.00    0.61047   0.55350   -1.000
 3771.00    0.62365   0.56342   -1.000
 3772.00    0.64150   0.59563   -1.000
 3773.00    0.65727   0.63183   -1.000
 3774.00    0.68407   0.66045   -1.000
 3775.00    0.70680   0.68206   -1.000
 3776.00    0.71316   0.69998   -1.000
 3777.00    0.70000   0.71654   -1.000
 3778.00    0.72225   0.73106  208.450
 3779.00    0.75639   0.74290   -1.000
 3780.00    0.77977   0.75195   -1.000
 3781.00    0.77909   0.75746   -1.000
 3782.00    0.75431   0.75944  192.754
 3783.00    0.75710   0.75735  191.574
 3784.00    0.75864   0.75126  191.495
 3785.00    0.75768   0.74074   -1.000
 3786.00    0.73614   0.72790  204.837
 3787.00    0.71791   0.71763  219.648
 3788.00    0.72422   0.71173   -1.000
 3789.00    0.70863   0.70844  236.906
 3790.00    0.71799   0.70529   -1.000
 3791.00    0.72125   0.69905   -1.000
 3792.00    0.68552   0.68696  231.058
 3793.00    0.66800   0.66808  233.727
 3794.00    0.65896   0.64031   -1.000
 3795.00    0.64278   0.60376   -1.000
 3796.00    0.61813   0.56358   -1.000
 3797.00    0.56938   0.53109   -1.000
 3798.00    0.58013   0.52630   -1.000
 3799.00    0.60093   0.55672   -1.000
 3800.00    0.63281   0.60686   -1.000
 3801.00    0.66364   0.65566  252.542
 3802.00    0.70072   0.69221  231.920
 3803.00    0.70385   0.71501  220.498
 3804.00    0.72652   0.72705  214.916
 3805.00    0.71997   0.73031  213.165
 3806.00    0.69612   0.73016   -1.000
 3807.00    0.67794   0.73467   -1.000
 3808.00    0.71232   0.74561   -1.000
 3809.00    0.73829   0.75810   -1.000
 3810.00    0.73037   0.76465   -1.000
 3811.00    0.74934   0.75938  212.196
 3812.00    0.73200   0.74328  215.354
 3813.00    0.71482   0.72434  225.869
 3814.00    0.72658   0.71179   -1.000
 3815.00    0.72459   0.71026   -1.000
 3816.00    0.71494   0.71503  266.355
 3817.00    0.69338   0.71556   -1.000
 3818.00    0.69778   0.70593  254.981
 3819.00    0.69440   0.69073  257.034
 3820.00    0.68528   0.68322  272.988
 3821.00    0.65795   0.69056   -1.000
 3822.00    0.66971   0.70215   -1.000
 3823.00    0.70286   0.70316  272.786
 3824.00    0.66340   0.69382   -1.000
 3825.00    0.63322   0.68297   -1.000
 3826.00    0.62971   0.67641   37.836
 3827.00    0.63456   0.67344   32.259
 3828.00    0.64163   0.66924   32.137
 3829.00    0.65523   0.66095   31.651
 3830.00    0.66665   0.64610   31.131
 3831.00    0.62769   0.62156   31.372
 3832.00    0.59856   0.58686   32.638
 3833.00    0.58613   0.54554   35.078
 3834.00    0.55452   0.51063   36.452
 3835.00    0.55302   0.49882   36.020
 3836.00    0.56968   0.51314   34.668
 3837.00    0.58500   0.54398   33.802
 3838.00    0.60779   0.57966   34.285
 3839.00    0.61988   0.61442   35.108
 3840.00    0.62845   0.64743   34.723
 3841.00    0.66886   0.67843   32.941
 3842.00    0.70507   0.70564  118.134
 3843.00    0.70824   0.72659   -1.000
 3844.00    0.73289   0.73960  253.133
 3845.00    0.75366   0.74745  246.585
 3846.00    0.75458   0.75246  245.857
 3847.00    0.75063   0.75450  245.755
 3848.00    0.76416   0.75257   -1.000
 3849.00    0.76776   0.75039   -1.000
 3850.00    0.74199   0.75259  260.507
 3851.00    0.73420   0.75977   -1.000
 3852.00    0.73943   0.76547   -1.000
 3853.00    0.75876   0.76327  254.259
 3854.00    0.76259   0.75490  254.564
 3855.00    0.75718   0.74576   -1.000
 3856.00    0.74049   0.73899  267.916
 3857.00    0.73643   0.73484  272.545
 3858.00    0.72512   0.73229  276.924
 3859.00    0.69864   0.73355   36.222
 3860.00    0.68843   0.74087   31.562
 3861.00    0.73986   0.75025   31.322
 3862.00    0.77259   0.75470  110.331
 3863.00    0.78586   0.75278   -1.000
 3864.00    0.79107   0.75049   -1.000
 3865.00    0.78407   0.75001   -1.000
 3866.00    0.77693   0.75160   -1.000
 3867.00    0.76738   0.75581  249.449
 3868.00    0.77003   0.75894  254.135
 3869.00    0.76400   0.75693  263.411
 3870.00    0.73131   0.74892   -1.000
 3871.00    0.74214   0.73825  276.924
 3872.00    0.71894   0.73310   36.884
 3873.00    0.72947   0.74005  109.098
 3874.00    0.74881   0.75481  271.801
 3875.00    0.74761   0.76280   -1.000
 3876.00    0.75207   0.75643  235.479
 3877.00    0.75173   0.74323  240.003
 3878.00    0.70265   0.73476   -1.000
 3879.00    0.70468   0.73417   -1.000
 3880.00    0.71172   0.73458   -1.000
 3881.00    0.69652   0.72909   -1.000
 3882.00    0.68589   0.71967   -1.000
 3883.00    0.69845   0.70888  276.924
 3884.00    0.71342   0.69062   -1.000
 3885.00    0.68761   0.65696   -1.000
 3886.00    0.63741   0.61034   -1.000
 3887.00    0.61851   0.56374   -1.000
 3888.00    0.60387   0.53536   -1.000
 3889.00    0.60768   0.54003   -1.000
 3890.00    0.63609   0.57812   -1.000
 3891.00    0.68780   0.63260   -1.000
 3892.00    0.71825   0.68071   -1.000
 3893.00    0.73974   0.71141   -1.000
 3894.00    0.74053   0.72930  204.867
 3895.00    0.73445   0.74325  207.942
 3896.00    0.74164   0.75637  208.394
 3897.00    0.75406   0.76538  203.534
 3898.00    0.77495   0.76841  197.912
 3899.00    0.77652   0.76974  199.876
 3900.00    0.77122   0.77495  202.954
 3901.00    0.78774   0.78343  201.089
 3902.00    0.78134   0.78920  199.018
 3903.00    0.77111   0.78868   -1.000
 3904.00    0.78479   0.78407  207.676
 3905.00    0.76651   0.78025  213.483
 3906.00    0.75589   0.78398   -1.000
 3907.00    0.78839   0.79888  219.452
 3908.00    0.80784   0.81736  208.447
 3909.00    0.80988   0.82961   -1.000
 3910.00    0.81755   0.83513   -1.000
 3911.00    0.82313   0.83579  186.265
 3912.00    0.81879   0.83076  184.516
 3913.00    0.82981   0.82264  183.299
 3914.00    0.82530   0.81691  184.866
 3915.00    0.83095   0.81607   -1.000
 3916.00    0.82192   0.81713  192.784
 3917.00    0.81510   0.81501  195.628
 3918.00    0.82809   0.80782   -1.000
 3919.00    0.81950   0.79822   -1.000
 3920.00    0.78352   0.79117  211.887
 3921.00    0.76547   0.78843   -1.000
 3922.00    0.78306   0.78772  227.668
 3923.00    0.79156   0.78712  226.838
 3924.00    0.78758   0.78607  222.995
 3925.00    0.76978   0.78143  223.623
 3926.00    0.74786   0.77084   -1.000
 3927.00    0.72188   0.75551   -1.000
 3928.00    0.68240   0.73763   -1.000
 3929.00    0.62880   0.71774   -1.000
 3930.00    0.57419   0.69196   -1.000
 3931.00    0.51712   0.65564   -1.000
 3932.00    0.47018   0.61272   -1.000
 3933.00    0.42681   0.58763   -1.000
 3934.00    0.42064   0.60152   -1.000
 3935.00    0.45064   0.64267   -1.000
 3936.00    0.50757   0.68725   -1.000
 3937.00    0.57283   0.72395   -1.000
 3938.00    0.63655   0.75182   -1.000
 3939.00    0.69006   0.77406   34.054
 3940.00    0.72245   0.79057   -1.000
 3941.00    0.75094   0.79834   -1.000
 3942.00    0.76351   0.79808   -1.000
 3943.00    0.75853   0.79392   -1.000
 3944.00    0.76195   0.79257   -1.000
 3945.00    0.80256   0.79750  246.905
 3946.00    0.81703   0.80517   -1.000
 3947.00    0.81019   0.81120  211.469
 3948.00    0.81544   0.81570  207.213
 3949.00    0.83197   0.81943   -1.000
 3950.00    0.81771   0.82079  199.217
 3951.00    0.81702   0.82008  192.505
 3952.00    0.79541   0.82126   -1.000
 3953.00    0.82510   0.82579  194.428
 3954.00    0.84331   0.82795   -1.000
 3955.00    0.83203   0.82249  187.666
 3956.00    0.79599   0.81456  188.331
 3957.00    0.79901   0.81130  194.297
 3958.00    0.82542   0.81017   -1.000
 3959.00    0.80868   0.80200  196.115
 3960.00    0.77707   0.78274  198.990
 3961.00    0.77933   0.75887   -1.000
 3962.00    0.74177   0.73776  243.936
 3963.00    0.71805   0.71732  271.248
 3964.00    0.66747   0.69062   -1.000
 3965.00    0.60946   0.65029   39.469
 3966.00    0.52523   0.59170   35.700
 3967.00    0.44320   0.52497   -1.000
 3968.00    0.39262   0.47286   -1.000
 3969.00    0.38124   0.45542   -1.000
 3970.00    0.42530   0.47797   58.230
 3971.00    0.49548   0.53115   49.083
 3972.00    0.57990   0.59661   40.333
 3973.00    0.64496   0.65842   33.630
 3974.00    0.68936   0.70927  102.290
 3975.00    0.73395   0.74850   -1.000
 3976.00    0.76548   0.77823  227.597
 3977.00    0.77079   0.80136   -1.000
 3978.00    0.81787   0.82124  195.726
 3979.00    0.86406   0.83708   -1.000
 3980.00    0.85487   0.84559  175.294
 3981.00    0.85585   0.84750  171.670
 3982.00    0.83371   0.84785  172.229
 3983.00    0.86736   0.85255  175.152
 3984.00    0.88606   0.86074   -1.000
 3985.00    0.89925   0.86794   -1.000
 3986.00    0.90084   0.87278   -1.000
 3987.00    0.89552   0.87893   -1.000
 3988.00    0.91846   0.88671   -1.000
 3989.00    0.91714   0.89133   -1.000
 3990.00    0.92662   0.89455   -1.000
 3991.00    0.94235   0.89893   -1.000
 3992.00    0.93741   0.90392   -1.000
 3993.00    0.95456   0.90604   -1.000
 3994.00    0.95114   0.90316   -1.000
 3995.00    0.92549   0.89634   -1.000
 3996.00    0.91270   0.88937   -1.000
 3997.00    0.88440   0.88788  163.864
 3998.00    0.90008   0.89301  165.613
 3999.00    0.92520   0.90091   -1.000
 4000.00    0.94644   0.90760   -1.000
 4001.00    0.95485   0.91062   -1.000
 4002.00    0.94546   0.90839   -1.000
 4003.00    0.95198   0.90071   -1.000
 4004.00    0.97308   0.88961   -1.000
 4005.00    0.96912   0.88297   -1.000
 4006.00    0.93580   0.88867   -1.000
 4007.00    0.93673   0.90206   -1.000
 4008.00    0.95573   0.91334   -1.000
 4009.00    0.97783   0.91932   -1.000
 4010.00    0.97563   0.92311   -1.000
 4011.00    0.96404   0.92683   -1.000
 4012.00    0.96132   0.93009   -1.000
 4013.00    0.96170   0.93381   -1.000
 4014.00    0.96912   0.93783   -1.000
 4015.00    0.98882   0.94150   -1.000
 4016.00    0.98187   0.94580   -1.000
 4017.00    0.98194   0.95032   -1.000
 4018.00    0.98564   0.95481   -1.000
 4019.00    0.99614   0.95805   -1.000
 4020.00    1.00398   0.95764   -1.000
 4021.00    1.00146   0.95282   -1.000
 4022.00    0.98964   0.94266   -1.000
 4023.00    0.98018   0.92573   -1.000
 4024.00    0.97937   0.90850   -1.000
 4025.00    0.99563   0.90296   -1.000
 4026.00    1.00990   0.91382   -1.000
 4027.00    1.02045   0.93132   -1.000
 4028.00    1.02193   0.94083   -1.000
 4029.00    1.00456   0.93739   -1.000
 4030.00    0.97333   0.92645   -1.000
 4031.00    0.93700   0.91652   -1.000
 4032.00    0.95072   0.91316   -1.000
 4033.00    0.97812   0.91738   -1.000
 4034.00    0.97015   0.92961   -1.000
 4035.00    0.98636   0.94852   -1.000
 4036.00    1.02678   0.96964   -1.000
 4037.00    1.04624   0.98593   -1.000
 4038.00    1.04053   0.99158   -1.000
 4039.00    1.02610   0.98809   -1.000
 4040.00    1.00587   0.98371   -1.000
 4041.00    1.00000   0.98007  140.562
 4042.00    1.02852   0.97103   -1.000
 4043.00    1.01552   0.95139   -1.000
 4044.00    0.98228   0.92617   -1.000
 4045.00    0.95558   0.91265   -1.000
 4046.00    0.94415   0.92072   -1.000
 4047.00    0.96763   0.94411   -1.000
 4048.00    0.98482   0.96860  157.628
 4049.00    1.02558   0.98468   -1.000
 4050.00    1.04351   0.99114   -1.000
 4051.00    1.03068   0.98964   -1.000
 4052.00    1.04248   0.98212   -1.000
 4053.00    1.04045   0.97382   -1.000
 4054.00    1.01241   0.97054   -1.000
 4055.00    1.00345   0.97028   -1.000
 4056.00    1.02126   0.96948   -1.000
 4057.00    1.01825   0.97037   -1.000
 4058.00    1.01289   0.97628   -1.000
 4059.00    1.01558   0.98363   -1.000
 4060.00    1.03565   0.98170   -1.000
 4061.00    1.05248   0.96751   -1.000
 4062.00    1.00086   0.94871   -1.000
 4063.00    0.95249   0.93184   -1.000
 4064.00    0.96494   0.92163   -1.000
 4065.00    0.98474   0.92215   -1.000
 4066.00    0.99240   0.93253   -1.000
 4067.00    0.99477   0.94433   -1.000
 4068.00    1.02016   0.95210   -1.000
 4069.00    1.03851   0.95022   -1.000
 4070.00    1.02826   0.93876   -1.000
 4071.00    1.00214   0.92869   -1.000
 4072.00    1.00223   0.92985   -1.000
 4073.00    1.00369   0.93875   -1.000
 4074.00    0.99702   0.94152   -1.000
 4075.00    0.95661   0.93109   -1.000
 4076.00    0.93247   0.91543  152.549
 4077.00    0.93896   0.90911   -1.000
 4078.00    0.95116   0.92099   -1.000
 4079.00    0.96636   0.94610   -1.000
 4080.00    1.00368   0.97009   -1.000
 4081.00    1.02358   0.98100   -1.000
 4082.00    1.02631   0.97789   -1.000
 4083.00    1.01641   0.96824   -1.000
 4084.00    0.97791   0.96202  146.456
 4085.00    0.96514   0.96439  149.396
 4086.00    0.99942   0.97382   -1.000
 4087.00    1.03889   0.98470   -1.000
 4088.00    1.06997   0.99011   -1.000
 4089.00    1.06727   0.98799   -1.000
 4090.00    1.03849   0.98222   -1.000
 4091.00    1.03363   0.97877   -1.000
 4092.00    1.03756   0.97508   -1.000
 4093.00    1.02804   0.96523   -1.000
 4094.00    1.02458   0.94589   -1.000
 4095.00    0.99319   0.91762   -1.000
 4096.00    0.94852   0.88641   -1.000
 4097.00    0.93827   0.85344   -1.000
 4098.00    0.94849   0.81223   -1.000
 4099.00    0.89882   0.75827   -1.000
 4100.00    0.83785   0.69987   -1.000
 4101.00    0.79689   0.66301   -1.000
 4102.00    0.78365   0.67284   -1.000
 4103.00    0.82989   0.72808   -1.000
 4104.00    0.89082   0.80068   -1.000
 4105.00    0.94905   0.86168   -1.000
 4106.00    0.96918   0.90214   -1.000
 4107.00    0.99107   0.92603   -1.000
 4108.00    1.00441   0.93830   -1.000
 4109.00    0.98854   0.94498   -1.000
 4110.00    0.97652   0.95244   -1.000
 4111.00    0.99528   0.96270   -1.000
 4112.00    1.01480   0.97446   -1.000
 4113.00    1.02462   0.98687   -1.000
 4114.00    1.03079   0.99868   -1.000
 4115.00    1.04113   1.00570   -1.000
 4116.00    1.04456   1.00541   -1.000
 4117.00    1.03973   0.99854   -1.000
 4118.00    1.01879   0.99038   -1.000
 4119.00    1.00586   0.98604  149.974
 4120.00    1.02086   0.98649   -1.000
 4121.00    1.03452   0.99009   -1.000
 4122.00    1.04302   0.99548   -1.000
 4123.00    1.04705   1.00343   -1.000
 4124.00    1.04951   1.01282   -1.000
 4125.00    1.07497   1.01700   -1.000
 4126.00    1.07928   1.01093   -1.000
 4127.00    1.04825   0.99912   -1.000
 4128.00    1.04786   0.98990   -1.000
 4129.00    1.04490   0.98622   -1.000
 4130.00    1.03496   0.98320   -1.000
 4131.00    1.02562   0.97766   -1.000
 4132.00    1.01982   0.97485   -1.000
 4133.00    0.99521   0.98266  162.666
 4134.00    1.00781   1.00031  164.283
 4135.00    1.05783   1.02051   -1.000
 4136.00    1.08591   1.03691   -1.000
 4137.00    1.09109   1.04723   -1.000
 4138.00    1.10625   1.05368   -1.000
 4139.00    1.12231   1.05506   -1.000
 4140.00    1.10399   1.04619   -1.000
 4141.00    1.06706   1.02504   -1.000
 4142.00    1.03713   0.99862   -1.000
 4143.00    1.01237   0.98158   -1.000
 4144.00    1.00626   0.98636   -1.000
 4145.00    1.03668   1.00759   -1.000
 4146.00    1.07742   1.02794   -1.000
 4147.00    1.08944   1.03741   -1.000
 4148.00    1.07213   1.03766   -1.000
 4149.00    1.06432   1.03683   -1.000
 4150.00    1.06184   1.03879   -1.000
 4151.00    1.06917   1.04062   -1.000
 4152.00    1.07255   1.03922   -1.000
 4153.00    1.05861   1.03484   -1.000
 4154.00    1.05855   1.03138   -1.000
 4155.00    1.04453   1.03278  159.520
 4156.00    1.04947   1.03913  157.191
 4157.00    1.06520   1.04908  155.129
 4158.00    1.23146   1.05979   -1.000
 4159.00    1.40240   1.06680   -1.000
 4160.00    1.10495   1.06952   -1.000
 4161.00    0.86301   1.07178   -1.000
 4162.00    1.03473   1.07552   -1.000
 4163.00    1.14416   1.07893   -1.000
 4164.00    1.12784   1.08010   -1.000
 4165.00    1.10885   1.07716   -1.000
 4166.00    1.09679   1.06991   -1.000
 4167.00    1.10763   1.06349   -1.000
 4168.00    1.10855   1.06203   -1.000
 4169.00    1.10199   1.05933   -1.000
 4170.00    1.08902   1.04680   -1.000
 4171.00    1.05718   1.02598   -1.000
 4172.00    1.02047   1.00845  159.909
 4173.00    1.01707   1.00634  169.748
 4174.00    1.03354   1.01878  172.832
 4175.00    1.04947   1.03262  168.199
 4176.00    1.05475   1.03760  162.042
 4177.00    1.06320   1.03659   -1.000
 4178.00    1.06902   1.03946   -1.000
 4179.00    1.07374   1.04795   -1.000
 4180.00    1.08941   1.05550   -1.000
 4181.00    1.09034   1.05856   -1.000
 4182.00    1.09363   1.06017   -1.000
 4183.00    1.10734   1.06505   -1.000
 4184.00    1.10922   1.07032   -1.000
 4185.00    1.10989   1.06930   -1.000
 4186.00    1.09494   1.06220   -1.000
 4187.00    1.08771   1.05594   -1.000
 4188.00    1.08736   1.05614   -1.000
 4189.00    1.07202   1.05989  158.022
 4190.00    1.06990   1.06330  154.922
 4191.00    1.09117   1.06845   -1.000
 4192.00    1.11909   1.07577   -1.000
 4193.00    1.12848   1.07908   -1.000
 4194.00    1.12751   1.07222   -1.000
 4195.00    1.11230   1.05619   -1.000
 4196.00    1.06859   1.03722   -1.000
 4197.00    1.05395   1.01942   -1.000
 4198.00    1.05569   1.00474   -1.000
 4199.00    1.05269   0.99753   -1.000
 4200.00    1.05826   0.99987   -1.000
 4201.00    1.05851   1.00915   -1.000
 4202.00    1.06278   1.02345   -1.000
 4203.00    1.07898   1.04090   -1.000
 4204.00    1.07408   1.05835  158.638
 4205.00    1.06639   1.07469  157.122
 4206.00    1.08812   1.08912  154.583
 4207.00    1.11046   1.09851  150.903
 4208.00    1.13425   1.10070   -1.000
 4209.00    1.14238   1.09863   -1.000
 4210.00    1.12542   1.09806   -1.000
 4211.00    1.12544   1.10050   -1.000
 4212.00    1.14468   1.10035   -1.000
 4213.00    1.14337   1.09130   -1.000
 4214.00    1.11359   1.07538   -1.000
 4215.00    1.08423   1.06397   -1.000
 4216.00    1.08955   1.06795   -1.000
 4217.00    1.10631   1.08751  158.578
 4218.00    1.12158   1.10989  149.538
 4219.00    1.15347   1.12309   -1.000
 4220.00    1.16628   1.12528   -1.000
 4221.00    1.15426   1.11636   -1.000
 4222.00    1.13853   1.09487   -1.000
 4223.00    1.11209   1.06245   -1.000
 4224.00    1.07240   1.02573   -1.000
 4225.00    1.00982   0.99546  162.869
 4226.00    0.96312   0.98497   -1.000
 4227.00    0.99316   1.00374  201.123
 4228.00    1.05115   1.04370  195.987
 4229.00    1.09802   1.08149  172.684
 4230.00    1.13552   1.10051   -1.000
 4231.00    1.14603   1.09811   -1.000
 4232.00    1.13988   1.08393   -1.000
 4233.00    1.12641   1.07265   -1.000
 4234.00    1.11333   1.07085   -1.000
 4235.00    1.11031   1.07527   -1.000
 4236.00    1.09065   1.08185  151.462
 4237.00    1.07741   1.09009  154.476
 4238.00    1.10674   1.10029  154.393
 4239.00    1.13034   1.11092  151.373
 4240.00    1.13399   1.11990  148.813
 4241.00    1.13100   1.12706  146.163
 4242.00    1.14428   1.13562  143.949
 4243.00    1.16073   1.14593  142.977
 4244.00    1.15902   1.15174  141.030
 4245.00    1.16118   1.14616  138.165
 4246.00    1.15026   1.13011   -1.000
 4247.00    1.12011   1.11302  143.477
 4248.00    1.09502   1.10230  149.375
 4249.00    1.06962   1.09849   -1.000
 4250.00    1.07081   1.10027   -1.000
 4251.00    1.10928   1.10598  156.002
 4252.00    1.13901   1.11021   -1.000
 4253.00    1.13779   1.10765   -1.000
 4254.00    1.13300   1.10585   -1.000
 4255.00    1.11909   1.11343  150.922
 4256.00    1.12496   1.12367  150.703
 4257.00    1.14414   1.12442  145.755
 4258.00    1.13647   1.11235   -1.000
 4259.00    1.11850   1.09780   -1.000
 4260.00    1.09396   1.09526  154.494
 4261.00    1.09576   1.11134  159.899
 4262.00    1.13392   1.13965  156.611
 4263.00    1.15966   1.16555  147.705
 4264.00    1.17721   1.17972  140.039
 4265.00    1.18742   1.18102  135.866
 4266.00    1.18022   1.17376  134.784
 4267.00    1.17776   1.16068  136.318
 4268.00    1.17212   1.14084   -1.000
 4269.00    1.15603   1.11553   -1.000
 4270.00    1.11701   1.08931   -1.000
 4271.00    1.06422   1.06937  158.643
 4272.00    1.05343   1.06354  168.750
 4273.00    1.07123   1.07083  172.992
 4274.00    1.06750   1.08642   -1.000
 4275.00    1.07731   1.11068   -1.000
 4276.00    1.12689   1.13984  159.745
 4277.00    1.16444   1.16170  150.159
 4278.00    1.19485   1.16854   -1.000
 4279.00    1.15836   1.16378  140.442
 4280.00    1.10884   1.15698   -1.000
 4281.00    1.09455   1.15405   -1.000
 4282.00    1.13143   1.15419   -1.000
 4283.00    1.15913   1.15327  150.828
 4284.00    1.13410   1.15037  149.198
 4285.00    1.11601   1.14475   -1.000
 4286.00    1.11246   1.13522   -1.000
 4287.00    1.09026   1.12123   -1.000
 4288.00    1.07103   1.10212   -1.000
 4289.00    1.04980   1.08476   -1.000
 4290.00    1.04224   1.08270   -1.000
 4291.00    1.05025   1.09860   -1.000
 4292.00    1.08866   1.11706   -1.000
 4293.00    1.11292   1.12351  159.696
 4294.00    1.10488   1.11840  154.578
 4295.00    1.10057   1.10967  154.853
 4296.00    1.09964   1.09925  157.161
 4297.00    1.06558   1.08269  160.487
 4298.00    1.02902   1.05911   -1.000
 4299.00    0.98787   1.03720   -1.000
 4300.00    0.96570   1.02563   -1.000
 4301.00    0.97903   1.02540   -1.000
 4302.00    0.99190   1.03267   -1.000
 4303.00    0.99517   1.04583   -1.000
 4304.00    1.00700   1.05936   -1.000
 4305.00    1.02195   1.06254   -1.000
 4306.00    0.99967   1.05192   -1.000
 4307.00    0.96439   1.03711   -1.000
 4308.00    0.95672   1.03278   -1.000
 4309.00    0.95963   1.04555   -1.000
 4310.00    0.97750   1.06788   -1.000
 4311.00    0.99981   1.08753   -1.000
 4312.00    1.03214   1.10213   -1.000
 4313.00    1.05502   1.11950   -1.000
 4314.00    1.08792   1.14984   -1.000
 4315.00    1.15166   1.19177   -1.000
 4316.00    1.22651   1.22952  145.942
 4317.00    1.26590   1.25113  134.384
 4318.00    1.24232   1.25433  128.118
 4319.00    1.24574   1.24563  126.863
 4320.00    1.23265   1.23157  128.338
 4321.00    1.21643   1.21249  131.024
 4322.00    1.19097   1.18586  135.055
 4323.00    1.13622   1.15137  141.123
 4324.00    1.08528   1.11997   -1.000
 4325.00    1.07768   1.11184   -1.000
 4326.00    1.10388   1.13805   -1.000
 4327.00    1.16518   1.18235   -1.000
 4328.00    1.22596   1.21526  150.427
 4329.00    1.24758   1.22644  138.063
 4330.00    1.23615   1.22395  133.357
 4331.00    1.24522   1.22224   -1.000
 4332.00    1.24221   1.22398  132.829
 4333.00    1.22704   1.22121  130.930
 4334.00    1.22630   1.20481  129.278
 4335.00    1.20900   1.16424   -1.000
 4336.00    1.16647   1.09341   -1.000
 4337.00    1.10234   1.00162   -1.000
 4338.00    1.03579   0.91275   -1.000
 4339.00    0.94507   0.85306   -1.000
 4340.00    0.88834   0.84511   -1.000
 4341.00    0.95084   0.89432   -1.000
 4342.00    1.07641   0.97704   -1.000
 4343.00    1.14024   1.05711   -1.000
 4344.00    1.16803   1.11718   -1.000
 4345.00    1.19844   1.16149   -1.000
 4346.00    1.21074   1.19793  137.909
 4347.00    1.22669   1.22676  135.160
 4348.00    1.24386   1.24062  133.509
 4349.00    1.26159   1.23163   -1.000
 4350.00    1.24081   1.20563   -1.000
 4351.00    1.18287   1.18464  136.344
 4352.00    1.15458   1.18652   -1.000
 4353.00    1.18876   1.20991   -1.000
 4354.00    1.24907   1.24023  146.860
 4355.00    1.27190   1.26349  140.229
 4356.00    1.26749   1.27542  135.295
 4357.00    1.27992   1.27787  132.117
 4358.00    1.28055   1.27603  131.352
 4359.00    1.26740   1.27771  133.430
 4360.00    1.25696   1.28697   -1.000
 4361.00    1.25794   1.29949   -1.000
 4362.00    1.29815   1.31038  130.410
 4363.00    1.34082   1.32019  128.171
 4364.00    1.34255   1.32665  127.435
 4365.00    1.32505   1.32223  126.286
 4366.00    1.29589   1.30531  125.756
 4367.00    1.27402   1.28530  128.449
 4368.00    1.27388   1.27235  133.042
 4369.00    1.28085   1.26725  135.580
 4370.00    1.28075   1.26398  135.024
 4371.00    1.28891   1.25775   -1.000
 4372.00    1.27923   1.24479   -1.000
 4373.00    1.24008   1.22588  134.566
 4374.00    1.22482   1.21168  138.816
 4375.00    1.21859   1.21561  144.509
 4376.00    1.22791   1.23723  146.332
 4377.00    1.28015   1.26135  141.988
 4378.00    1.30926   1.27438   -1.000
 4379.00    1.31703   1.27110   -1.000
 4380.00    1.32809   1.25016   -1.000
 4381.00    1.31121   1.21085   -1.000
 4382.00    1.25390   1.16073   -1.000
 4383.00    1.17000   1.12158   -1.000
 4384.00    1.13350   1.11724  168.169
 4385.00    1.17292   1.14529   -1.000
 4386.00    1.23700   1.18099   -1.000
 4387.00    1.27022   1.20564   -1.000
 4388.00    1.26973   1.21820   -1.000
 4389.00    1.27016   1.22600   -1.000
 4390.00    1.27196   1.23385   -1.000
 4391.00    1.27912   1.24486   -1.000
 4392.00    1.29838   1.25365   -1.000
 4393.00    1.30225   1.25284   -1.000
 4394.00    1.28558   1.25097   -1.000
 4395.00    1.27892   1.26137  138.770
 4396.00    1.29714   1.28177  139.427
 4397.00    1.30477   1.29445  134.710
 4398.00    1.31456   1.28819   -1.000
 4399.00    1.30244   1.27333   -1.000
 4400.00    1.28364   1.26589  134.100
 4401.00    1.29256   1.26704   -1.000
 4402.00    1.31963   1.26289   -1.000
 4403.00    1.32043   1.24556   -1.000
 4404.00    1.27928   1.22793   -1.000
 4405.00    1.25322   1.22545   -1.000
 4406.00    1.26138   1.23700   -1.000
 4407.00    1.25420   1.25299  146.318
 4408.00    1.25194   1.27065  143.186
 4409.00    1.27836   1.29447  141.728
 4410.00    1.32796   1.32080  137.584
 4411.00    1.35956   1.33613  131.777
 4412.00    1.35273   1.33154  126.930
 4413.00    1.36374   1.30711   -1.000
 4414.00    1.34773   1.27322   -1.000
 4415.00    1.30335   1.25034   -1.000
 4416.00    1.27897   1.25370   -1.000
 4417.00    1.29168   1.28005  139.441
 4418.00    1.32897   1.31488  135.692
 4419.00    1.36329   1.34194  130.232
 4420.00    1.35705   1.34811  125.993
 4421.00    1.33151   1.33746  125.396
 4422.00    1.32272   1.32555  127.993
 4423.00    1.31476   1.32196  130.724
 4424.00    1.30850   1.32433  130.945
 4425.00    1.31392   1.32496  130.198
 4426.00    1.29844   1.32344   -1.000
 4427.00    1.27337   1.32415   -1.000
 4428.00    1.27691   1.32718   -1.000
 4429.00    1.28973   1.33117   -1.000
 4430.00    1.29618   1.33544   -1.000
 4431.00    1.31934   1.33845  131.331
 4432.00    1.33205   1.33583  130.391
 4433.00    1.31508   1.32370  129.154
 4434.00    1.29344   1.30927  131.719
 4435.00    1.28311   1.31009   -1.000
 4436.00    1.30407   1.33342   -1.000
 4437.00    1.35983   1.36782  137.456
 4438.00    1.40605   1.39334  129.736
 4439.00    1.42469   1.39642  123.409
 4440.00    1.40855   1.37695   -1.000
 4441.00    1.35547   1.34780  124.136
 4442.00    1.32135   1.32854  129.560
 4443.00    1.30871   1.33327   -1.000
 4444.00    1.32492   1.36145   -1.000
 4445.00    1.37211   1.39501   -1.000
 4446.00    1.38994   1.41615   -1.000
 4447.00    1.41097   1.42239  124.964
 4448.00    1.42259   1.42100  124.294
 4449.00    1.40420   1.41761  124.527
 4450.00    1.40066   1.41399  125.538
 4451.00    1.40916   1.40963  126.863
 4452.00    1.41030   1.39783  126.618
 4453.00    1.40245   1.37458   -1.000
 4454.00    1.36068   1.34936  130.279
 4455.00    1.32236   1.33665  136.015
 4456.00    1.34526   1.34114  140.031
 4457.00    1.37585   1.35255  139.294
 4458.00    1.37413   1.35973  136.728
 4459.00    1.36844   1.36098  135.981
 4460.00    1.36472   1.36093  136.545
 4461.00    1.35707   1.36582  137.753
 4462.00    1.37659   1.37870  139.073
 4463.00    1.40831   1.39529  137.626
 4464.00    1.42832   1.40789  132.969
 4465.00    1.43307   1.41130  129.083
 4466.00    1.42811   1.40421  127.995
 4467.00    1.42059   1.38989   -1.000
 4468.00    1.39296   1.37401  129.065
 4469.00    1.37880   1.36441  131.259
 4470.00    1.40054   1.36857   -1.000
 4471.00    1.43180   1.38803   -1.000
 4472.00    1.45425   1.41799   -1.000
 4473.00    1.48616   1.44937   -1.000
 4474.00    1.53132   1.47259   -1.000
 4475.00    1.53628   1.48480   -1.000
 4476.00    1.51808   1.49091   -1.000
 4477.00    1.51699   1.49055   -1.000
 4478.00    1.51957   1.47498   -1.000
 4479.00    1.51349   1.44125   -1.000
 4480.00    1.49224   1.40466   -1.000
 4481.00    1.45711   1.39164   -1.000
 4482.00    1.44525   1.41081   -1.000
 4483.00    1.48119   1.44945   -1.000
 4484.00    1.50983   1.48893  126.078
 4485.00    1.52294   1.51273  121.029
 4486.00    1.54483   1.51241   -1.000
 4487.00    1.54162   1.49160   -1.000
 4488.00    1.50806   1.46517   -1.000
 4489.00    1.48011   1.44999   -1.000
 4490.00    1.47872   1.45352   -1.000
 4491.00    1.50901   1.46769   -1.000
 4492.00    1.52107   1.47864   -1.000
 4493.00    1.51130   1.47732   -1.000
 4494.00    1.49319   1.46931  121.810
 4495.00    1.45988   1.46876  124.992
 4496.00    1.46354   1.47959  128.142
 4497.00    1.48628   1.49415  128.140
 4498.00    1.49458   1.50286  124.628
 4499.00    1.50720   1.50136  120.775
 4500.00    1.52979   1.49538   -1.000
 4501.00    1.50967   1.49940  119.378
 4502.00    1.49373   1.52088   -1.000
 4503.00    1.52674   1.55077  118.510
 4504.00    1.56193   1.57350  114.675
 4505.00    1.58990   1.58020  111.963
 4506.00    1.58063   1.57232  111.814
 4507.00    1.56059   1.55970  113.643
 4508.00    1.56446   1.55382  115.228
 4509.00    1.57471   1.55747  115.648
 4510.00    1.58688   1.56320  115.075
 4511.00    1.60444   1.56225   -1.000
 4512.00    1.59055   1.55277   -1.000
 4513.00    1.57078   1.53931   -1.000
 4514.00    1.55885   1.52787   -1.000
 4515.00    1.54830   1.52380   -1.000
 4516.00    1.54927   1.52641  119.694
 4517.00    1.54398   1.52866  119.395
 4518.00    1.53344   1.52846  120.324
 4519.00    1.54934   1.53011  121.341
 4520.00    1.55258   1.53428  120.225
 4521.00    1.55312   1.53557  117.893
 4522.00    1.54403   1.52983  117.291
 4523.00    1.53027   1.52016  119.279
 4524.00    1.51016   1.51120  121.915
 4525.00    1.50040   1.50040  123.455
 4526.00    1.50767   1.48331  125.129
 4527.00    1.50333   1.46159   -1.000
 4528.00    1.48361   1.44388   -1.000
 4529.00    1.47351   1.44077   -1.000
 4530.00    1.48399   1.45312   -1.000
 4531.00    1.49107   1.46727  132.462
 4532.00    1.49532   1.46788   -1.000
 4533.00    1.48257   1.45605   -1.000
 4534.00    1.46258   1.44834  130.892
 4535.00    1.46697   1.46063  135.184
 4536.00    1.49657   1.49408  135.710
 4537.00    1.55285   1.53266  129.877
 4538.00    1.59847   1.55524   -1.000
 4539.00    1.60041   1.55223   -1.000
 4540.00    1.57738   1.53364   -1.000
 4541.00    1.56990   1.51933   -1.000
 4542.00    1.58341   1.51953   -1.000
 4543.00    1.58161   1.52849   -1.000
 4544.00    1.55185   1.53630  119.177
 4545.00    1.51074   1.54031   -1.000
 4546.00    1.57434   1.54185   74.545
 4547.00    1.12659   1.53720   -1.000
 4548.00    0.28176   1.52347   -1.000
 4549.00   -0.05487   1.51076    0.000
 4550.00    0.46065   1.51400   -1.000
 4551.00    0.81222   1.52978   -1.000
 4552.00    0.69036   1.53853   -1.000
 4553.00    1.19781   1.53126   -1.000
 4554.00    1.53141   1.51923  126.045
 4555.00    1.50231   1.52023  127.540
 4556.00    1.55504   1.54216  126.728
 4557.00    1.59872   1.57519  123.002
 4558.00    1.62399   1.60327  118.144
 4559.00    1.64378   1.62197  115.076
 4560.00    1.64000   1.63349  114.792
 4561.00    1.61725   1.63450  115.047
 4562.00    1.59754   1.62101  115.030
 4563.00    1.58268   1.59882  116.725
 4564.00    1.56641   1.58273  119.641
 4565.00    1.56705   1.58346  122.047
 4566.00    1.59158   1.60005  121.948
 4567.00    1.62856   1.62243  119.411
 4568.00    1.65276   1.63734  116.255
 4569.00    1.65304   1.63649  114.377
 4570.00    1.61735   1.62081  114.777
 4571.00    1.56830   1.60183   -1.000
 4572.00    1.54945   1.59741   -1.000
 4573.00    1.58780   1.61235  120.860
 4574.00    1.62964   1.63086  118.125
 4575.00    1.62986   1.63917  115.672
 4576.00    1.63214   1.63912  115.140
 4577.00    1.63850   1.63504  115.537
 4578.00    1.61610   1.62355  116.166
 4579.00    1.58579   1.60337  117.660
 4580.00    1.57226   1.58291  120.651
 4581.00    1.56325   1.56969  123.619
 4582.00    1.57320   1.56359  124.340
 4583.00    1.57942   1.56414  123.043
 4584.00    1.58230   1.57201  121.788
 4585.00    1.59450   1.58516  121.693
 4586.00    1.61677   1.60031  122.338
 4587.00    1.63662   1.61515  121.583
 4588.00    1.64642   1.62753  118.893
 4589.00    1.63731   1.63355  116.107
 4590.00    1.62668   1.63126  115.074
 4591.00    1.62034   1.62300  116.101
 4592.00    1.62116   1.61556  118.138
 4593.00    1.61486   1.61532  120.276
 4594.00    1.61546   1.62147  121.151
 4595.00    1.62288   1.63013  120.507
 4596.00    1.62429   1.63950  119.503
 4597.00    1.63193   1.64793  118.949
 4598.00    1.64379   1.65202  118.688
 4599.00    1.63912   1.64992  118.429
 4600.00    1.63115   1.64421  118.967
 4601.00    1.61390   1.63987  120.062
 4602.00    1.60849   1.63952   -1.000
 4603.00    1.62719   1.64110  120.007
 4604.00    1.64752   1.64310  118.648
 4605.00    1.66101   1.64837  118.252
 4606.00    1.66483   1.66012  118.244
 4607.00    1.67414   1.67802  117.364
 4608.00    1.69548   1.69891  115.414
 4609.00    1.71511   1.71528  112.987
 4610.00    1.71473   1.71956  111.231
 4611.00    1.70083   1.71380  111.051
 4612.00    1.68083   1.70611  112.224
 4613.00    1.67028   1.70302   -1.000
 4614.00    1.67916   1.70504  114.548
 4615.00    1.69035   1.70691  114.477
 4616.00    1.70208   1.70491  113.599
 4617.00    1.69852   1.70012  112.917
 4618.00    1.67643   1.69608  113.215
 4619.00    1.68762   1.69642  114.056
 4620.00    1.71407   1.70419  114.322
 4621.00    1.71479   1.71887  113.587
 4622.00    1.72266   1.73315  112.033
 4623.00    1.72569   1.73980  111.296
 4624.00    1.71968   1.73915  111.498
 4625.00    1.71556   1.73402  111.748
 4626.00    1.70840   1.72687  112.458
 4627.00    1.70125   1.71969  113.054
 4628.00    1.70323   1.71283  113.106
 4629.00    1.71244   1.70947  113.519
 4630.00    1.71830   1.71472  113.978
 4631.00    1.72330   1.72657  113.713
 4632.00    1.71613   1.73403  112.667
 4633.00    1.68063   1.72915   -1.000
 4634.00    1.69130   1.71803  113.677
 4635.00    1.70350   1.71185  115.126
 4636.00    1.70567   1.71122  115.553
 4637.00    1.71143   1.71087  116.042
 4638.00    1.71739   1.70988  117.376
 4639.00    1.72134   1.71225  118.301
 4640.00    1.71981   1.72198  118.364
 4641.00    1.72652   1.73690  117.061
 4642.00    1.74845   1.74900  114.489
 4643.00    1.75637   1.74877  112.407
 4644.00    1.74531   1.73429  112.098
 4645.00    1.72863   1.71028  113.586
 4646.00    1.70103   1.68406  116.400
 4647.00    1.68738   1.66880  119.683
 4648.00    1.69429   1.67311  121.315
 4649.00    1.70162   1.69344  120.147
 4650.00    1.71942   1.71913  117.535
 4651.00    1.73551   1.73897  115.455
 4652.00    1.72234   1.74770  114.730
 4653.00    1.69516   1.74585   -1.000
 4654.00    1.69096   1.73687   -1.000
 4655.00    1.68292   1.72850   -1.000
 4656.00    1.68595   1.73145   -1.000
 4657.00    1.71870   1.75256   -1.000
 4658.00    1.75694   1.78676   -1.000
 4659.00    1.78259   1.81749   -1.000
 4660.00    1.80391   1.82922  109.035
 4661.00    1.79138   1.82025  108.028
 4662.00    1.75705   1.80050   -1.000
 4663.00    1.74535   1.77929   -1.000
 4664.00    1.75233   1.75862  113.472
 4665.00    1.74927   1.73369  114.518
 4666.00    1.72396   1.70317  115.690
 4667.00    1.68859   1.67852  119.450
 4668.00    1.65572   1.67350  124.594
 4669.00    1.65304   1.69047   -1.000
 4670.00    1.70158   1.72075  124.351
 4671.00    1.75349   1.75145  119.589
 4672.00    1.76854   1.77149  115.606
 4673.00    1.76353   1.77993  113.975
 4674.00    1.76228   1.78569  113.815
 4675.00    1.78495   1.79462  113.799
 4676.00    1.80992   1.80153  112.860
 4677.00    1.79330   1.79756  111.215
 4678.00    1.76815   1.78199  110.853
 4679.00    1.75782   1.76343  112.565
 4680.00    1.73461   1.75013  114.937
 4681.00    1.72184   1.74352  116.984
 4682.00    1.72553   1.74287  118.437
 4683.00    1.76012   1.74628  118.006
 4684.00    1.81206   1.74898   -1.000
 4685.00    1.80826   1.74921   -1.000
 4686.00    1.79451   1.75076   -1.000
 4687.00    1.80373   1.75822   -1.000
 4688.00    1.80761   1.77119   -1.000
 4689.00    1.78979   1.78415  114.002
 4690.00    1.77815   1.79135  113.992
 4691.00    1.78730   1.79268  114.481
 4692.00    1.79568   1.79544  114.986
 4693.00    1.80079   1.80384  114.261
 4694.00    1.82423   1.81404  112.655
 4695.00    1.85195   1.82139   -1.000
 4696.00    1.84414   1.82135  108.606
 4697.00    1.82066   1.80978  108.373
 4698.00    1.79717   1.79063  110.468
 4699.00    1.77444   1.77401  113.826
 4700.00    1.77886   1.76447  116.042
 4701.00    1.79413   1.75777   -1.000
 4702.00    1.77615   1.75179  116.048
 4703.00    1.76816   1.75250  117.664
 4704.00    1.77133   1.76321  118.928
 4705.00    1.77489   1.77577  117.812
 4706.00    1.76997   1.77787  115.790
 4707.00    1.75602   1.76815  116.023
 4708.00    1.74234   1.75947  118.154
 4709.00    1.74677   1.76331  119.834
 4710.00    1.77725   1.77725  119.915
 4711.00    1.79499   1.79114  117.527
 4712.00    1.80685   1.79661  114.127
 4713.00    1.81920   1.79317  112.169
 4714.00    1.80515   1.79052  112.377
 4715.00    1.78442   1.79935  114.124
 4716.00    1.80554   1.82058  115.068
 4717.00    1.84080   1.84465  113.671
 4718.00    1.84708   1.86168  111.394
 4719.00    1.84728   1.87031  110.098
 4720.00    1.84050   1.87378   -1.000
 4721.00    1.82256   1.87446   -1.000
 4722.00    1.81203   1.87442   -1.000
 4723.00    1.81084   1.87651   -1.000
 4724.00    1.82459   1.87930   -1.000
 4725.00    1.83430   1.87553   -1.000
 4726.00    1.82293   1.85859   -1.000
 4727.00    1.79912   1.83052   -1.000
 4728.00    1.77258   1.80413   -1.000
 4729.00    1.76676   1.78993  117.683
 4730.00    1.78735   1.78833  118.498
 4731.00    1.80768   1.79751  117.529
 4732.00    1.82532   1.81482  116.467
 4733.00    1.83479   1.83296  115.276
 4734.00    1.81950   1.84381  114.097
 4735.00    1.81398   1.84581   -1.000
 4736.00    1.81812   1.84438  112.687
 4737.00    1.80804   1.84598   -1.000
 4738.00    1.82432   1.85293  113.769
 4739.00    1.85375   1.86196  112.948
 4740.00    1.84912   1.86699  112.303
 4741.00    1.83908   1.86798  112.744
 4742.00    1.85377   1.87057  113.128
 4743.00    1.86794   1.87619  112.656
 4744.00    1.85750   1.88273  111.534
 4745.00    1.86145   1.88867  111.128
 4746.00    1.87507   1.89486  111.324
 4747.00    1.87264   1.90407   -1.000
 4748.00    1.87809   1.91581   -1.000
 4749.00    1.87274   1.92690   -1.000
 4750.00    1.87355   1.93289   -1.000
 4751.00    1.88761   1.92974   -1.000
 4752.00    1.87460   1.91867   -1.000
 4753.00    1.85279   1.90413   -1.000
 4754.00    1.85409   1.89215   -1.000
 4755.00    1.85457   1.88773   -1.000
 4756.00    1.83938   1.89101   -1.000
 4757.00    1.82851   1.89852   -1.000
 4758.00    1.83025   1.90656   -1.000
 4759.00    1.83318   1.91239   -1.000
 4760.00    1.83435   1.91032   -1.000
 4761.00    1.82133   1.89518   -1.000
 4762.00    1.80396   1.86891   -1.000
 4763.00    1.78863   1.84276   -1.000
 4764.00    1.77894   1.82876   -1.000
 4765.00    1.79663   1.82856   -1.000
 4766.00    1.81553   1.83845  119.455
 4767.00    1.84146   1.85728  118.862
 4768.00    1.87606   1.88319  117.551
 4769.00    1.89504   1.90664  115.306
 4770.00    1.89439   1.91697  113.231
 4771.00    1.88426   1.91487   -1.000
 4772.00    1.86401   1.91183   -1.000
 4773.00    1.86100   1.91895   -1.000
 4774.00    1.89537   1.93535   -1.000
 4775.00    1.92936   1.95109  112.031
 4776.00    1.91879   1.95938   -1.000
 4777.00    1.88244   1.95859   -1.000
 4778.00    1.86972   1.95040   -1.000
 4779.00    1.86409   1.93908   -1.000
 4780.00    1.85514   1.93061   -1.000
 4781.00    1.86091   1.92650   -1.000
 4782.00    1.87248   1.92214   -1.000
 4783.00    1.87654   1.91615   -1.000
 4784.00    1.88002   1.91125   -1.000
 4785.00    1.88487   1.90875  115.072
 4786.00    1.88027   1.90889   -1.000
 4787.00    1.87048   1.91197   -1.000
 4788.00    1.85664   1.91758   -1.000
 4789.00    1.85260   1.92543   -1.000
 4790.00    1.87591   1.93671   -1.000
 4791.00    1.89827   1.95241   -1.000
 4792.00    1.91346   1.97298   -1.000
 4793.00    1.93384   1.99636   -1.000
 4794.00    1.94550   2.01789   -1.000
 4795.00    1.95350   2.03092   -1.000
 4796.00    1.94766   2.02901   -1.000
 4797.00    1.92114   2.01304   -1.000
 4798.00    1.89866   1.99229   -1.000
 4799.00    1.88086   1.97913   -1.000
 4800.00    1.88219   1.98173   -1.000
 4801.00    1.91677   1.99827   -1.000
 4802.00    1.95195   2.01633   -1.000
 4803.00    1.94303   2.02197   -1.000
 4804.00    1.92328   2.01224   -1.000
 4805.00    1.92607   1.99789   -1.000
 4806.00    1.92450   1.98972   -1.000
 4807.00    1.91581   1.98929   -1.000
 4808.00    1.92275   1.99446   -1.000
 4809.00    1.94014   2.00318   -1.000
 4810.00    1.93871   2.01091   -1.000
 4811.00    1.94665   2.01494   -1.000
 4812.00    1.96143   2.01839   -1.000
 4813.00    1.95815   2.02456   -1.000
 4814.00    1.95530   2.03427   -1.000
 4815.00    1.95086   2.04676   -1.000
 4816.00    1.95157   2.05939   -1.000
 4817.00    1.96659   2.06917   -1.000
 4818.00    1.97711   2.07489   -1.000
 4819.00    1.96534   2.07737   -1.000
 4820.00    1.96629   2.07449   -1.000
 4821.00    1.99010   2.05964   -1.000
 4822.00    1.98010   2.03103   -1.000
 4823.00    1.93261   1.99927   -1.000
 4824.00    1.89960   1.98374   -1.000
 4825.00    1.91192   1.99385   -1.000
 4826.00    1.94164   2.01697   -1.000
 4827.00    1.94195   2.03318   -1.000
 4828.00    1.93025   2.03525   -1.000
 4829.00    1.93622   2.03047   -1.000
 4830.00    1.93927   2.02408   -1.000
 4831.00    1.93548   2.01502   -1.000
 4832.00    1.93726   2.00789   -1.000
 4833.00    1.93965   2.00965   -1.000
 4834.00    1.95159   2.01962   -1.000
 4835.00    1.97250   2.03153   -1.000
 4836.00    1.98080   2.03962   -1.000
 4837.00    1.98463   2.04156   -1.000
 4838.00    1.98636   2.03654   -1.000
 4839.00    1.95910   2.02635   -1.000
 4840.00    1.92723   2.01689   -1.000
 4841.00    1.92415   2.01297   -1.000
 4842.00    1.93244   2.01394   -1.000
 4843.00    1.95484   2.01696   -1.000
 4844.00    1.97944   2.02354   -1.000
 4845.00    1.97970   2.03416   -1.000
 4846.00    1.98159   2.03915   -1.000
 4847.00    1.97707   2.03044   -1.000
 4848.00    1.94415   2.01573   -1.000
 4849.00    1.92680   2.00915   -1.000
 4850.00    1.94037   2.01339   -1.000
 4851.00    1.95181   2.01725   -1.000
 4852.00    1.96307   2.00895   -1.000
 4853.00    1.95798   1.98208  111.528
 4854.00    1.92301   1.93872  112.353
 4855.00    1.88467   1.89190  114.577
 4856.00    1.87260   1.85349  117.988
 4857.00    1.87355   1.81627   -1.000
 4858.00    1.82411   1.75294   -1.000
 4859.00    1.66781   1.64742   -1.000
 4860.00    1.47841   1.52498   -1.000
 4861.00    1.39737   1.44509   -1.000
 4862.00    1.48224   1.45320   -1.000
 4863.00    1.66678   1.53739   -1.000
 4864.00    1.79569   1.65112   -1.000
 4865.00    1.84443   1.75826   -1.000
 4866.00    1.86803   1.84329  121.807
 4867.00    1.88372   1.90357  118.476
 4868.00    1.90938   1.93975   -1.000
 4869.00    1.92466   1.95019  116.017
 4870.00    1.89047   1.93658   -1.000
 4871.00    1.84817   1.91347   -1.000
 4872.00    1.83974   1.90779   -1.000
 4873.00    1.87231   1.93198   -1.000
 4874.00    1.91547   1.97070   -1.000
 4875.00    1.92976   2.00109   -1.000
 4876.00    1.93351   2.01718   -1.000
 4877.00    1.92993   2.03168   -1.000
 4878.00    1.93269   2.05339   -1.000
 4879.00    1.95473   2.07653   -1.000
 4880.00    1.95785   2.08914   -1.000
 4881.00    1.93019   2.08598   -1.000
 4882.00    1.93151   2.07421   -1.000
 4883.00    1.95824   2.06310   -1.000
 4884.00    1.95429   2.05394   -1.000
 4885.00    1.92118   2.04553   -1.000
 4886.00    1.89363   2.04000   -1.000
 4887.00    1.90137   2.03993   -1.000
 4888.00    1.92417   2.03950   -1.000
 4889.00    1.91501   2.02754   -1.000
 4890.00    1.88400   2.00625   -1.000
 4891.00    1.88472   1.99751   -1.000
 4892.00    1.92525   2.02454   -1.000
 4893.00    1.98173   2.08593   -1.000
 4894.00    2.04340   2.15373   -1.000
 4895.00    2.08321   2.20191   -1.000
 4896.00    2.08098   2.22530   -1.000
 4897.00    2.06985   2.22955   -1.000
 4898.00    2.06471   2.21830   -1.000
 4899.00    2.04219   2.19731   -1.000
 4900.00    2.02577   2.17815   -1.000
 4901.00    2.03560   2.16813   -1.000
 4902.00    2.02978   2.16324   -1.000
 4903.00    2.00825   2.16022   -1.000
 4904.00    2.02467   2.16826   -1.000
 4905.00    2.06992   2.19184   -1.000
 4906.00    2.08409   2.21602   -1.000
 4907.00    2.06578   2.22154   -1.000
 4908.00    2.06447   2.20172   -1.000
 4909.00    2.05974   2.16659   -1.000
 4910.00    2.02565   2.13617   -1.000
 4911.00    2.01044   2.12841   -1.000
 4912.00    2.03389   2.14566   -1.000
 4913.00    2.06068   2.17463   -1.000
 4914.00    2.07887   2.20227   -1.000
 4915.00    2.09346   2.21932   -1.000
 4916.00    2.10318   2.21363   -1.000
 4917.00    2.08459   2.17416   -1.000
 4918.00    2.03732   2.10424   -1.000
 4919.00    1.97887   2.02824   -1.000
 4920.00    1.93085   1.97931   -1.000
 4921.00    1.95234   1.97459  125.279
 4922.00    2.00965   2.00288  123.838
 4923.00    2.02396   2.03879  119.464
 4924.00    2.00562   2.07266   -1.000
 4925.00    2.01949   2.11266   -1.000
 4926.00    2.07190   2.16084   -1.000
 4927.00    2.11359   2.20815   -1.000
 4928.00    2.13332   2.24610   -1.000
 4929.00    2.14566   2.27000   -1.000
 4930.00    2.15107   2.27792   -1.000
 4931.00    2.14590   2.26650   -1.000
 4932.00    2.11592   2.23463   -1.000
 4933.00    2.05907   2.19549   -1.000
 4934.00    2.03175   2.17258   -1.000
 4935.00    2.06337   2.17450   -1.000
 4936.00    2.09048   2.17996   -1.000
 4937.00    2.07130   2.16452   -1.000
 4938.00    2.04079   2.13782   -1.000
 4939.00    2.03747   2.13032   -1.000
 4940.00    2.06543   2.15725   -1.000
 4941.00    2.10441   2.20533   -1.000
 4942.00    2.12447   2.24912   -1.000
 4943.00    2.13001   2.27467   -1.000
 4944.00    2.13573   2.28161   -1.000
 4945.00    2.14178   2.27761   -1.000
 4946.00    2.13723   2.27482   -1.000
 4947.00    2.13880   2.28297   -1.000
 4948.00    2.16413   2.30089   -1.000
 4949.00    2.16924   2.31834   -1.000
 4950.00    2.16632   2.32691   -1.000
 4951.00    2.17938   2.32521   -1.000
 4952.00    2.17697   2.31655   -1.000
 4953.00    2.17495   2.30317   -1.000
 4954.00    2.18508   2.28014   -1.000
 4955.00    2.17006   2.23542   -1.000
 4956.00    2.11692   2.16796   -1.000
 4957.00    2.04219   2.10716   -1.000
 4958.00    2.01376   2.09475   -1.000
 4959.00    2.07762   2.14024   -1.000
 4960.00    2.16333   2.20842   -1.000
 4961.00    2.19217   2.25883   -1.000
 4962.00    2.19164   2.27947   -1.000
 4963.00    2.19147   2.27699   -1.000
 4964.00    2.17953   2.25956   -1.000
 4965.00    2.14692   2.23557   -1.000
 4966.00    2.13302   2.21543   -1.000
 4967.00    2.13369   2.20583   -1.000
 4968.00    2.14913   2.20749   -1.000
 4969.00    2.16419   2.21930   -1.000
 4970.00    2.14953   2.23853   -1.000
 4971.00    2.15618   2.26125   -1.000
 4972.00    2.18732   2.28361   -1.000
 4973.00    2.20313   2.30146   -1.000
 4974.00    2.20849   2.31163   -1.000
 4975.00    2.22431   2.31311   -1.000
 4976.00    2.21481   2.30640   -1.000
 4977.00    2.18363   2.29218   -1.000
 4978.00    2.17593   2.27336   -1.000
 4979.00    2.17473   2.25149   -1.000
 4980.00    2.13968   2.22136   -1.000
 4981.00    2.09394   2.17660   -1.000
 4982.00    2.06114   2.12673   -1.000
 4983.00    2.04687   2.09615   -1.000
 4984.00    2.06131   2.10277   -1.000
 4985.00    2.08925   2.14267   -1.000
 4986.00    2.11816   2.19553   -1.000
 4987.00    2.14311   2.24150   -1.000
 4988.00    2.15400   2.26666   -1.000
 4989.00    2.15432   2.26738   -1.000
 4990.00    2.15001   2.25456   -1.000
 4991.00    2.14715   2.24497   -1.000
 4992.00    2.16165   2.24651   -1.000
 4993.00    2.17702   2.25600   -1.000
 4994.00    2.16167   2.26785   -1.000
 4995.00    2.15121   2.27969   -1.000
 4996.00    2.16766   2.28959   -1.000
 4997.00    2.17417   2.29014   -1.000
 4998.00    2.15357   2.27207   -1.000
 4999.00    2.13643   2.23731   -1.000
 5000.00    2.12552   2.20182   -1.000
 5001.00    2.10649   2.18309   -1.000
 5002.00    2.13146   2.18487   -1.000
 5003.00    2.16307   2.19321   -1.000
 5004.00    2.16011   2.19028   -1.000
 5005.00    2.14201   2.17193   -1.000
 5006.00    2.11166   2.15612   -1.000
 5007.00    2.11600   2.16556   -1.000
 5008.00    2.17054   2.19988   -1.000
 5009.00    2.21213   2.23518   -1.000
 5010.00    2.19870   2.24628   -1.000
 5011.00    2.16152   2.22525   -1.000
 5012.00    2.11249   2.18276   -1.000
 5013.00    2.06527   2.14071   -1.000
 5014.00    2.05431   2.11902   -1.000
 5015.00    2.08592   2.12073   -1.000
 5016.00    2.11843   2.13272  125.183
 5017.00    2.13298   2.14182  122.440
 5018.00    2.15237   2.15093  120.833
 5019.00    2.16264   2.17029  120.607
 5020.00    2.17730   2.19628  119.988
 5021.00    2.19071   2.21558   -1.000
 5022.00    2.18169   2.22523   -1.000
 5023.00    2.17825   2.23725   -1.000
 5024.00    2.18923   2.26005   -1.000
 5025.00    2.20259   2.28180   -1.000
 5026.00    2.22054   2.28739   -1.000
 5027.00    2.22943   2.28089   -1.000
 5028.00    2.21709   2.27801   -1.000
 5029.00    2.23702   2.28779   -1.000
 5030.00    2.28578   2.30970  115.341
 5031.00    2.28665   2.33835   -1.000
 5032.00    2.27994   2.36481   -1.000
 5033.00    2.30444   2.37570   -1.000
 5034.00    2.27969   2.36003   -1.000
 5035.00    2.20590   2.32394   -1.000
 5036.00    2.16587   2.28807   -1.000
 5037.00    2.16022   2.26563   -1.000
 5038.00    2.15097   2.24511   -1.000
 5039.00    2.11089   2.20600   -1.000
 5040.00    2.07016   2.15790   -1.000
 5041.00    2.07380   2.13804   -1.000
 5042.00    2.11333   2.17113   -1.000
 5043.00    2.17886   2.24571   -1.000
 5044.00    2.25688   2.32688   -1.000
 5045.00    2.31389   2.38542   -1.000
 5046.00    2.33106   2.40926   -1.000
 5047.00    2.34795   2.39855   -1.000
 5048.00    2.25493   2.36168   -1.000
 5049.00    1.36128   2.31591   -1.000
 5050.00    0.23978   2.28017   -1.000
 5051.00    0.05468   2.26637   -1.000
 5052.00    0.65353   2.28158   -1.000
 5053.00    1.77930   2.32245   -1.000
 5054.00    2.31503   2.36520   -1.000
 5055.00    2.38061   2.39079  111.592
 5056.00    2.38620   2.40473  110.019
 5057.00    2.37602   2.41823   -1.000
 5058.00    2.35969   2.43405   -1.000
 5059.00    2.35403   2.44902   -1.000
 5060.00    2.35399   2.45976   -1.000
 5061.00    2.35476   2.46346   -1.000
 5062.00    2.35836   2.45240   -1.000
 5063.00    2.33591   2.41986   -1.000
 5064.00    2.28000   2.37657   -1.000
 5065.00    2.23683   2.34392   -1.000
 5066.00    2.25878   2.33359   -1.000
 5067.00    2.30477   2.33938   -1.000
 5068.00    2.31757   2.34858   -1.000
 5069.00    2.32711   2.35736   -1.000
 5070.00    2.33750   2.36446   -1.000
 5071.00    2.33085   2.36443   -1.000
 5072.00    2.31734   2.35861   -1.000
 5073.00    2.31087   2.35810   -1.000
 5074.00    2.31490   2.36736   -1.000
 5075.00    2.32107   2.37897   -1.000
 5076.00    2.32534   2.38303   -1.000
 5077.00    2.32586   2.37195   -1.000
 5078.00    2.29940   2.34177   -1.000
 5079.00    2.23998   2.30181   -1.000
 5080.00    2.20639   2.27436   -1.000
 5081.00    2.23485   2.27184   -1.000
 5082.00    2.28650   2.28833  124.336
 5083.00    2.30484   2.31290  121.606
 5084.00    2.31537   2.34138   -1.000
 5085.00    2.35138   2.37235  117.565
 5086.00    2.37463   2.39872  115.419
 5087.00    2.37978   2.41531   -1.000
 5088.00    2.38057   2.42584   -1.000
 5089.00    2.37774   2.43555   -1.000
 5090.00    2.38983   2.44704   -1.000
 5091.00    2.40208   2.46179   -1.000
 5092.00    2.41215   2.47904   -1.000
 5093.00    2.42653   2.49222   -1.000
 5094.00    2.44512   2.48976   -1.000
 5095.00    2.42718   2.46391   -1.000
 5096.00    2.46729   2.42221   -1.000
 5097.00    2.48345   2.38125   -1.000
 5098.00    2.35292   2.35309  115.540
 5099.00    2.30611   2.34494   -1.000
 5100.00    2.35793   2.35963  119.722
 5101.00    2.39359   2.38982  118.555
 5102.00    2.40232   2.41781  115.322
 5103.00    2.41004   2.43062  113.003
 5104.00    2.40068   2.42750   -1.000
 5105.00    2.38033   2.41327   -1.000
 5106.00    2.34132   2.39316   -1.000
 5107.00    2.30238   2.37364   -1.000
 5108.00    2.27959   2.36249   -1.000
 5109.00    2.28791   2.36395   -1.000
 5110.00    2.31485   2.37788   -1.000
 5111.00    2.34244   2.40163   -1.000
 5112.00    2.37710   2.42889   -1.000
 5113.00    2.40896   2.45481   -1.000
 5114.00    2.43067   2.47890   -1.000
 5115.00    2.43584   2.50084   -1.000
 5116.00    2.43676   2.51936   -1.000
 5117.00    2.46459   2.53157   -1.000
 5118.00    2.47327   2.53343   -1.000
 5119.00    2.44667   2.52192   -1.000
 5120.00    2.43738   2.49895   -1.000
 5121.00    2.42839   2.46930   -1.000
 5122.00    2.38765   2.43601   -1.000
 5123.00    2.34645   2.40320   -1.000
 5124.00    2.33653   2.37843   -1.000
 5125.00    2.34384   2.36765   -1.000
 5126.00    2.35283   2.36760  121.219
 5127.00    2.34627   2.36955   -1.000
 5128.00    2.35520   2.37040  119.672
 5129.00    2.37795   2.37608  119.340
 5130.00    2.38358   2.39305  119.416
 5131.00    2.40284   2.41965  118.661
 5132.00    2.43543   2.44678  116.861
 5133.00    2.43928   2.46828   -1.000
 5134.00    2.45057   2.48433   -1.000
 5135.00    2.47860   2.49323  113.272
 5136.00    2.46852   2.48869  112.584
 5137.00    2.40935   2.46839   -1.000
 5138.00    2.36636   2.44220   -1.000
 5139.00    2.36185   2.42551   -1.000
 5140.00    2.36919   2.42421   -1.000
 5141.00    2.37103   2.43033   -1.000
 5142.00    2.34724   2.43466   -1.000
 5143.00    2.33928   2.43608   -1.000
 5144.00    2.35753   2.43700   -1.000
 5145.00    2.37648   2.43471   -1.000
 5146.00    2.38246   2.42622   -1.000
 5147.00    2.38815   2.42038   -1.000
 5148.00    2.41313   2.42723  119.188
 5149.00    2.43439   2.43769  118.690
 5150.00    2.40996   2.43537   -1.000
 5151.00    2.36884   2.41907   -1.000
 5152.00    2.35649   2.39963   -1.000
 5153.00    2.36512   2.38949   -1.000
 5154.00    2.40124   2.40098  121.372
 5155.00    2.45153   2.44031  119.973
 5156.00    2.49191   2.49656  117.296
 5157.00    2.51125   2.54897   -1.000
 5158.00    2.52915   2.58350   -1.000
 5159.00    2.55724   2.59678   -1.000
 5160.00    2.56544   2.59244  109.762
 5161.00    2.54630   2.57552  109.933
 5162.00    2.51523   2.54994   -1.000
 5163.00    2.49954   2.51308  111.331
 5164.00    2.47679   2.44779  112.807
 5165.00    2.39169   2.33886   -1.000
 5166.00    2.25726   2.20683   -1.000
 5167.00    2.14913   2.10372   -1.000
 5168.00    2.14410   2.07388   -1.000
 5169.00    2.21416   2.10810   -1.000
 5170.00    2.28759   2.14269   -1.000
 5171.00    2.29036   2.13466   -1.000
 5172.00    2.22269   2.10740   -1.000
 5173.00    2.20000   2.12267   -1.000
 5174.00    2.30051   2.20877   -1.000
 5175.00    2.43391   2.32618   -1.000
 5176.00    2.51474   2.42057   -1.000
 5177.00    2.54551   2.47221   -1.000
 5178.00    2.55799   2.48859   -1.000
 5179.00    2.56633   2.47620   -1.000
 5180.00    2.55307   2.42754   -1.000
 5181.00    2.49284   2.33722   -1.000
 5182.00    2.36977   2.22451   -1.000
 5183.00    2.27573   2.14070   -1.000
 5184.00    2.28409   2.13888   -1.000
 5185.00    2.34733   2.22264   -1.000
 5186.00    2.45915   2.34130   -1.000
 5187.00    2.52672   2.43506   -1.000
 5188.00    2.53027   2.48428   -1.000
 5189.00    2.55409   2.50233   -1.000
 5190.00    2.53790   2.49669   -1.000
 5191.00    2.47617   2.46860  116.722
 5192.00    2.41541   2.43546  119.061
 5193.00    2.40270   2.42173  122.740
 5194.00    2.42283   2.43342  124.289
 5195.00    2.45004   2.45684  122.685
 5196.00    2.51101   2.48203   -1.000
 5197.00    2.55315   2.51273   -1.000
 5198.00    2.56131   2.54929  116.884
 5199.00    2.58078   2.58155  114.662
 5200.00    2.59407   2.59863  113.151
 5201.00    2.59159   2.59317  112.601
 5202.00    2.58021   2.56151  112.943
 5203.00    2.53775   2.50540   -1.000
 5204.00    2.48039   2.43509   -1.000
 5205.00    2.45380   2.37168   -1.000
 5206.00    2.45005   2.33359   -1.000
 5207.00    2.45049   2.32153   -1.000
 5208.00    2.44330   2.32782   -1.000
 5209.00    2.44312   2.35383   -1.000
 5210.00    2.49969   2.40784   -1.000
 5211.00    2.56798   2.48820   -1.000
 5212.00    2.61268   2.57264   -1.000
 5213.00    2.65845   2.62938  114.598
 5214.00    2.65277   2.64135  111.005
 5215.00    2.59426   2.61897  110.236
 5216.00    2.56872   2.59589  112.165
 5217.00    2.57865   2.60104  114.345
 5218.00    2.61902   2.63761  114.711
 5219.00    2.66251   2.68608  113.029
 5220.00    2.68204   2.72416   -1.000
 5221.00    2.71225   2.73798  109.528
 5222.00    2.70164   2.71848  108.882
 5223.00    2.66840   2.66257  109.217
 5224.00    2.62223   2.57727   -1.000
 5225.00    2.53223   2.48748   -1.000
 5226.00    2.44790   2.43069  120.550
 5227.00    2.42479   2.43354  125.294
 5228.00    2.48780   2.49756  126.116
 5229.00    2.59786   2.58848  121.355
 5230.00    2.66095   2.65420  115.197
 5231.00    2.68473   2.66845  111.660
 5232.00    2.67919   2.64031   -1.000
 5233.00    2.63299   2.60329   -1.000
 5234.00    2.60242   2.59460  113.639
 5235.00    2.63013   2.62801  114.717
 5236.00    2.68661   2.68490  113.385
 5237.00    2.73598   2.73653  110.649
 5238.00    2.74620   2.76639  108.579
 5239.00    2.73414   2.77579   -1.000
 5240.00    2.74522   2.77534  107.998
 5241.00    2.75876   2.77370  108.140
 5242.00    2.75654   2.77677  107.740
 5243.00    2.76790   2.78616  107.412
 5244.00    2.77098   2.79122  107.454
 5245.00    2.73111   2.77449   -1.000
 5246.00    2.67594   2.73462   -1.000
 5247.00    2.63484   2.69062   -1.000
 5248.00    2.61841   2.66262   -1.000
 5249.00    2.60864   2.65358   -1.000
 5250.00    2.58032   2.65438   -1.000
 5251.00    2.58638   2.66248   -1.000
 5252.00    2.64283   2.67708   -1.000
 5253.00    2.67743   2.68964  115.385
 5254.00    2.67879   2.69624  113.926
 5255.00    2.67312   2.70961   -1.000
 5256.00    2.68696   2.74353   -1.000
 5257.00    2.73765   2.79139   -1.000
 5258.00    2.79690   2.82802  108.562
 5259.00    2.81317   2.83016  106.413
 5260.00    2.77232   2.79141  106.334
 5261.00    2.71478   2.72007  108.177
 5262.00    2.62948   2.63222  111.871
 5263.00    2.56163   2.54674  116.927
 5264.00    2.52967   2.48344   -1.000
 5265.00    2.50974   2.45672   -1.000
 5266.00    2.52837   2.46338   -1.000
 5267.00    2.58187   2.47540   -1.000
 5268.00    2.56690   2.46205   -1.000
 5269.00    2.49291   2.42842   -1.000
 5270.00    2.46712   2.42166   -1.000
 5271.00    2.55234   2.47509   -1.000
 5272.00    2.65685   2.56217   -1.000
 5273.00    2.69432   2.62996   -1.000
 5274.00    2.69721   2.65888   -1.000
 5275.00    2.70563   2.67527   -1.000
 5276.00    2.73090   2.71137   -1.000
 5277.00    2.77711   2.77072  113.116
 5278.00    2.82985   2.82521  110.169
 5279.00    2.83466   2.84230  107.017
 5280.00    2.81435   2.81684  106.145
 5281.00    2.78351   2.76941  107.654
 5282.00    2.73332   2.72482  110.421
 5283.00    2.70291   2.70680  112.970
 5284.00    2.73866   2.73370  114.400
 5285.00    2.81103   2.79992  113.745
 5286.00    2.87615   2.87405  110.843
 5287.00    2.85959   2.92391   -1.000
 5288.00    2.74919   2.94137   -1.000
 5289.00    2.79814   2.94351   -1.000
 5290.00    2.91273   2.94454  105.237
 5291.00    2.88064   2.94425   -1.000
 5292.00    2.87938   2.94060   -1.000
 5293.00    2.89140   2.93281  104.593
 5294.00    2.88494   2.91419  105.393
 5295.00    2.84195   2.87366  106.565
 5296.00    2.76853   2.80993   -1.000
 5297.00    2.69064   2.74791   -1.000
 5298.00    2.70472   2.72165  115.941
 5299.00    2.77049   2.73815   -1.000
 5300.00    2.78077   2.77620  115.679
 5301.00    2.78606   2.81290  112.958
 5302.00    2.80626   2.84687   -1.000
 5303.00    2.83940   2.88856   -1.000
 5304.00    2.89947   2.93212  108.488
 5305.00    2.92824   2.95793  105.855
 5306.00    2.91149   2.95857  104.608
 5307.00    2.89729   2.94838   -1.000
 5308.00    2.91301   2.94878  105.953
 5309.00    2.95255   2.96534  106.236
 5310.00    2.96929   2.98528  105.302
 5311.00    2.96877   2.99386  104.347
 5312.00    2.95506   2.98672  104.001
 5313.00    2.95448   2.96821  104.326
 5314.00    2.95919   2.94260   -1.000
 5315.00    2.93222   2.91338   -1.000
 5316.00    2.90936   2.89048   -1.000
 5317.00    2.89892   2.88842   -1.000
 5318.00    2.91867   2.90957  107.955
 5319.00    2.94434   2.93755  107.622
 5320.00    2.93964   2.95147  106.917
 5321.00    2.92096   2.94233  106.806
 5322.00    2.89947   2.91195  107.377
 5323.00    2.88458   2.86988   -1.000
 5324.00    2.86519   2.82988   -1.000
 5325.00    2.86377   2.79301   -1.000
 5326.00    2.83533   2.74166   -1.000
 5327.00    2.74055   2.66983   -1.000
 5328.00    2.67044   2.61468   -1.000
 5329.00    2.69544   2.62650   -1.000
 5330.00    2.79093   2.70837   -1.000
 5331.00    2.86235   2.80827   -1.000
 5332.00    2.86804   2.87640  112.533
 5333.00    2.88262   2.91255  110.001
 5334.00    2.92866   2.93641  108.989
 5335.00    2.96517   2.95278   -1.000
 5336.00    2.96989   2.95615   -1.000
 5337.00    2.94491   2.94337  106.907
 5338.00    2.93776   2.91392   -1.000
 5339.00    2.91865   2.87156   -1.000
 5340.00    2.85429   2.83427   -1.000
 5341.00    2.82831   2.82911  112.885
 5342.00    2.88746   2.86299   -1.000
 5343.00    2.96441   2.90830   -1.000
 5344.00    2.97423   2.93227   -1.000
 5345.00    2.95081   2.92940   -1.000
 5346.00    2.92381   2.91335  108.263
 5347.00    2.91982   2.89787   -1.000
 5348.00    2.93189   2.89022   -1.000
 5349.00    2.93502   2.89684   -1.000
 5350.00    2.97640   2.92426   -1.000
 5351.00    2.99982   2.96794   -1.000
 5352.00    3.00794   3.01124  108.413
 5353.00    3.00690   3.04237  106.298
 5354.00    3.03791   3.06594  105.406
 5355.00    3.08349   3.08951  104.929
 5356.00    3.09484   3.10979  103.877
 5357.00    3.07941   3.12105  102.730
 5358.00    3.07795   3.12187  102.312
 5359.00    3.06006   3.11227   -1.000
 5360.00    3.03130   3.08963   -1.000
 5361.00    3.02982   3.05486  103.407
 5362.00    3.02164   3.01766  104.861
 5363.00    2.99793   2.98852   -1.000
 5364.00    2.99303   2.97103   -1.000
 5365.00    2.97397   2.96415   -1.000
 5366.00    2.95834   2.96387  109.113
 5367.00    2.96602   2.96079  109.401
 5368.00    2.96513   2.93940   -1.000
 5369.00    2.92781   2.89032   -1.000
 5370.00    2.86124   2.82981   -1.000
 5371.00    2.81651   2.79716   -1.000
 5372.00    2.88024   2.82368   -1.000
 5373.00    3.01100   2.90445   -1.000
 5374.00    3.07841   2.99782   -1.000
 5375.00    3.08470   3.06189   -1.000
 5376.00    3.09198   3.08744  104.308
 5377.00    3.10352   3.09150   -1.000
 5378.00    3.09779   3.09007   -1.000
 5379.00    3.08803   3.08433  104.369
 5380.00    3.07155   3.07044  104.733
 5381.00    3.04237   3.05026  105.522
 5382.00    3.02254   3.03243  106.589
 5383.00    3.03560   3.02653   -1.000
 5384.00    3.05154   3.03757   -1.000
 5385.00    3.07011   3.06203  107.454
 5386.00    3.09225   3.08517  106.683
 5387.00    3.08383   3.09081  105.844
 5388.00    3.07884   3.07480  105.944
 5389.00    3.07200   3.04557   -1.000
 5390.00    3.05871   3.01594   -1.000
 5391.00    3.05161   2.99434   -1.000
 5392.00    3.04995   2.98196   -1.000
 5393.00    3.01748   2.97442   -1.000
 5394.00    2.98719   2.96162   -1.000
 5395.00    2.96505   2.93387   -1.000
 5396.00    2.92793   2.89801   -1.000
 5397.00    2.92483   2.87859   -1.000
 5398.00    2.97032   2.89786   -1.000
 5399.00    3.03064   2.94870   -1.000
 5400.00    3.05890   2.99858   -1.000
 5401.00    3.06230   3.02348   -1.000
 5402.00    3.07915   3.01344   -1.000
 5403.00    3.03892   2.96658   -1.000
 5404.00    2.95140   2.89695   -1.000
 5405.00    2.88666   2.83840   -1.000
 5406.00    2.89076   2.82188   -1.000
 5407.00    2.94727   2.84546   -1.000
 5408.00    2.98411   2.87278   -1.000
 5409.00    2.98084   2.87814   -1.000
 5410.00    2.99261   2.87674   -1.000
 5411.00    3.03311   2.89672   -1.000
 5412.00    3.07580   2.94094   -1.000
 5413.00    3.11848   2.98814   -1.000
 5414.00    3.12563   3.02508   -1.000
 5415.00    3.09268   3.06014   -1.000
 5416.00    3.11316   3.09778   -1.000
 5417.00    3.14898   3.12759   -1.000
 5418.00    3.13918   3.13956  106.229
 5419.00    3.12215   3.13469  105.965
 5420.00    3.10548   3.12446  106.692
 5421.00    3.12602   3.11721   -1.000
 5422.00    3.12833   3.10882   -1.000
 5423.00    3.10214   3.09399   -1.000
 5424.00    3.08972   3.08301   -1.000
 5425.00    3.09487   3.09436  109.078
 5426.00    3.11485   3.12294  109.254
 5427.00    3.12884   3.13143  107.709
 5428.00    3.09811   3.09525  106.619
 5429.00    3.01730   3.03579  108.017
 5430.00    2.99290   2.99658  111.344
 5431.00    3.04049   2.99510   -1.000
 5432.00    3.06503   3.00496   -1.000
 5433.00    3.04074   2.99863   -1.000
 5434.00    3.01143   2.98293   -1.000
 5435.00    3.01088   2.98619   -1.000
 5436.00    3.06282   3.02624   -1.000
 5437.00    3.12168   3.09300   -1.000
 5438.00    3.17255   3.16118  110.523
 5439.00    3.21256   3.21223  107.690
 5440.00    3.23278   3.24307  105.753
 5441.00    3.23952   3.25929  104.530
 5442.00    3.23942   3.26045  103.941
 5443.00    3.20887   3.23626  103.867
 5444.00    3.16978   3.17706  104.256
 5445.00    3.08891   3.09155  106.017
 5446.00    3.02265   3.01251   -1.000
 5447.00    2.99993   2.97829   -1.000
 5448.00    3.06576   3.00449   -1.000
 5449.00    3.15815   3.06632   -1.000
 5450.00    3.19517   3.12254   -1.000
 5451.00    3.21506   3.14793   -1.000
 5452.00    3.22739   3.13792   -1.000
 5453.00    3.18994   3.09747   -1.000
 5454.00    3.12141   3.03959   -1.000
 5455.00    3.06180   2.99474   -1.000
 5456.00    3.06724   2.99828   -1.000
 5457.00    3.15286   3.05406   -1.000
 5458.00    3.22944   3.12560   -1.000
 5459.00    3.25188   3.17076   -1.000
 5460.00    3.24958   3.17252   -1.000
 5461.00    3.22485   3.14368   -1.000
 5462.00    3.19541   3.10952   -1.000
 5463.00    3.20766   3.09262   -1.000
 5464.00    3.22618   3.10118   -1.000
 5465.00    3.23238   3.12753   -1.000
 5466.00    3.25296   3.15710   -1.000
 5467.00    3.26528   3.17983   -1.000
 5468.00    3.28936   3.19309   -1.000
 5469.00    3.27968   3.19473   -1.000
 5470.00    3.25373   3.18527   -1.000
 5471.00    3.26199   3.17119   -1.000
 5472.00    3.25187   3.15630   -1.000
 5473.00    3.22415   3.13662   -1.000
 5474.00    3.21170   3.10602   -1.000
 5475.00    3.19073   3.06525   -1.000
 5476.00    3.13957   3.03081   -1.000
 5477.00    3.09328   3.02772   -1.000
 5478.00    3.16536   3.06247   -1.000
 5479.00    3.24645   3.10796   -1.000
 5480.00    3.24617   3.12954   -1.000
 5481.00    3.23283   3.12714   -1.000
 5482.00    3.22621   3.12962   -1.000
 5483.00    3.23701   3.15632   -1.000
 5484.00    3.27122   3.19680   -1.000
 5485.00    3.28025   3.22341   -1.000
 5486.00    3.27471   3.22140   -1.000
 5487.00    3.25301   3.20008   -1.000
 5488.00    3.23630   3.18247   -1.000
 5489.00    3.22968   3.18398   -1.000
 5490.00    3.23319   3.20053   -1.000
 5491.00    3.26219   3.21841   -1.000
 5492.00    3.29142   3.22907   -1.000
 5493.00    3.30641   3.23288   -1.000
 5494.00    3.30443   3.23228   -1.000
 5495.00    3.30494   3.22541   -1.000
 5496.00    3.28273   3.21177   -1.000
 5497.00    3.24383   3.19984   -1.000
 5498.00    3.23645   3.19973   -1.000
 5499.00    3.28231   3.20729   -1.000
 5500.00    3.31219   3.20417   -1.000
 5501.00    3.29804   3.18445   -1.000
 5502.00    3.29246   3.16656   -1.000
 5503.00    3.31515   3.16426   -1.000
 5504.00    3.34269   3.16652   -1.000
 5505.00    3.29669   3.15637   -1.000
 5506.00    3.21679   3.13815   -1.000
 5507.00    3.21358   3.13604   -1.000
 5508.00    3.25965   3.16001   -1.000
 5509.00    3.29975   3.18949   -1.000
 5510.00    3.31428   3.19778   -1.000
 5511.00    3.28698   3.17672   -1.000
 5512.00    3.25049   3.14291   -1.000
 5513.00    3.23584   3.12089   -1.000
 5514.00    3.24442   3.12454   -1.000
 5515.00    3.28695   3.15131   -1.000
 5516.00    3.34880   3.19213   -1.000
 5517.00    3.38789   3.23927   11.170
 5518.00    3.41553   3.28367   10.990
 5519.00    3.43693   3.31540   10.788
 5520.00    3.43889   3.32930   10.661
 5521.00    3.43337   3.33010   10.660
 5522.00    3.41532   3.32719   10.680
 5523.00    3.40521   3.32214   10.707
 5524.00    3.37249   3.30637   10.739
 5525.00    3.35991   3.27137   10.771
 5526.00    3.32950   3.22029   10.866
 5527.00    3.27621   3.17218   11.054
 5528.00    3.25402   3.15335   11.327
 5529.00    3.28922   3.17693   11.548
 5530.00    3.34955   3.22811   11.491
 5531.00    3.38095   3.27234   11.203
 5532.00    3.38381   3.28788   10.953
 5533.00    3.37322   3.27823   10.875
 5534.00    3.36306   3.26182   10.935
 5535.00    3.36405   3.25574   11.027
 5536.00    3.36617   3.26522   11.047
 5537.00    3.38993   3.28413   10.985
 5538.00    3.41051   3.30439   10.912
 5539.00    3.41423   3.32522   10.884
 5540.00    3.43641   3.34560   10.815
 5541.00    3.45684   3.35584   10.711
 5542.00    3.45015   3.34839   10.657
 5543.00    3.43036   3.33012   10.702
 5544.00    3.42864   3.31616   10.820
 5545.00    3.41784   3.31593   10.903
 5546.00    3.40559   3.32819   10.906
 5547.00    3.43788   3.34951   10.873
 5548.00    3.47054   3.37678   10.836
 5549.00    3.48980   3.40095   10.751
 5550.00    3.50696   3.41280   10.647
 5551.00    3.50743   3.41140   10.580
 5552.00    3.50232   3.39954   10.586
 5553.00    3.49625   3.38269   10.660
 5554.00    3.46345   3.36969   10.765
 5555.00    3.45911   3.36612   10.868
 5556.00    3.50166   3.36899   10.893
 5557.00    3.51863   3.37292   10.866
 5558.00    3.51566   3.37684   10.836
 5559.00    3.50006   3.37982   10.820
 5560.00    3.50137   3.37732   10.807
 5561.00    3.49390   3.36594   10.807
 5562.00    3.47935   3.35005   10.843
 5563.00    3.44165   3.33770   10.919
 5564.00    3.43427   3.33015   11.023
 5565.00    3.45499   3.32366   11.083
 5566.00    3.45898   3.31773   11.108
 5567.00    3.44292   3.31406   11.127
 5568.00    3.42181   3.31282   11.127
 5569.00    3.42923   3.31372   11.100
 5570.00    3.44923   3.31544   11.095
 5571.00    3.44972   3.31461   11.119
 5572.00    3.42957   3.31100   11.110
 5573.00    3.40474   3.31247   11.122
 5574.00    3.36031   3.32616   11.132
 5575.00    3.14308   3.34638   11.055
 5576.00    2.56615   3.36369   -1.000
 5577.00    2.14191   3.37935   -1.000
 5578.00    2.88501   3.39692   -1.000
 5579.00    3.78473   3.41133   -1.000
 5580.00    4.25710   3.41610   -1.000
 5581.00    3.65612   3.41192   -1.000
 5582.00    3.24638   3.40361   11.191
 5583.00    3.47544   3.39361   11.045
 5584.00    3.56106   3.37542   10.955
 5585.00    3.49889   3.33474   10.966
 5586.00    3.43265   3.27020   11.091
 5587.00    3.37859   3.20511   11.364
 5588.00    3.34298   3.16896   11.644
 5589.00    3.35541   3.17277   11.850
 5590.00    3.42104   3.20593   11.855
 5591.00    3.46693   3.24663   11.674
 5592.00    3.47458   3.27732   11.473
 5593.00    3.45610   3.29721   11.355
 5594.00    3.44371   3.31882   11.355
 5595.00    3.48004   3.34702   11.372
 5596.00    3.52070   3.36818   11.264
 5597.00    3.52540   3.36330   11.115
 5598.00    3.49232   3.33387   11.089
 5599.00    3.46994   3.30252   11.237
 5600.00    3.46202   3.28138   11.418
 5601.00    3.45249   3.26918   11.493
 5602.00    3.43626   3.27219   11.497
 5603.00    3.46031   3.30316   11.567
 5604.00    3.50633   3.36142   11.546
 5605.00    3.58012   3.42762   11.297
 5606.00    3.64312   3.47913   10.994
 5607.00    3.64014   3.50767   10.784
 5608.00    3.64006   3.51803   10.697
 5609.00    3.63182   3.52059   10.693
 5610.00    3.61091   3.52475   10.714
 5611.00    3.63750   3.52893   10.726
 5612.00    3.64068   3.51633   10.706
 5613.00    3.63380   3.46936   10.696
 5614.00    3.55968   3.39320   10.805
 5615.00    3.45822   3.32370   11.088
 5616.00    3.44158   3.30129   11.451
 5617.00    3.51805   3.32924   11.596
 5618.00    3.59845   3.37425   11.416
 5619.00    3.62314   3.41038   11.163
 5620.00    3.62176   3.43552   11.059
 5621.00    3.64083   3.45268   11.035
 5622.00    3.64020   3.45196   10.981
 5623.00    3.61197   3.42575   10.956
 5624.00    3.56031   3.39063   11.062
 5625.00    3.55641   3.37574   11.293
 5626.00    3.60648   3.39358   11.423
 5627.00    3.62320   3.43108   11.308
 5628.00    3.62599   3.46739   11.114
 5629.00    3.66037   3.49363   10.967
 5630.00    3.68274   3.50907   10.856
 5631.00    3.69391   3.51126   10.794
 5632.00    3.68714   3.49974   10.764
 5633.00    3.67233   3.48324   10.735
 5634.00    3.64806   3.47251   10.773
 5635.00    3.63505   3.46548   10.862
 5636.00    3.65453   3.45574   10.936
 5637.00    3.64935   3.44636   11.007
 5638.00    3.62480   3.44246   11.088
 5639.00    3.61859   3.44128   11.140
 5640.00    3.62245   3.43748   11.131
 5641.00    3.62889   3.43462   11.133
 5642.00    3.64013   3.44023   11.167
 5643.00    3.65626   3.45299   11.154
 5644.00    3.67579   3.46675   11.103
 5645.00    3.66508   3.47913   11.061
 5646.00    3.66387   3.48967   11.029
 5647.00    3.69664   3.49631   10.959
 5648.00    3.70821   3.49823   10.934
 5649.00    3.69502   3.49973   10.909
 5650.00    3.69254   3.50794   10.907
 5651.00    3.72206   3.52260   10.929
 5652.00    3.71826   3.53377   10.901
 5653.00    3.71327   3.53258   10.822
 5654.00    3.69914   3.51744   10.820
 5655.00    3.67740   3.49049   10.881
 5656.00    3.65157   3.44979   10.977
 5657.00    3.56423   3.39897   11.114
 5658.00    3.49672   3.36147   11.375
 5659.00    3.52276   3.35995   11.693
 5660.00    3.58047   3.38579   11.762
 5661.00    3.63756   3.41141   11.535
 5662.00    3.64933   3.42568   11.336
 5663.00    3.65029   3.44291   11.330
 5664.00    3.69502   3.47328   11.311
 5665.00    3.71464   3.50207   11.161
 5666.00    3.69980   3.51049   11.032
 5667.00    3.67947   3.50077   11.029
 5668.00    3.65643   3.49028   11.098
 5669.00    3.64880   3.49157   11.150
 5670.00    3.67028   3.50603   11.146
 5671.00    3.69746   3.52935   11.102
 5672.00    3.70511   3.55549   11.019
 5673.00    3.74224   3.57742   10.917
 5674.00    3.73957   3.59064   10.807
 5675.00    3.74254   3.59683   10.734
 5676.00    3.76637   3.60146   10.756
 5677.00    3.77389   3.60553   10.775
 5678.00    3.75421   3.60398   10.738
 5679.00    3.74262   3.59239   10.744
 5680.00    3.75342   3.57067   10.803
 5681.00    3.75981   3.54189   10.850
 5682.00    3.72215   3.51432   10.934
 5683.00    3.69653   3.50135   11.069
 5684.00    3.69874   3.50903   11.171
 5685.00    3.67986   3.52393   11.160
 5686.00    3.67925   3.52580   11.091
 5687.00    3.67111   3.51399   11.072
 5688.00    3.66458   3.50668   11.157
 5689.00    3.68931   3.52001   11.270
 5690.00    3.73589   3.55327   11.251
 5691.00    3.77276   3.59172   11.086
 5692.00    3.78533   3.62116   10.902
 5693.00    3.81992   3.63680   10.819
 5694.00    3.81600   3.64199   10.766
 5695.00    3.80043   3.64031   10.761
 5696.00    3.80079   3.63177   10.775
 5697.00    3.76855   3.61476   10.789
 5698.00    3.72435   3.59027   10.843
 5699.00    3.69871   3.56403   10.963
 5700.00    3.71008   3.54134   11.084
 5701.00    3.69143   3.52618   11.184
 5702.00    3.68839   3.52464   11.288
 5703.00    3.67636   3.53624   11.295
 5704.00    3.68196   3.54787   11.188
 5705.00    3.67065   3.54399   11.093
 5706.00    3.63061   3.52119   11.103
 5707.00    3.60132   3.48753   11.210
 5708.00    3.59783   3.45404   11.391
 5709.00    3.58618   3.43215   11.599
 5710.00    3.54907   3.43103   11.745
 5711.00    3.55991   3.45258   11.776
 5712.00    3.64861   3.49466   11.714
 5713.00    3.70557   3.54895   11.551
 5714.00    3.76190   3.59875   11.288
 5715.00    3.82072   3.63189   11.033
 5716.00    3.82942   3.64999   10.911
 5717.00    3.81497   3.66101   10.888
 5718.00    3.81743   3.67138   10.862
 5719.00    3.82318   3.68568   10.821
 5720.00    3.84449   3.70482   10.762
 5721.00    3.86837   3.72450   10.696
 5722.00    3.86269   3.73928   10.654
 5723.00    3.86085   3.74570   10.634
 5724.00    3.86947   3.73977   10.619
 5725.00    3.84739   3.71916   10.617
 5726.00    3.82384   3.69189   10.663
 5727.00    3.80190   3.67432   10.766
 5728.00    3.81183   3.67543   10.875
 5729.00    3.84293   3.68827   10.919
 5730.00    3.83367   3.69706   10.843
 5731.00    3.82547   3.69763   10.804
 5732.00    3.83684   3.70235   10.851
 5733.00    3.84755   3.71968   10.883
 5734.00    3.86312   3.74150   10.814
 5735.00    3.88503   3.75347   10.712
 5736.00    3.88224   3.75196   10.669
 5737.00    3.86989   3.74479   10.688
 5738.00    3.88776   3.74044   10.705
 5739.00    3.87506   3.74163   10.733
 5740.00    3.86986   3.74447   10.742
 5741.00    3.88488   3.74454   10.766
 5742.00    3.87150   3.74392   10.783
 5743.00    3.85528   3.74984   10.795
 5744.00    3.87894   3.76357   10.768
 5745.00    3.87974   3.77476   10.742
 5746.00    3.86115   3.77143   10.660
 5747.00    3.86694   3.75729   10.636
 5748.00    3.86700   3.75046   10.719
 5749.00    3.87178   3.75969   10.813
 5750.00    3.86433   3.76938   10.819
 5751.00    3.88428   3.75834   10.753
 5752.00    3.86718   3.72580   10.755
 5753.00    3.83614   3.69533   10.864
 5754.00    3.80729   3.69399   10.995
 5755.00    3.84592   3.72723   11.073
 5756.00    3.89937   3.77582   11.022
 5757.00    3.95061   3.81274   10.851
 5758.00    3.96923   3.82073   10.663
 5759.00    3.94591   3.79956   10.586
 5760.00    3.90342   3.76103   10.657
 5761.00    3.88621   3.72238   10.789
 5762.00    3.88324   3.70313   10.934
 5763.00    3.88585   3.71741   11.060
 5764.00    3.90845   3.75906   11.060
 5765.00    3.93226   3.80451   10.903
 5766.00    3.94857   3.83353   10.717
 5767.00    3.93138   3.84431   10.618
 5768.00    3.93890   3.84406   10.601
 5769.00    3.95072   3.83823   10.589
 5770.00    3.94248   3.82952   10.580
 5771.00    3.92924   3.81840   10.610
 5772.00    3.90602   3.80508   10.652
 5773.00    3.89609   3.79219   10.716
 5774.00    3.89232   3.78333   10.773
 5775.00    3.87521   3.78173   10.792
 5776.00    3.88074   3.78614   10.795
 5777.00    3.85972   3.78478   10.761
 5778.00    3.80760   3.76279   10.714
 5779.00    3.71339   3.71824   10.720
 5780.00    3.57719   3.66605   10.788
 5781.00    3.50214   3.62849   10.980
 5782.00    3.52901   3.61871   11.212
 5783.00    3.62959   3.62962   11.304
 5784.00    3.74410   3.64516   11.262
 5785.00    3.81774   3.66248   11.218
 5786.00    3.85775   3.69059   11.178
 5787.00    3.89688   3.72791   11.117
 5788.00    3.92805   3.75863   10.978
 5789.00    3.93788   3.77209   10.845
 5790.00    3.93473   3.77333   10.792
 5791.00    3.93327   3.77855   10.822
 5792.00    3.94129   3.80067   10.858
 5793.00    3.94207   3.83580   10.817
 5794.00    3.96441   3.86596   10.724
 5795.00    3.95626   3.87578   10.655
 5796.00    3.88879   3.86492   10.605
 5797.00    3.82856   3.84825   10.621
 5798.00    3.85273   3.84693   10.693
 5799.00    3.91095   3.86822   10.732
 5800.00    3.99706   3.89991   10.648
 5801.00    4.05315   3.92318   10.502
 5802.00    4.03733   3.92656   10.386
 5803.00    3.99603   3.91251   10.400
 5804.00    3.95967   3.89345   10.496
 5805.00    3.99156   3.88258   10.577
 5806.00    4.00791   3.88381   10.655
 5807.00    3.99777   3.89204   10.681
 5808.00    3.99867   3.90081   10.646
 5809.00    4.01552   3.90754   10.607
 5810.00    4.02250   3.91179   10.584
 5811.00    4.05178   3.91187   10.584
 5812.00    4.06409   3.90643   10.566
 5813.00    4.06758   3.89579   10.525
 5814.00    4.06155   3.88080   10.507
 5815.00    4.06646   3.86672   10.549
 5816.00    4.06041   3.86639   10.635
 5817.00    4.05496   3.88742   10.654
 5818.00    4.09643   3.91915   10.585
 5819.00    4.08939   3.94424   10.515
 5820.00    4.10587   3.95541   10.461
 5821.00    4.10489   3.95510   10.413
 5822.00    4.10814   3.94946   10.392
 5823.00    4.13240   3.94495   10.419
 5824.00    4.12742   3.94547   10.445
 5825.00    4.12733   3.95127   10.420
 5826.00    4.14737   3.95987   10.405
 5827.00    4.13214   3.96724   10.387
 5828.00    4.12730   3.97127   10.381
 5829.00    4.14248   3.97334   10.390
 5830.00    4.13057   3.97600   10.403
 5831.00    4.12383   3.97918   10.383
 5832.00    4.13391   3.97875   10.385
 5833.00    4.12925   3.97122   10.376
 5834.00    4.12935   3.96104   10.412
 5835.00    4.14024   3.95737   10.475
 5836.00    4.13635   3.96226   10.474
 5837.00    4.11405   3.96842   10.438
 5838.00    4.12087   3.97212   10.432
 5839.00    4.16426   3.97829   10.469
 5840.00    4.17336   3.99058   10.478
 5841.00    4.16003   4.00470   10.429
 5842.00    4.13871   4.01226   10.352
 5843.00    4.11572   4.00891   10.314
 5844.00    4.12117   3.99583   10.329
 5845.00    4.10531   3.97610   10.368
 5846.00    4.09428   3.95529   10.415
 5847.00    4.11001   3.94032   10.484
 5848.00    4.10075   3.93374   10.534
 5849.00    4.09370   3.93025   10.572
 5850.00    4.07931   3.92088   10.560
 5851.00    4.07391   3.90026   10.591
 5852.00    4.04598   3.87407   10.657
 5853.00    4.00542   3.85478   10.732
 5854.00    4.06189   3.84579   10.831
 5855.00    4.05551   3.83431   10.868
 5856.00    4.05023   3.80657   10.883
 5857.00    4.03060   3.77537   -1.000
 5858.00    4.04801   3.77026   -1.000
 5859.00    4.05925   3.79880   -1.000
 5860.00    4.09865   3.84036   -1.000
 5861.00    4.11222   3.87158   10.856
 5862.00    4.11576   3.88713   10.784
 5863.00    4.11771   3.89483   10.751
 5864.00    4.14664   3.89700   10.710
 5865.00    4.17395   3.89007   -1.000
 5866.00    4.13079   3.87903   -1.000
 5867.00    4.12967   3.87866   -1.000
 5868.00    4.16486   3.89801   -1.000
 5869.00    4.20042   3.92812   -1.000
 5870.00    4.19948   3.95060   10.679
 5871.00    4.20417   3.95365   10.601
 5872.00    4.19479   3.93737   -1.000
 5873.00    4.19952   3.91126   -1.000
 5874.00    4.19675   3.88632   -1.000
 5875.00    4.17976   3.86980   -1.000
 5876.00    4.17024   3.86383   -1.000
 5877.00    4.18522   3.86447   -1.000
 5878.00    4.19796   3.86463   -1.000
 5879.00    4.18170   3.86099   -1.000
 5880.00    4.17239   3.85584   -1.000
 5881.00    4.15452   3.85169   -1.000
 5882.00    4.13512   3.84493   -1.000
 5883.00    4.13820   3.83105   -1.000
 5884.00    4.14632   3.81248   -1.000
 5885.00    4.13799   3.78418   -1.000
 5886.00    4.12546   3.71367   -1.000
 5887.00    3.99900   3.56048   -1.000
 5888.00    3.67505   3.33565   -1.000
 5889.00    3.22475   3.13041   11.621
 5890.00    2.92598   3.05614   12.420
 5891.00    3.02395   3.13119   13.085
 5892.00    3.48624   3.25560   13.143
 5893.00    3.84256   3.31073   -1.000
 5894.00    3.72711   3.26311   -1.000
 5895.00    3.42910   3.18525   -1.000
 5896.00    3.18504   3.18124   12.317
 5897.00    3.25078   3.28787   12.610
 5898.00    3.64648   3.44555   12.449
 5899.00    3.98961   3.58349   -1.000
 5900.00    4.08217   3.68572   -1.000
 5901.00    4.10499   3.76198   -1.000
 5902.00    4.13076   3.81637   -1.000
 5903.00    4.14566   3.84883   -1.000
 5904.00    4.16577   3.86391   -1.000
 5905.00    4.18988   3.87111   -1.000
 5906.00    4.21687   3.87915   -1.000
 5907.00    4.20152   3.89171   -1.000
 5908.00    4.21397   3.90651   -1.000
 5909.00    4.22162   3.91935   -1.000
 5910.00    4.19688   3.92653   -1.000
 5911.00    4.18643   3.92280   -1.000
 5912.00    4.18323   3.90348   -1.000
 5913.00    4.17804   3.87312   -1.000
 5914.00    4.16298   3.84730   -1.000
 5915.00    4.13431   3.83906   -1.000
 5916.00    4.14186   3.85015   -1.000
 5917.00    4.17123   3.87458   -1.000
 5918.00    4.18434   3.90386   -1.000
 5919.00    4.17993   3.92781   -1.000
 5920.00    4.17087   3.93946   11.006
 5921.00    4.18182   3.93922   10.980
 5922.00    4.17274   3.93381   10.945
 5923.00    4.18457   3.93341   -1.000
 5924.00    4.21155   3.94371   -1.000
 5925.00    4.21097   3.96095   -1.000
 5926.00    4.21668   3.97435   10.878
 5927.00    4.24580   3.97299   -1.000
 5928.00    4.23321   3.95650   -1.000
 5929.00    4.19993   3.93877   -1.000
 5930.00    4.20215   3.93561   -1.000
 5931.00    4.21940   3.94901   -1.000
 5932.00    4.25954   3.96320   -1.000
 5933.00    4.25720   3.96382   -1.000
 5934.00    4.21599   3.95745   -1.000
 5935.00    4.21600   3.96031   -1.000
 5936.00    4.25586   3.97716   -1.000
 5937.00    4.26747   3.99699   -1.000
 5938.00    4.27035   4.00530   -1.000
 5939.00    4.29201   3.99646   -1.000
 5940.00    4.27664   3.97677   -1.000
 5941.00    4.20718   3.96090   -1.000
 5942.00    4.18106   3.96141   11.023
 5943.00    4.20547   3.97850   11.061
 5944.00    4.23690   4.00019   11.035
 5945.00    4.24820   4.01379   10.963
 5946.00    4.22490   4.01293   10.904
 5947.00    4.21682   3.99798   10.878
 5948.00    4.20508   3.97930   10.932
 5949.00    4.18770   3.97079   11.041
 5950.00    4.20342   3.97416   11.142
 5951.00    4.23402   3.97822   -1.000
 5952.00    4.23868   3.97699   -1.000
 5953.00    4.22020   3.97660   -1.000
 5954.00    4.22342   3.97831   -1.000
 5955.00    4.23556   3.97328   -1.000
 5956.00    4.22977   3.96207   -1.000
 5957.00    4.21460   3.95896   -1.000
 5958.00    4.22770   3.97541   -1.000
 5959.00    4.23849   4.00770   11.105
 5960.00    4.27165   4.04108   11.039
 5961.00    4.32342   4.06345   -1.000
 5962.00    4.35605   4.07193   -1.000
 5963.00    4.36483   4.06922   -1.000
 5964.00    4.33559   4.05932   -1.000
 5965.00    4.30328   4.04893   -1.000
 5966.00    4.32371   4.04645   -1.000
 5967.00    4.31076   4.05490   -1.000
 5968.00    4.32533   4.06947   -1.000
 5969.00    4.31745   4.08543   10.897
 5970.00    4.32780   4.10025   10.818
 5971.00    4.32305   4.10933   10.805
 5972.00    4.34019   4.10907   10.800
 5973.00    4.34256   4.09840   -1.000
 5974.00    4.34259   4.07696   -1.000
 5975.00    4.29633   4.04830   -1.000
 5976.00    4.27484   4.02201   -1.000
 5977.00    4.25702   4.00930   -1.000
 5978.00    4.26945   4.01642   -1.000
 5979.00    4.30026   4.03907   -1.000
 5980.00    4.32591   4.06177   -1.000
 5981.00    4.36801   4.06687   -1.000
 5982.00    4.33792   4.04828   -1.000
 5983.00    4.31422   4.01927   -1.000
 5984.00    4.29021   4.00312   -1.000
 5985.00    4.29381   4.01305   -1.000
 5986.00    4.34974   4.04098   -1.000
 5987.00    4.34753   4.06875   -1.000
 5988.00    4.34699   4.08698   -1.000
 5989.00    4.35409   4.09544   -1.000
 5990.00    4.34421   4.09837   -1.000
 5991.00    4.31038   4.10533   10.890
 5992.00    4.35810   4.12522   10.919
 5993.00    4.38470   4.15282   10.930
 5994.00    4.36704   4.16936   10.858
 5995.00    4.36317   4.16356   10.774
 5996.00    4.38098   4.14265   -1.000
 5997.00    4.37063   4.12338   -1.000
 5998.00    4.35362   4.11543   -1.000
 5999.00    4.36615   4.11598   -1.000
 6000.00    4.39327   4.11724   -1.000
 6001.00    4.38038   4.11315   -1.000
 6002.00    4.37391   4.10522   -1.000
 6003.00    4.36004   4.10163   -1.000
 6004.00    4.34494   4.10372   -1.000
 6005.00    4.34314   4.09866   -1.000
 6006.00    4.34493   4.07703   -1.000
 6007.00    4.30088   4.05274   -1.000
 6008.00    4.28110   4.04972   -1.000
 6009.00    4.31401   4.07453   -1.000
 6010.00    4.33205   4.10768   11.215
 6011.00    4.34570   4.12381   11.073
 6012.00    4.33356   4.12010   10.983
 6013.00    4.31709   4.11134   11.018
 6014.00    4.35840   4.10856   -1.000
 6015.00    4.37476   4.10985   -1.000
 6016.00    4.35589   4.10811   -1.000
 6017.00    4.36519   4.10437   -1.000
 6018.00    4.37839   4.10117   -1.000
 6019.00    4.38534   4.09621   -1.000
 6020.00    4.35924   4.09160   -1.000
 6021.00    4.34187   4.09466   -1.000
 6022.00    4.37507   4.10627   -1.000
 6023.00    4.38970   4.12167   -1.000
 6024.00    4.38418   4.14116   -1.000
 6025.00    4.40424   4.16629   -1.000
 6026.00    4.43301   4.19201   -1.000
 6027.00    4.46123   4.21418   -1.000
 6028.00    4.43999   4.23374   10.963
 6029.00    4.44726   4.24859   10.890
 6030.00    4.46360   4.25646   10.853
 6031.00    4.46672   4.26194   10.845
 6032.00    4.48561   4.27062   10.853
 6033.00    4.50697   4.28211   10.874
 6034.00    4.47171   4.29102   10.843
 6035.00    4.49755   4.29316   10.795
 6036.00    4.46534   4.28955   10.774
 6037.00    4.46847   4.28335   10.770
 6038.00    4.48057   4.27578   10.752
 6039.00    4.46133   4.26718   10.777
 6040.00    4.45682   4.26030   10.839
 6041.00    4.44829   4.25964   10.856
 6042.00    4.49555   4.26844   -1.000
 6043.00    4.50944   4.28606   -1.000
 6044.00    4.50574   4.30642   10.835
 6045.00    4.49262   4.32271   10.768
 6046.00    4.49568   4.33374   10.693
 6047.00    4.53564   4.34076   10.713
 6048.00    4.50456   4.34266   10.709
 6049.00    4.50627   4.34105   10.693
 6050.00    4.51156   4.34114   10.713
 6051.00    4.52406   4.34073   10.751
 6052.00    4.51551   4.33218   10.771
 6053.00    4.53943   4.31542   10.780
 6054.00    4.53896   4.29558   -1.000
 6055.00    4.51748   4.27778   -1.000
 6056.00    4.49692   4.26892   -1.000
 6057.00    4.52533   4.27411   -1.000
 6058.00    4.52891   4.29116   -1.000
 6059.00    4.51424   4.31117   10.938
 6060.00    4.51770   4.32237   10.875
 6061.00    4.49182   4.31565   10.831
 6062.00    4.48167   4.28917   10.855
 6063.00    4.46086   4.25070   10.899
 6064.00    4.38046   4.21734   11.083
 6065.00    4.28757   4.21164   11.217
 6066.00    4.41525   4.24295   11.433
 6067.00    4.41833   4.29438   11.704
 6068.00    2.91862   4.34221   -1.000
 6069.00    1.82135   4.37494   -1.000
 6070.00    2.65164   4.39300   -1.000
 6071.00    4.08856   4.40200   10.829
 6072.00    4.01910   4.40637   -1.000
 6073.00    4.05316   4.40790   -1.000
 6074.00    1.70986   4.40573   -1.000
 6075.00    2.94963   4.39650   -1.000
 6076.00    4.80840   4.37772   -1.000
 6077.00    4.53709   4.35176   10.803
 6078.00    4.52264   4.32672   10.862
 6079.00    4.51742   4.30920   10.928
 6080.00    4.51932   4.29637   11.014
 6081.00    4.49409   4.28415   11.069
 6082.00    4.48287   4.27715   11.068
 6083.00    4.48037   4.27954   11.083
 6084.00    4.46954   4.28932   11.113
 6085.00    4.48337   4.30471   11.106
 6086.00    4.52558   4.32261   11.097
 6087.00    4.55165   4.33408   11.082
 6088.00    4.55576   4.33133   -1.000
 6089.00    4.53527   4.31702   11.009
 6090.00    4.50584   4.30314   11.046
 6091.00    4.51157   4.30104   11.115
 6092.00    4.51825   4.31289   11.151
 6093.00    4.50202   4.33412   11.130
 6094.00    4.53608   4.35730   11.053
 6095.00    4.58560   4.37543   11.000
 6096.00    4.57231   4.38674   10.938
 6097.00    4.55267   4.39440   10.900
 6098.00    4.56228   4.39769   10.914
 6099.00    4.58031   4.38286   10.940
 6100.00    4.54394   4.33450   10.944
 6101.00    4.49047   4.26014   -1.000
 6102.00    4.43765   4.19922   -1.000
 6103.00    4.39953   4.19292   11.407
 6104.00    4.45522   4.23804   -1.000
 6105.00    4.55170   4.29722   -1.000
 6106.00    4.56662   4.34269   -1.000
 6107.00    4.53022   4.37101   11.036
 6108.00    4.51915   4.39011   11.024
 6109.00    4.52689   4.40215   11.072
 6110.00    4.55994   4.40548   11.092
 6111.00    4.57105   4.40636   11.081
 6112.00    4.56143   4.41377   11.052
 6113.00    4.58488   4.42710   11.006
 6114.00    4.57232   4.43685   11.004
 6115.00    4.56964   4.43612   10.941
 6116.00    4.55775   4.42875   10.928
 6117.00    4.57909   4.41652   10.983
 6118.00    4.54374   4.38903   11.051
 6119.00    4.47776   4.33743   11.064
 6120.00    4.44789   4.26922   11.137
 6121.00    4.39298   4.21366   11.311
 6122.00    4.37096   4.20163   11.448
 6123.00    4.41660   4.23402   11.540
 6124.00    4.51621   4.28508   -1.000
 6125.00    4.51441   4.32619   11.306
 6126.00    4.48593   4.34464   11.187
 6127.00    4.45112   4.34629   11.209
 6128.00    4.48172   4.35310   11.271
 6129.00    4.51356   4.38574   11.244
 6130.00    4.55999   4.43442   11.212
 6131.00    4.60366   4.47032   11.109
 6132.00    4.58217   4.47378   11.014
 6133.00    4.56249   4.43549   11.007
 6134.00    4.46837   4.35354   11.043
 6135.00    4.40829   4.24882   11.175
 6136.00    4.30684   4.16824   11.457
 6137.00    4.25644   4.15481   11.799
 6138.00    4.32415   4.19958   12.056
 6139.00    4.41485   4.25396   12.017
 6140.00    4.47206   4.29028   11.672
 6141.00    4.46068   4.32036   11.366
 6142.00    4.41605   4.36343   11.283
 6143.00    4.47398   4.41411   11.318
 6144.00    4.55278   4.45023   11.319
 6145.00    4.61907   4.45890   11.184
 6146.00    4.60571   4.44180   11.064
 6147.00    4.58873   4.40851   11.070
 6148.00    4.55846   4.37431   11.130
 6149.00    4.52808   4.35457   11.204
 6150.00    4.53554   4.35764   11.285
 6151.00    4.51102   4.37958   11.341
 6152.00    4.50964   4.40145   11.328
 6153.00    4.54973   4.40443   11.278
 6154.00    4.55381   4.38851   11.202
 6155.00    4.54367   4.36753   11.210
 6156.00    4.53762   4.34973   11.315
 6157.00    4.55010   4.32916   11.360
 6158.00    4.53616   4.28963   -1.000
 6159.00    4.50083   4.21445   -1.000
 6160.00    4.44224   4.10664   -1.000
 6161.00    4.35027   4.00024   -1.000
 6162.00    4.27911   3.94408   -1.000
 6163.00    4.27040   3.96060   -1.000
 6164.00    4.33500   4.02655   -1.000
 6165.00    4.37856   4.10073   -1.000
 6166.00    4.39312   4.14983   -1.000
 6167.00    4.40954   4.15660   -1.000
 6168.00    4.37057   4.13031   -1.000
 6169.00    4.31348   4.10931   11.868
 6170.00    4.32275   4.12521   12.036
 6171.00    4.37602   4.17184   12.127
 6172.00    4.41002   4.22128   11.994
 6173.00    4.42300   4.25592   11.752
 6174.00    4.43156   4.27610   11.618
 6175.00    4.44905   4.28841   11.652
 6176.00    4.45537   4.30057   11.653
 6177.00    4.45959   4.31690   11.620
 6178.00    4.48512   4.33484   11.599
 6179.00    4.46988   4.35083   11.563
 6180.00    4.45381   4.36651   11.504
 6181.00    4.48853   4.38288   11.466
 6182.00    4.53925   4.39417   11.427
 6183.00    4.56158   4.39259   11.374
 6184.00    4.54004   4.37567   11.355
 6185.00    4.54209   4.34654   11.386
 6186.00    4.52139   4.31261   11.433
 6187.00    4.49998   4.28067   11.536
 6188.00    4.49589   4.24849   -1.000
 6189.00    4.42651   4.20852   11.783
 6190.00    4.38946   4.16734   11.891
 6191.00    4.34845   4.15305   11.981
 6192.00    4.37941   4.18208   12.142
 6193.00    4.48683   4.23717   -1.000
 6194.00    4.53260   4.29238   -1.000
 6195.00    4.55276   4.33429   11.692
 6196.00    4.52666   4.35645   11.532
 6197.00    4.52568   4.35474   11.481
 6198.00    4.50188   4.33468   11.479
 6199.00    4.47469   4.31573   11.573
 6200.00    4.47845   4.31721   11.711
 6201.00    4.47761   4.33952   11.788
 6202.00    4.47008   4.37033   11.751
 6203.00    4.45920   4.39838   11.615
 6204.00    4.47344   4.41908   11.478
 6205.00    4.45078   4.43344   11.467
 6206.00    4.51139   4.44394   11.468
 6207.00    4.56207   4.45078   11.447
 6208.00    4.58705   4.44948   11.454
 6209.00    4.58128   4.43479   11.501
 6210.00    4.55105   4.40452   11.497
 6211.00    4.49568   4.35906   11.562
 6212.00    4.50277   4.30370   11.674
 6213.00    4.48021   4.25286   11.764
 6214.00    4.45370   4.22162   -1.000
 6215.00    4.44508   4.21426   -1.000
 6216.00    4.48702   4.22266   -1.000
 6217.00    4.53097   4.23197   -1.000
 6218.00    4.53907   4.23281   -1.000
 6219.00    4.47932   4.23038   -1.000
 6220.00    4.47056   4.23574   -1.000
 6221.00    4.52651   4.24913   -1.000
 6222.00    4.55085   4.26151   -1.000
 6223.00    4.58278   4.27032   -1.000
 6224.00    4.60649   4.27828   -1.000
 6225.00    4.47005   4.28521   12.342
 6226.00    4.01390   4.28519   -1.000
 6227.00    4.53552   4.26708   -1.000
 6228.00    4.57003   4.22435   -1.000
 6229.00    4.47517   4.16816   -1.000
 6230.00    4.39640   4.12775   -1.000
 6231.00    4.39441   4.12700   -1.000
 6232.00    4.43899   4.16647   -1.000
 6233.00    4.51271   4.22787   -1.000
 6234.00    4.53732   4.28473   -1.000
 6235.00    4.57652   4.31472   -1.000
 6236.00    4.61708   4.31038   -1.000
 6237.00    4.61034   4.28195   -1.000
 6238.00    4.61532   4.24813   -1.000
 6239.00    4.55995   4.22437   -1.000
 6240.00    4.51195   4.21515   -1.000
 6241.00    4.50893   4.21145   -1.000
 6242.00    4.45362   4.20133   -1.000
 6243.00    4.45853   4.18540   -1.000
 6244.00    4.47573   4.17445   -1.000
 6245.00    4.45881   4.17878   -1.000
 6246.00    4.47465   4.20559   -1.000
 6247.00    4.50548   4.25111   -1.000
 6248.00    4.52485   4.29873   -1.000
 6249.00    4.55816   4.32623   -1.000
 6250.00    4.54231   4.31956   11.912
 6251.00    4.48381   4.28390   11.926
 6252.00    4.41005   4.24258   12.061
 6253.00    4.34018   4.21666   12.293
 6254.00    4.35803   4.20655   12.426
 6255.00    4.38668   4.19871   12.499
 6256.00    4.34126   4.18462   12.524
 6257.00    4.33794   4.17396   12.524
 6258.00    4.42637   4.18301   -1.000
 6259.00    4.45104   4.21779   -1.000
 6260.00    4.45400   4.27169   12.664
 6261.00    4.51251   4.33039   12.458
 6262.00    4.51977   4.37694   12.274
 6263.00    4.53183   4.39954   12.108
 6264.00    4.52408   4.40174   11.926
 6265.00    4.49214   4.39903   11.897
 6266.00    4.52713   4.40151   12.009
 6267.00    4.57275   4.40481   12.074
 6268.00    4.54093   4.40190   12.000
 6269.00    4.52878   4.39724   11.920
 6270.00    4.49452   4.40111   11.981
 6271.00    4.49191   4.41403   12.036
 6272.00    4.52612   4.42420   12.008
 6273.00    4.56583   4.41710   11.966
 6274.00    4.54362   4.38839   11.944
 6275.00    4.49062   4.34531   11.987
 6276.00    4.48193   4.30018   12.082
 6277.00    4.44032   4.26312   12.186
 6278.00    4.32209   4.23825   12.404
 6279.00    4.16391   4.22860   12.727
 6280.00    4.07860   4.23862   12.932
 6281.00    4.05389   4.26818   12.986
 6282.00    4.02980   4.31095   -1.000
 6283.00    4.00737   4.35737   -1.000
 6284.00    3.99552   4.40150   -1.000
 6285.00    4.00853   4.44246   -1.000
 6286.00    4.09456   4.47917   -1.000
 6287.00    4.21853   4.50667   12.048
 6288.00    4.35579   4.51696   11.937
 6289.00    4.45477   4.50836   11.862
 6290.00    4.49133   4.48913   11.851
 6291.00    4.50199   4.46983   11.928
 6292.00    4.49891   4.45663   12.032
 6293.00    4.50469   4.44905   12.115
 6294.00    4.50688   4.43866   12.130
 6295.00    4.47329   4.41800   12.143
 6296.00    4.44785   4.39481   12.171
 6297.00    4.43137   4.38466   12.274
 6298.00    4.40508   4.38822   12.348
 6299.00    4.40435   4.39247   12.356
 6300.00    4.42503   4.38901   12.332
 6301.00    4.42325   4.38682   12.276
 6302.00    4.44828   4.40144   12.231
 6303.00    4.50971   4.43322   12.358
 6304.00    4.52441   4.46981   12.486
 6305.00    4.53086   4.50439   12.345
 6306.00    4.57810   4.53664   12.144
 6307.00    4.60260   4.56269   12.004
 6308.00    4.55883   4.57499   11.906
 6309.00    4.53489   4.57232   11.801
 6310.00    4.57985   4.56179   11.798
 6311.00    4.56895   4.55060   11.859
 6312.00    4.52702   4.53957   11.941
 6313.00    4.51710   4.52519   11.982
 6314.00    4.48037   4.50737   12.030
 6315.00    4.47337   4.48923   12.042
 6316.00    4.45596   4.47330   12.164
 6317.00    4.44475   4.46502   12.194
 6318.00    4.44940   4.47515   12.180
 6319.00    4.46976   4.50682   12.170
 6320.00    4.50378   4.54604   12.187
 6321.00    4.51659   4.57896   12.129
 6322.00    4.55918   4.60663   11.972
 6323.00    4.60920   4.63295   11.863
 6324.00    4.60486   4.65376   11.826
 6325.00    4.62648   4.66594   11.785
 6326.00    4.59162   4.67261   11.719
 6327.00    4.61939   4.67833   11.688
 6328.00    4.64982   4.68459   11.682
 6329.00    4.60366   4.69121   11.620
 6330.00    4.60305   4.70109   11.641
 6331.00    4.62916   4.71312   11.647
 6332.00    4.64170   4.71286   11.653
 6333.00    4.64841   4.68649   11.605
 6334.00    4.60387   4.63991   11.592
 6335.00    4.55216   4.59858   11.630
 6336.00    4.57980   4.58689   11.670
 6337.00    4.18585   4.60622   -1.000
 6338.00    3.92999   4.64243   -1.000
 6339.00    4.69056   4.68149   11.836
 6340.00    4.65022   4.71016   11.714
 6341.00    4.64988   4.71657   11.587
 6342.00    4.66224   4.69931   11.539
 6343.00    4.60993   4.67101   11.484
 6344.00    4.58495   4.65136   11.506
 6345.00    4.59268   4.65172   11.617
 6346.00    4.63964   4.67327   11.619
 6347.00    4.66902   4.71196   11.582
 6348.00    4.66884   4.75576   11.515
 6349.00    4.65521   4.78891   11.434
 6350.00    4.68187   4.80313   11.397
 6351.00    4.68249   4.79850   11.403
 6352.00    4.64162   4.77805   11.376
 6353.00    4.62296   4.74788   11.393
 6354.00    4.61433   4.71942   11.446
 6355.00    4.57382   4.69940   11.502
 6356.00    4.58149   4.68077   11.643
 6357.00    4.56095   4.65532   11.735
 6358.00    4.58025   4.62758   11.730
 6359.00    4.55855   4.60581   11.773
 6360.00    4.55586   4.59096   11.916
 6361.00    4.59449   4.58303   11.952
 6362.00    4.55476   4.58665   11.894
 6363.00    4.56098   4.60543   11.859
 6364.00    4.58886   4.63686   11.850
 6365.00    4.59293   4.67482   11.803
 6366.00    4.59659   4.71303   11.722
 6367.00    4.61692   4.74382   11.648
 6368.00    4.61500   4.75920   11.586
 6369.00    4.64313   4.76162   11.511
 6370.00    4.64004   4.76539   11.436
 6371.00    4.59541   4.78288   11.413
 6372.00    4.62825   4.81104   11.423
 6373.00    4.66221   4.83567   11.378
 6374.00    4.67301   4.84724   11.336
 6375.00    4.64127   4.84485   11.374
 6376.00    4.60557   4.82900   11.380
 6377.00    4.63431   4.80301   11.407
 6378.00    4.57163   4.77693   11.452
 6379.00    4.54914   4.75971   11.513
 6380.00    4.56702   4.75400   11.592
 6381.00    4.57342   4.75774   11.631
 6382.00    4.57679   4.76693   11.636
 6383.00    4.57880   4.77842   11.659
 6384.00    4.60743   4.79240   11.652
 6385.00    4.58345   4.80919   11.621
 6386.00    4.57257   4.82445   11.684
 6387.00    4.58682   4.83365   11.706
 6388.00    4.57461   4.83632   11.694
 6389.00    4.55603   4.83131   11.735
 6390.00    4.51384   4.81181   11.774
 6391.00    4.44406   4.77494   -1.000
 6392.00    4.39657   4.73611   -1.000
 6393.00    4.36494   4.72324   -1.000
 6394.00    4.33487   4.75040   -1.000
 6395.00    4.32631   4.79834   -1.000
 6396.00    4.37306   4.83188   -1.000
 6397.00    4.38284   4.82652   -1.000
 6398.00    4.32962   4.78649   -1.000
 6399.00    4.25524   4.74563   -1.000
 6400.00    4.18495   4.74139   -1.000
 6401.00    4.18896   4.78229   -1.000
 6402.00    4.26235   4.84246   -1.000
 6403.00    4.32688   4.89005   -1.000
 6404.00    4.31726   4.90689   -1.000
 6405.00    4.31580   4.89266   -1.000
 6406.00    4.28449   4.86404   -1.000
 6407.00    4.21503   4.84468   -1.000
 6408.00    4.18373   4.84276   -1.000
 6409.00    4.14679   4.84446   -1.000
 6410.00    4.10368   4.83782   -1.000
 6411.00    4.08650   4.82894   -1.000
 6412.00    4.03519   4.83011   -1.000
 6413.00    4.01904   4.84156   -1.000
 6414.00    4.02111   4.85589   -1.000
 6415.00    4.04439   4.86968   -1.000
 6416.00    4.01641   4.87736   -1.000
 6417.00    4.00249   4.86890   -1.000
 6418.00    3.97652   4.84148   -1.000
 6419.00    3.89517   4.80892   -1.000
 6420.00    3.81543   4.79513   -1.000
 6421.00    3.74166   4.81772   -1.000
 6422.00    3.77580   4.86869   -1.000
 6423.00    3.79137   4.92259   -1.000
 6424.00    3.78815   4.96385   -1.000
 6425.00    3.73548   4.99119   -1.000
 6426.00    3.72557   5.00334   -1.000
 6427.00    3.69736   4.99121   -1.000
 6428.00    3.66272   4.94808   -1.000
