###################################################################
## OUTPUT of StarlightChains_v04.for    [Cid@UFSC - 01/Apr/2007] ##
###################################################################

## Some input info
NGC6626_a_1.cxt                          [arq_obs]
Base.BC03.N                              [arq_base]
NGC6626_a_1.msk                          [arq_masks]
StCv04.C11.config                        [arq_config]
   45                                    [N_base]
    0                                    [N_YAV_components = # of components with extra extinction!]
    0                                    [i_FitPowerLaw (1/0 = Yes/No)]
-9.99                                    [alpha_PowerLaw]
CCM                                      [red_law_option]
 1.458241                                [q_norm = A(l_norm)/A(V)]

## (Re)Sampling Parameters
 3359.00                                 [l_ini (A)]
 6428.00                                 [l_fin (A)]
    1.00                                 [dl    (A)]     (OBS: dl_cushion =    50.00 A)

## Normalization info
 4020.00                                 [l_norm (A) - for base]
 4010.00                                 [llow_norm (A) - window for f_obs]
 4060.00                                 [lupp_norm (A) - window for f_obs]
2.684846E-14                             [fobs_norm (in input units)]

## S/N
 4730.00                                 [llow_SN (A) - window for S/N]
 4780.00                                 [lupp_SN (A) - window for S/N]
  76.546                                 [S/N in S/N window]
  58.380                                 [S/N in norm. window]
 133.097                                 [S/N_err in S/N window]
 101.509                                 [S/N_err in norm. window]
  1.0000                                 [fscale_chi2]

## etc...
  2147483595                             [idum_orig]
  3069                                   [NOl_eff]
  1123                                   [Nl_eff]
  1946    NSIGMA                         [Ntot_cliped & clip_method]
   983640                                [Nglobal_steps]
   7                                     [N_chains]
  12                                     [NEX0s_base = N_base in EX0s-fits]
 0   0   1      124   2.0   2.431E+02    [Clip-Bug, RC-Crash & Burn-In warning-flags, n_censored_weights, wei_nsig_threshold & wei_limit]
    11     11.281     11.273      0.008  [idt_all, wdt_TotTime, wdt_UsrTime & wdt_SysTime (sec)]

## Synthesis Results - Best model ##

 2.96119E+00                             [chi2/Nl_eff]
     1.88820                             [adev (%)]

    99.93867                             [sum-of-x (%)]
 1.89493E-13                             [Flux_tot (units of input spectrum!)]
 1.50925E-09                             [Mini_tot (???)]
 8.21207E-10                             [Mcor_tot (???)]

  -3.85                                  [v0_min  (km/s)]
  60.02                                  [vd_min  (km/s)]
 1.4554                                  [AV_min  (mag)]
 0.0000                                  [YAV_min (mag)]

# j     x_j(%)      Mini_j(%)     Mcor_j(%)     age_j(yr)     Z_j      (L/M)_j    YAV?  Mstars   component_j        a/Fe...       SSP_chi2r SSP_adev(%)   SSP_AV   SSP_x(%)
  1      0.0000     0.0000E+00    0.0000E+00    1.000000E+06  0.00400  1.114E-02    0   1.0000   age020_m42            0.0000     4.3454E+02    17.4201   4.0000    89.3551
  2      4.2255     1.3033E-02    2.3951E-02    3.160000E+06  0.00400  4.073E-02    0   0.9999   age045_m42            0.0000     4.7750E+01     6.0966   3.5875    90.8899
  3      0.0000     0.0000E+00    0.0000E+00    5.010000E+06  0.00400  2.534E-02    0   0.9488   age055_m42            0.0000     1.0389E+02     9.1974   3.9474    85.5475
  4     11.0138     1.0886E-01    1.7731E-01    1.000000E+07  0.00400  1.271E-02    0   0.8862   age070_m42            0.0000     9.3808E+01     9.2881   3.1486    90.0356
  5      2.6257     6.5064E-02    9.7742E-02    2.512000E+07  0.00400  5.070E-03    0   0.8174   age090_m42            0.0000     8.2691E+01     8.7540   3.0309    91.2891
  6      0.0000     0.0000E+00    0.0000E+00    4.000000E+07  0.00400  3.505E-03    0   0.7851   age104_m42            0.0000     5.0893E+01     6.8813   2.7457    93.5111
  7      0.5373     2.9761E-02    3.9419E-02    1.015200E+08  0.00400  2.268E-03    0   0.7207   age116_m42            0.0000     1.0300E+02     6.3855   2.8411    99.8246
  8      0.0000     0.0000E+00    0.0000E+00    2.861200E+08  0.00400  1.079E-03    0   0.6613   age125_m42            0.0000     1.1017E+02     6.8650   2.3702   100.9748
  9     10.6010     2.6232E+00    2.9876E+00    6.405400E+08  0.00400  5.077E-04    0   0.6197   age132_m42            0.0000     1.1808E+02     7.3563   2.0097   104.7854
 10     20.6217     7.3288E+00    8.1138E+00    9.047900E+08  0.00400  3.535E-04    0   0.6024   age135_m42            0.0000     6.9526E+01     5.8402   1.7604   104.4913
 11      0.0000     0.0000E+00    0.0000E+00    1.434000E+09  0.00400  1.910E-04    0   0.5716   age139_m42            0.0000     3.0852E+01     4.2748   1.2323   103.8562
 12     29.6949     3.7998E+01    3.8150E+01    2.500000E+09  0.00400  9.818E-05    0   0.5463   age150_m42            0.0000     2.3689E+01     3.9547   0.9414   100.0017
 13     15.4857     4.1235E+01    3.9620E+01    5.000000E+09  0.00400  4.718E-05    0   0.5228   age161_m42            0.0000     3.9438E+01     4.5714   0.7608    97.2793
 14      0.0000     0.0000E+00    0.0000E+00    1.100000E+10  0.00400  2.205E-05    0   0.4980   age185_m42            0.0000     8.7346E+01     6.3452   0.5056    95.2957
 15      0.0000     0.0000E+00    0.0000E+00    1.300000E+10  0.00400  1.883E-05    0   0.4927   age193_m42            0.0000     9.4839E+01     6.6023   0.4886    95.1642
 16      0.0000     0.0000E+00    0.0000E+00    1.000000E+06  0.02000  1.989E-02    0   1.0000   age020_m62            0.0000     4.0356E+02    16.6396   4.0000    89.2878
 17      0.0000     0.0000E+00    0.0000E+00    3.160000E+06  0.02000  3.772E-02    0   0.9858   age045_m62            0.0000     2.8015E+02    14.3484   4.0000    88.6168
 18      0.0000     0.0000E+00    0.0000E+00    5.010000E+06  0.02000  3.227E-02    0   0.9342   age055_m62            0.0000     7.1776E+01     7.8726   3.8145    88.2935
 19      0.0000     0.0000E+00    0.0000E+00    1.000000E+07  0.02000  1.011E-02    0   0.8751   age070_m62            0.0000     2.5364E+02    14.2426   3.1361    87.0132
 20      0.0000     0.0000E+00    0.0000E+00    2.512000E+07  0.02000  4.206E-03    0   0.8099   age090_m62            0.0000     1.7823E+02    12.1670   3.0959    87.2036
 21      0.0000     0.0000E+00    0.0000E+00    4.000000E+07  0.02000  3.373E-03    0   0.7799   age104_m62            0.0000     5.0251E+01     6.3850   2.9704    94.4322
 22      0.0000     0.0000E+00    0.0000E+00    1.015200E+08  0.02000  1.878E-03    0   0.7221   age116_m62            0.0000     8.5123E+01     5.7285   2.8552   100.4780
 23      0.0000     0.0000E+00    0.0000E+00    2.861200E+08  0.02000  8.869E-04    0   0.6700   age125_m62            0.0000     1.9238E+02     9.1104   2.4058   105.1823
 24      0.0000     0.0000E+00    0.0000E+00    6.405400E+08  0.02000  3.657E-04    0   0.6322   age132_m62            0.0000     1.3012E+02     8.0151   1.7426   108.0490
 25      0.0000     0.0000E+00    0.0000E+00    9.047900E+08  0.02000  2.312E-04    0   0.6152   age135_m62            0.0000     7.5710E+01     6.5547   1.3539   107.8203
 26      0.0000     0.0000E+00    0.0000E+00    1.434000E+09  0.02000  1.168E-04    0   0.5865   age139_m62            0.0000     3.9306E+01     5.0370   0.9118   103.3449
 27      1.3336     3.0434E+00    3.1378E+00    2.500000E+09  0.02000  5.505E-05    0   0.5610   age150_m62            0.0000     7.5307E+01     6.3134   0.5361   101.0284
 28      0.0000     0.0000E+00    0.0000E+00    5.000000E+09  0.02000  2.596E-05    0   0.5353   age161_m62            0.0000     1.6181E+02     8.4866   0.2107   101.2577
 29      0.0000     0.0000E+00    0.0000E+00    1.100000E+10  0.02000  1.169E-05    0   0.5103   age185_m62            0.0000     2.6401E+02    10.5171  -0.1364   102.4778
 30      0.0000     0.0000E+00    0.0000E+00    1.300000E+10  0.02000  9.691E-06    0   0.5047   age193_m62            0.0000     2.8310E+02    10.8528  -0.1803   102.6952
 31      0.0000     0.0000E+00    0.0000E+00    1.000000E+06  0.05000  2.651E-02    0   0.9998   age020_m72            0.0000     3.9780E+02    16.3999   4.0000    90.2610
 32      0.0000     0.0000E+00    0.0000E+00    3.160000E+06  0.05000  4.817E-02    0   0.9577   age045_m72            0.0000     1.6554E+02    11.4204   4.0000    88.6055
 33      1.5222     6.1671E-03    1.0367E-02    5.010000E+06  0.05000  3.101E-02    0   0.9147   age055_m72            0.0000     1.2253E+02     9.8739   3.8109    86.9219
 34      0.0000     0.0000E+00    0.0000E+00    1.000000E+07  0.05000  8.954E-03    0   0.8524   age070_m72            0.0000     1.3454E+02    10.0957   4.0000    86.5704
 35      0.0000     0.0000E+00    0.0000E+00    2.512000E+07  0.05000  4.207E-03    0   0.7902   age090_m72            0.0000     6.5656E+01     7.1538   3.6565    90.0168
 36      0.0000     0.0000E+00    0.0000E+00    4.000000E+07  0.05000  3.198E-03    0   0.7618   age104_m72            0.0000     5.3773E+01     4.8604   3.2143    96.6697
 37      0.0000     0.0000E+00    0.0000E+00    1.015200E+08  0.05000  1.716E-03    0   0.7092   age116_m72            0.0000     1.0819E+02     6.5003   2.9594   100.1976
 38      0.0000     0.0000E+00    0.0000E+00    2.861200E+08  0.05000  7.047E-04    0   0.6618   age125_m72            0.0000     1.8771E+02     9.1972   2.2172   105.4000
 39      0.0000     0.0000E+00    0.0000E+00    6.405400E+08  0.05000  2.633E-04    0   0.6253   age132_m72            0.0000     1.0359E+02     7.5032   1.3717   107.7904
 40      0.0000     0.0000E+00    0.0000E+00    9.047900E+08  0.05000  1.484E-04    0   0.6088   age135_m72            0.0000     6.6937E+01     6.4385   0.8697   103.8176
 41      1.6794     2.6956E+00    2.8967E+00    1.434000E+09  0.05000  7.827E-05    0   0.5847   age139_m72            0.0000     1.1003E+02     7.4908   0.4712   101.0702
 42      0.0000     0.0000E+00    0.0000E+00    2.500000E+09  0.05000  3.759E-05    0   0.5583   age150_m72            0.0000     1.7884E+02     8.9270   0.1444   100.7410
 43      0.5980     4.8534E+00    4.7453E+00    5.000000E+09  0.05000  1.548E-05    0   0.5320   age161_m72            0.0000     2.7820E+02    10.6298  -0.2548   100.4831
 44      0.0000     0.0000E+00    0.0000E+00    1.100000E+10  0.05000  6.532E-06    0   0.5070   age185_m72            0.0000     3.9937E+02    12.7241  -0.6065   100.0336
 45      0.0000     0.0000E+00    0.0000E+00    1.300000E+10  0.05000  5.316E-06    0   0.5018   age193_m72            0.0000     4.4965E+02    13.5836  -0.7109    99.8790


## Synthesis Results - Average & Chains ##

# j      x_j: min, <> & last-chain-values for 1 ...  7 chains
  1      0.0000      0.0309      0.0000      0.0000      0.0000      0.1716      0.0000      0.0000      0.0000
  2      4.2255      3.7988      3.9082      3.9130      3.7764      3.9430      3.9295      3.9364      3.7164
  3      0.0000      0.1810      0.1127      0.4691      0.1423      0.0796      0.3495      0.1980      0.0000
  4     11.0138     10.2295     10.2387     10.2119     10.1869     10.3886     10.4431     10.6537     10.1166
  5      2.6257      2.6426      2.8474      2.7416      2.7497      2.6457      2.5823      2.6710      2.4283
  6      0.0000      0.0354      0.0000      0.0000      0.0000      0.0000      0.0000      0.0000      0.0000
  7      0.5373      3.1497      3.1084      2.9943      3.0849      2.5694      2.9575      3.1303      3.2340
  8      0.0000      0.0390      0.0000      0.0863      0.0248      0.0244      0.0000      0.0000      0.0588
  9     10.6010      9.9171      9.8583     10.1534     10.0611      9.8541     10.0528     10.0798      9.9317
 10     20.6217     17.5043     18.3230     17.6504     17.7018     18.3434     17.8142     17.7477     18.1796
 11      0.0000      0.3041      0.0000      1.0131      0.4368      0.4580      0.0448      0.0000      0.0000
 12     29.6949     30.9750     30.7525     30.3484     30.4962     31.0935     31.4106     30.8892     30.8356
 13     15.4857     17.2902     16.8823     17.1115     16.6671     17.3727     17.1585     16.5975     17.0074
 14      0.0000      0.0354      0.0000      0.0378      0.0000      0.0000      0.0050      0.0650      0.0423
 15      0.0000      0.0157      0.0000      0.0000      0.0000      0.0000      0.0000      0.0128      0.0000
 16      0.0000      0.0303      0.0000      0.0000      0.0000      0.0000      0.0184      0.0000      0.1991
 17      0.0000      0.0505      0.0000      0.0000      0.1668      0.0000      0.0000      0.0321      0.0000
 18      0.0000      0.2605      0.2823      0.1924      0.2751      0.4019      0.2336      0.3818      0.5946
 19      0.0000      0.0849      0.0412      0.0986      0.2610      0.0000      0.0356      0.0000      0.1168
 20      0.0000      0.0370      0.0000      0.0000      0.0000      0.0000      0.0669      0.0000      0.0000
 21      0.0000      0.0414      0.0000      0.0006      0.0000      0.0158      0.0000      0.0000      0.0000
 22      0.0000      0.0453      0.0000      0.0000      0.0000      0.0000      0.0000      0.0000      0.0000
 23      0.0000      0.0161      0.0000      0.0000      0.0000      0.0000      0.0000      0.0000      0.0000
 24      0.0000      0.0288      0.0000      0.0000      0.0000      0.0000      0.0000      0.0000      0.0000
 25      0.0000      0.0404      0.0000      0.0000      0.0342      0.0000      0.0266      0.0000      0.0000
 26      0.0000      0.1476      0.0812      0.0000      0.7153      0.0000      0.0282      0.4294      0.4493
 27      1.3336      0.6244      0.4426      0.5701      0.7099      0.3159      0.4999      0.6091      0.7651
 28      0.0000      0.2158      0.3443      0.4717      0.3101      0.2090      0.3446      0.3756      0.1388
 29      0.0000      0.1703      0.1483      0.2646      0.1539      0.1566      0.1737      0.2027      0.2719
 30      0.0000      0.0276      0.0120      0.0867      0.0000      0.0490      0.0000      0.0010      0.0059
 31      0.0000      0.0711      0.0955      0.0000      0.0000      0.0000      0.0000      0.0000      0.0000
 32      0.0000      0.2099      0.2543      0.2274      0.3498      0.1431      0.3979      0.1521      0.3069
 33      1.5222      0.3629      0.5869      0.3817      0.3625      0.3486      0.2913      0.3467      0.4331
 34      0.0000      0.0790      0.0000      0.1321      0.0000      0.2237      0.0000      0.0000      0.1643
 35      0.0000      0.0473      0.0924      0.0000      0.0000      0.0533      0.0000      0.0107      0.0000
 36      0.0000      0.0457      0.0000      0.0000      0.0450      0.0000      0.0000      0.0081      0.0000
 37      0.0000      0.0244      0.0243      0.0000      0.0000      0.0000      0.0000      0.0554      0.0000
 38      0.0000      0.0204      0.0000      0.0000      0.0000      0.0000      0.0000      0.0000      0.0000
 39      0.0000      0.0298      0.0000      0.0000      0.0000      0.0000      0.0000      0.0000      0.0000
 40      0.0000      0.0491      0.0000      0.0000      0.0000      0.0000      0.0084      0.0000      0.0000
 41      1.6794      0.3802      0.5718      0.5015      0.4591      0.4702      0.4919      0.7320      0.2784
 42      0.0000      0.2467      0.3995      0.0000      0.5845      0.2110      0.1846      0.2656      0.2238
 43      0.5980      0.2743      0.4052      0.2095      0.2159      0.2851      0.3066      0.3448      0.3185
 44      0.0000      0.0721      0.0961      0.0687      0.0000      0.0721      0.0040      0.0195      0.0726
 45      0.0000      0.0109      0.0000      0.0000      0.0000      0.0000      0.0000      0.0000      0.0000

# j      m_j: min, <> & last-chain-values for 1 ...  7 chains
  1  0.0000E+00  6.1158E-04  0.0000E+00  0.0000E+00  0.0000E+00  3.4130E-03  0.0000E+00  0.0000E+00  0.0000E+00
  2  2.3951E-02  2.0549E-02  2.1111E-02  2.1111E-02  2.0881E-02  2.1449E-02  2.1566E-02  2.1463E-02  2.0118E-02
  3  0.0000E+00  1.4937E-03  9.2826E-04  3.8602E-03  1.2000E-03  6.6051E-04  2.9253E-03  1.6466E-03  0.0000E+00
  4  1.7731E-01  1.5716E-01  1.5708E-01  1.5648E-01  1.5997E-01  1.6051E-01  1.6278E-01  1.6498E-01  1.5554E-01
  5  9.7742E-02  9.3879E-02  1.0101E-01  9.7137E-02  9.9847E-02  9.4519E-02  9.3072E-02  9.5642E-02  8.6331E-02
  6  0.0000E+00  1.7476E-03  0.0000E+00  0.0000E+00  0.0000E+00  0.0000E+00  0.0000E+00  0.0000E+00  0.0000E+00
  7  3.9419E-02  2.2054E-01  2.1734E-01  2.0911E-01  2.2079E-01  1.8092E-01  2.1010E-01  2.2093E-01  2.2661E-01
  8  0.0000E+00  5.2605E-03  0.0000E+00  1.1619E-02  3.4195E-03  3.3182E-03  0.0000E+00  0.0000E+00  7.9460E-03
  9  2.9876E+00  2.6673E+00  2.6477E+00  2.7236E+00  2.7659E+00  2.6653E+00  2.7432E+00  2.7326E+00  2.6732E+00
 10  8.1138E+00  6.5728E+00  6.8704E+00  6.6101E+00  6.7941E+00  6.9266E+00  6.7866E+00  6.7172E+00  6.8314E+00
 11  0.0000E+00  2.0050E-01  0.0000E+00  6.6631E-01  2.9443E-01  3.0371E-01  2.9997E-02  0.0000E+00  0.0000E+00
 12  3.8150E+01  3.7978E+01  3.7651E+01  3.7111E+01  3.8218E+01  3.8338E+01  3.9073E+01  3.8174E+01  3.7835E+01
 13  3.9620E+01  4.2217E+01  4.1162E+01  4.1670E+01  4.1597E+01  4.2657E+01  4.2506E+01  4.0848E+01  4.1557E+01
 14  0.0000E+00  1.7614E-01  0.0000E+00  1.8783E-01  0.0000E+00  0.0000E+00  2.5354E-02  3.2614E-01  2.1081E-01
 15  0.0000E+00  9.0687E-02  0.0000E+00  0.0000E+00  0.0000E+00  0.0000E+00  0.0000E+00  7.4379E-02  0.0000E+00
 16  0.0000E+00  3.3575E-04  0.0000E+00  0.0000E+00  0.0000E+00  0.0000E+00  2.0720E-04  0.0000E+00  2.2078E-03
 17  0.0000E+00  2.9094E-04  0.0000E+00  0.0000E+00  9.8166E-04  0.0000E+00  0.0000E+00  1.8633E-04  0.0000E+00
 18  0.0000E+00  1.6617E-03  1.7979E-03  1.2238E-03  1.7935E-03  2.5784E-03  1.5117E-03  2.4549E-03  3.7954E-03
 19  0.0000E+00  1.6187E-03  7.8411E-04  1.8762E-03  5.0890E-03  0.0000E+00  6.8840E-04  0.0000E+00  2.2288E-03
 20  0.0000E+00  1.5719E-03  0.0000E+00  0.0000E+00  0.0000E+00  0.0000E+00  2.8817E-03  0.0000E+00  0.0000E+00
 21  0.0000E+00  2.1101E-03  0.0000E+00  3.2429E-05  0.0000E+00  8.1078E-04  0.0000E+00  0.0000E+00  0.0000E+00
 22  0.0000E+00  3.8399E-03  0.0000E+00  0.0000E+00  0.0000E+00  0.0000E+00  0.0000E+00  0.0000E+00  0.0000E+00
 23  0.0000E+00  2.6866E-03  0.0000E+00  0.0000E+00  0.0000E+00  0.0000E+00  0.0000E+00  0.0000E+00  0.0000E+00
 24  0.0000E+00  1.0969E-02  0.0000E+00  0.0000E+00  0.0000E+00  0.0000E+00  0.0000E+00  0.0000E+00  0.0000E+00
 25  0.0000E+00  2.3690E-02  0.0000E+00  0.0000E+00  2.0486E-02  0.0000E+00  1.5801E-02  0.0000E+00  0.0000E+00
 26  0.0000E+00  1.6327E-01  8.9744E-02  0.0000E+00  8.0898E-01  0.0000E+00  3.1641E-02  4.7892E-01  4.9754E-01
 27  3.1378E+00  1.4020E+00  9.9247E-01  1.2767E+00  1.6293E+00  7.1333E-01  1.1389E+00  1.3785E+00  1.7193E+00
 28  0.0000E+00  9.8054E-01  1.5620E+00  2.1378E+00  1.4401E+00  9.5511E-01  1.5886E+00  1.7202E+00  6.3131E-01
 29  0.0000E+00  1.6381E+00  1.4243E+00  2.5383E+00  1.5126E+00  1.5143E+00  1.6952E+00  1.9648E+00  2.6174E+00
 30  0.0000E+00  3.1719E-01  1.3783E-01  9.9220E-01  0.0000E+00  5.6496E-01  0.0000E+00  1.1367E-02  6.7282E-02
 31  0.0000E+00  5.9055E-04  7.9276E-04  0.0000E+00  0.0000E+00  0.0000E+00  0.0000E+00  0.0000E+00  0.0000E+00
 32  0.0000E+00  9.1949E-04  1.1126E-03  9.9336E-04  1.5664E-03  6.3033E-04  1.7686E-03  6.7146E-04  1.3453E-03
 33  1.0367E-02  2.3587E-03  3.8092E-03  2.4741E-03  2.4081E-03  2.2786E-03  1.9206E-03  2.2712E-03  2.8171E-03
 34  0.0000E+00  1.6581E-03  0.0000E+00  2.7646E-03  0.0000E+00  4.7192E-03  0.0000E+00  0.0000E+00  3.4480E-03
 35  0.0000E+00  1.9584E-03  3.8185E-03  0.0000E+00  0.0000E+00  2.2181E-03  0.0000E+00  4.4608E-04  0.0000E+00
 36  0.0000E+00  2.3989E-03  0.0000E+00  0.0000E+00  2.4169E-03  0.0000E+00  0.0000E+00  4.3096E-04  0.0000E+00
 37  0.0000E+00  2.2239E-03  2.2137E-03  0.0000E+00  0.0000E+00  0.0000E+00  0.0000E+00  5.0870E-03  0.0000E+00
 38  0.0000E+00  4.2307E-03  0.0000E+00  0.0000E+00  0.0000E+00  0.0000E+00  0.0000E+00  0.0000E+00  0.0000E+00
 39  0.0000E+00  1.5582E-02  0.0000E+00  0.0000E+00  0.0000E+00  0.0000E+00  0.0000E+00  0.0000E+00  0.0000E+00
 40  0.0000E+00  4.4385E-02  0.0000E+00  0.0000E+00  0.0000E+00  0.0000E+00  7.7120E-03  0.0000E+00  0.0000E+00
 41  2.8967E+00  6.2584E-01  9.3982E-01  8.2324E-01  7.7236E-01  7.7827E-01  8.2143E-01  1.2145E+00  4.5865E-01
 42  0.0000E+00  8.0730E-01  1.3055E+00  0.0000E+00  1.9551E+00  6.9457E-01  6.1294E-01  8.7599E-01  7.3313E-01
 43  4.7453E+00  2.0774E+00  3.0641E+00  1.5824E+00  1.6712E+00  2.1708E+00  2.3557E+00  2.6321E+00  2.4138E+00
 44  0.0000E+00  1.2328E+00  1.6404E+00  1.1725E+00  0.0000E+00  1.2404E+00  6.9255E-02  3.3555E-01  1.2420E+00
 45  0.0000E+00  2.2705E-01  0.0000E+00  0.0000E+00  0.0000E+00  0.0000E+00  0.0000E+00  0.0000E+00  0.0000E+00

# AV, chi2 & Mass for <> & i_chain = 1 ...  7 solutions
AV       1.4554      1.4464      1.4486      1.4503      1.4470      1.4480      1.4490      1.4460      1.4497
chi2 2.9612E+00  3.0362E+00  3.0163E+00  3.0257E+00  3.0249E+00  3.0239E+00  3.0242E+00  3.0235E+00  3.0238E+00
Mass 8.2121E-10  8.5012E-10  8.5390E-10  8.5685E-10  8.3243E-10  8.4715E-10  8.4086E-10  8.4299E-10  8.5327E-10
  -3.85                                  [v0_min (km/s) before EX0s...]
  60.02                                  [vd_min (km/s) before EX0s...]


## Synthetic spectrum (Best Model) ##l_obs f_obs f_syn wei
 3070    [Nl_obs]
 3359.00    0.00000   0.43033   -2.000
 3360.00    0.15197   0.41053   -1.000
 3361.00    0.22526   0.40706   -1.000
 3362.00    0.23290   0.42224   -1.000
 3363.00    0.24274   0.44648   -1.000
 3364.00    0.26546   0.46568   -1.000
 3365.00    0.27399   0.47011   -1.000
 3366.00    0.26498   0.45841   -1.000
 3367.00    0.25983   0.43900   -1.000
 3368.00    0.26247   0.42362   -1.000
 3369.00    0.25948   0.41749   -1.000
 3370.00    0.25677   0.41706   -1.000
 3371.00    0.25764   0.41506   -1.000
 3372.00    0.25397   0.41278   -1.000
 3373.00    0.25291   0.41905   -1.000
 3374.00    0.27073   0.43849   -1.000
 3375.00    0.28310   0.46509   -1.000
 3376.00    0.29084   0.48028   -1.000
 3377.00    0.29989   0.47502   -1.000
 3378.00    0.30175   0.45641   -1.000
 3379.00    0.29689   0.43804   -1.000
 3380.00    0.29667   0.43254   -1.000
 3381.00    0.29057   0.44066   -1.000
 3382.00    0.29599   0.45605   -1.000
 3383.00    0.30702   0.46862   -1.000
 3384.00    0.30888   0.47669   -1.000
 3385.00    0.30839   0.48330   -1.000
 3386.00    0.32150   0.48696   -1.000
 3387.00    0.32733   0.48609   -1.000
 3388.00    0.33079   0.48406   -1.000
 3389.00    0.33210   0.48349   -1.000
 3390.00    0.33764   0.48236   -1.000
 3391.00    0.34709   0.47659   -1.000
 3392.00    0.34698   0.46698   -1.000
 3393.00    0.34461   0.46186   -1.000
 3394.00    0.34954   0.46717   -1.000
 3395.00    0.35661   0.48116   -1.000
 3396.00    0.36481   0.49702   -1.000
 3397.00    0.36984   0.50894   -1.000
 3398.00    0.38154   0.51434   -1.000
 3399.00    0.38946   0.51219   -1.000
 3400.00    0.39073   0.50499   -1.000
 3401.00    0.39842   0.49532   28.245
 3402.00    0.40319   0.48446   29.198
 3403.00    0.39350   0.47600   29.796
 3404.00    0.38708   0.47216   30.250
 3405.00    0.38737   0.46956   30.799
 3406.00    0.38634   0.46472   31.318
 3407.00    0.39048   0.45925   31.568
 3408.00    0.39694   0.45749   31.967
 3409.00    0.38968   0.46268   32.243
 3410.00    0.38938   0.47117   32.149
 3411.00    0.38662   0.47602   31.391
 3412.00    0.39674   0.47444   30.936
 3413.00    0.40041   0.46927   31.810
 3414.00    0.40027   0.46625   32.642
 3415.00    0.39763   0.46821   32.759
 3416.00    0.39820   0.47576   32.151
 3417.00    0.40977   0.48730   30.928
 3418.00    0.41510   0.50082   29.498
 3419.00    0.41606   0.51265   28.033
 3420.00    0.42164   0.51756   27.537
 3421.00    0.42474   0.51373   27.376
 3422.00    0.42584   0.50590   27.438
 3423.00    0.43375   0.49884   28.057
 3424.00    0.43533   0.49553   28.753
 3425.00    0.43601   0.49550   28.353
 3426.00    0.43941   0.49854   27.578
 3427.00    0.44077   0.50684   27.260
 3428.00    0.45388   0.52020   -1.000
 3429.00    0.46238   0.52986   -1.000
 3430.00    0.46362   0.52953   -1.000
 3431.00    0.46121   0.51993   -1.000
 3432.00    0.45489   0.50827   -1.000
 3433.00    0.44866   0.50243   37.790
 3434.00    0.45031   0.50390   27.200
 3435.00    0.46052   0.50911   -1.000
 3436.00    0.46430   0.51076   -1.000
 3437.00    0.45698   0.50527   37.523
 3438.00    0.44826   0.49196   28.012
 3439.00    0.43868   0.47195   29.589
 3440.00    0.42957   0.44847   31.770
 3441.00    0.41652   0.43112   33.441
 3442.00    0.41503   0.42747   33.880
 3443.00    0.42430   0.43557   33.791
 3444.00    0.42433   0.44633   32.797
 3445.00    0.43681   0.45689   31.138
 3446.00    0.44590   0.47031   29.418
 3447.00    0.46190   0.48832   28.217
 3448.00    0.47969   0.50681   72.921
 3449.00    0.48602   0.51656   -1.000
 3450.00    0.49214   0.51239   -1.000
 3451.00    0.49480   0.49841  243.057
 3452.00    0.48515   0.48231  243.057
 3453.00    0.46650   0.47445  243.057
 3454.00    0.47374   0.47747  243.057
 3455.00    0.48935   0.48556  243.057
 3456.00    0.48990   0.48921  243.057
 3457.00    0.48460   0.48388  243.057
 3458.00    0.47412   0.47433  243.057
 3459.00    0.46967   0.46509   37.703
 3460.00    0.46917   0.45808   27.472
 3461.00    0.47877   0.45763   27.457
 3462.00    0.48405   0.46707   71.643
 3463.00    0.49229   0.48014   -1.000
 3464.00    0.49718   0.48831   -1.000
 3465.00    0.49972   0.49094   -1.000
 3466.00    0.48463   0.49199  243.057
 3467.00    0.47783   0.49578   -1.000
 3468.00    0.49098   0.50126  239.476
 3469.00    0.50149   0.50615  233.165
 3470.00    0.50322   0.50888  230.499
 3471.00    0.50276   0.50705  231.531
 3472.00    0.49744   0.49925  237.699
 3473.00    0.49118   0.48557  243.057
 3474.00    0.48049   0.46827   -1.000
 3475.00    0.46657   0.45523   38.070
 3476.00    0.45976   0.45376   28.152
 3477.00    0.46329   0.46367   28.039
 3478.00    0.47980   0.47747   72.000
 3479.00    0.50387   0.48911   -1.000
 3480.00    0.51693   0.49511   -1.000
 3481.00    0.51675   0.49513   -1.000
 3482.00    0.51195   0.49037   -1.000
 3483.00    0.51125   0.48422   -1.000
 3484.00    0.51203   0.48323   -1.000
 3485.00    0.52159   0.49232   -1.000
 3486.00    0.52699   0.50719   -1.000
 3487.00    0.52809   0.51479   -1.000
 3488.00    0.51984   0.50835   -1.000
 3489.00    0.50779   0.49209   -1.000
 3490.00    0.49402   0.47857   -1.000
 3491.00    0.48656   0.47555   -1.000
 3492.00    0.48243   0.47936  243.057
 3493.00    0.49145   0.48138   -1.000
 3494.00    0.49417   0.47692   -1.000
 3495.00    0.48449   0.46943   -1.000
 3496.00    0.48431   0.46648   -1.000
 3497.00    0.48544   0.47518   -1.000
 3498.00    0.49671   0.49202  243.057
 3499.00    0.51523   0.50333   -1.000
 3500.00    0.52104   0.50599   -1.000
 3501.00    0.52216   0.50655   -1.000
 3502.00    0.52637   0.50967   -1.000
 3503.00    0.53489   0.51329   -1.000
 3504.00    0.53194   0.51069   -1.000
 3505.00    0.51803   0.50241   -1.000
 3506.00    0.51644   0.49556   -1.000
 3507.00    0.52472   0.49404   -1.000
 3508.00    0.52024   0.49560   -1.000
 3509.00    0.51731   0.49529   -1.000
 3510.00    0.51166   0.49082   -1.000
 3511.00    0.50889   0.48396   -1.000
 3512.00    0.50780   0.47637   -1.000
 3513.00    0.50380   0.46988   -1.000
 3514.00    0.49560   0.47221   -1.000
 3515.00    0.50514   0.48520   -1.000
 3516.00    0.51601   0.50321   -1.000
 3517.00    0.52748   0.51858  222.778
 3518.00    0.52930   0.52345  216.294
 3519.00    0.52118   0.51660  219.919
 3520.00    0.51601   0.50237   -1.000
 3521.00    0.50744   0.48860   -1.000
 3522.00    0.49665   0.47785   -1.000
 3523.00    0.48863   0.46752   -1.000
 3524.00    0.48031   0.45839   37.978
 3525.00    0.46927   0.45403   27.873
 3526.00    0.46751   0.45921   28.058
 3527.00    0.48307   0.47509   71.815
 3528.00    0.49969   0.49482  243.057
 3529.00    0.50875   0.50870  233.396
 3530.00    0.52056   0.51246  227.007
 3531.00    0.52575   0.50959   -1.000
 3532.00    0.52620   0.50772   -1.000
 3533.00    0.52652   0.51173   -1.000
 3534.00    0.52469   0.51897  226.985
 3535.00    0.52370   0.52465  222.457
 3536.00    0.53160   0.52692  218.622
 3537.00    0.53818   0.52920  218.458
 3538.00    0.54372   0.53439  217.205
 3539.00    0.54640   0.53932  214.521
 3540.00    0.54258   0.53937  214.955
 3541.00    0.53646   0.53702  218.389
 3542.00    0.53599   0.53854  220.988
 3543.00    0.54021   0.54335  220.579
 3544.00    0.54416   0.54798  217.803
 3545.00    0.54374   0.54870  216.319
 3546.00    0.53747   0.54581  218.899
 3547.00    0.53366   0.54286  223.663
 3548.00    0.53157   0.54197  225.867
 3549.00    0.52589   0.54353   -1.000
 3550.00    0.52807   0.54560   -1.000
 3551.00    0.53022   0.54503  226.150
 3552.00    0.52733   0.53976  232.010
 3553.00    0.52095   0.53225  238.927
 3554.00    0.51743   0.52731  243.057
 3555.00    0.51972   0.52754  243.057
 3556.00    0.51831   0.52979  238.791
 3557.00    0.52261   0.52947  237.827
 3558.00    0.52279   0.52620  240.580
 3559.00    0.51600   0.52416  243.057
 3560.00    0.51728   0.52845  243.057
 3561.00    0.52303   0.53872  239.087
 3562.00    0.52680   0.54648   -1.000
 3563.00    0.52218   0.53988   -1.000
 3564.00    0.51148   0.51534  243.057
 3565.00    0.49408   0.48926   38.460
 3566.00    0.48345   0.47645   28.242
 3567.00    0.48805   0.47617   28.378
 3568.00    0.48636   0.47604   28.162
 3569.00    0.47836   0.46744   28.769
 3570.00    0.47474   0.45716   29.448
 3571.00    0.47696   0.45580   28.970
 3572.00    0.48698   0.46367   27.785
 3573.00    0.49707   0.47265   69.980
 3574.00    0.49744   0.47712   -1.000
 3575.00    0.49942   0.47871   -1.000
 3576.00    0.50776   0.48069   -1.000
 3577.00    0.50918   0.48178   -1.000
 3578.00    0.50538   0.47705   -1.000
 3579.00    0.49041   0.46377   39.852
 3580.00    0.47008   0.44729   29.912
 3581.00    0.45982   0.43606   31.801
 3582.00    0.46103   0.43454   32.488
 3583.00    0.46222   0.43808   32.640
 3584.00    0.45716   0.43672   33.247
 3585.00    0.45201   0.42923   34.267
 3586.00    0.44527   0.42353   34.957
 3587.00    0.44276   0.42593   33.870
 3588.00    0.44911   0.43765   32.083
 3589.00    0.46936   0.45578   30.484
 3590.00    0.49121   0.47548   28.122
 3591.00    0.50958   0.49061   68.974
 3592.00    0.52249   0.49828   -1.000
 3593.00    0.52598   0.50084   -1.000
 3594.00    0.52785   0.50501   -1.000
 3595.00    0.52969   0.51496   -1.000
 3596.00    0.54173   0.52736   -1.000
 3597.00    0.55537   0.53797   -1.000
 3598.00    0.55905   0.54523   -1.000
 3599.00    0.55887   0.54750  205.111
 3600.00    0.55696   0.54286   -1.000
 3601.00    0.54877   0.53061   -1.000
 3602.00    0.54015   0.51389   -1.000
 3603.00    0.53259   0.49925   -1.000
 3604.00    0.51925   0.49235   -1.000
 3605.00    0.52275   0.49324   -1.000
 3606.00    0.52720   0.49530   -1.000
 3607.00    0.52068   0.49271   -1.000
 3608.00    0.50476   0.48564   -1.000
 3609.00    0.49480   0.48150   -1.000
 3610.00    0.49914   0.48631   -1.000
 3611.00    0.50978   0.49478   -1.000
 3612.00    0.51700   0.50111   -1.000
 3613.00    0.52493   0.50615   -1.000
 3614.00    0.53520   0.51309   -1.000
 3615.00    0.54206   0.52033   -1.000
 3616.00    0.53496   0.51730   -1.000
 3617.00    0.52121   0.49897   -1.000
 3618.00    0.50693   0.48033   -1.000
 3619.00    0.49516   0.47675   38.223
 3620.00    0.50417   0.48973   68.179
 3621.00    0.52680   0.50937   -1.000
 3622.00    0.54774   0.52549   -1.000
 3623.00    0.55562   0.53479   -1.000
 3624.00    0.55736   0.54345   -1.000
 3625.00    0.56347   0.55766  205.463
 3626.00    0.57423   0.57462  197.102
 3627.00    0.57720   0.58606  192.516
 3628.00    0.57720   0.58125  194.059
 3629.00    0.56287   0.55669  203.322
 3630.00    0.53665   0.52390   -1.000
 3631.00    0.50842   0.49990  243.057
 3632.00    0.49771   0.49495  243.057
 3633.00    0.50954   0.50433  243.057
 3634.00    0.52285   0.51637  240.589
 3635.00    0.53672   0.52242   -1.000
 3636.00    0.54647   0.52561   -1.000
 3637.00    0.55142   0.53390   -1.000
 3638.00    0.56580   0.54766   -1.000
 3639.00    0.57427   0.56117   -1.000
 3640.00    0.57418   0.56527  196.522
 3641.00    0.56832   0.55781  199.859
 3642.00    0.55479   0.54347  206.103
 3643.00    0.53377   0.52888  215.970
 3644.00    0.52934   0.51944  224.076
 3645.00    0.53389   0.51483   -1.000
 3646.00    0.53316   0.51080   -1.000
 3647.00    0.52734   0.50695   -1.000
 3648.00    0.52745   0.50625   -1.000
 3649.00    0.53571   0.51105   -1.000
 3650.00    0.53984   0.52199   -1.000
 3651.00    0.55117   0.53708   -1.000
 3652.00    0.56827   0.55117   -1.000
 3653.00    0.57725   0.56169   -1.000
 3654.00    0.58031   0.56801  195.539
 3655.00    0.57700   0.57269  194.244
 3656.00    0.58096   0.57945  192.502
 3657.00    0.59094   0.58677  190.426
 3658.00    0.59129   0.59136  187.565
 3659.00    0.59544   0.59183  186.685
 3660.00    0.60252   0.58825   -1.000
 3661.00    0.59659   0.58148   -1.000
 3662.00    0.57972   0.57311  190.229
 3663.00    0.57540   0.56579  193.111
 3664.00    0.58816   0.56286   -1.000
 3665.00    0.58856   0.56387   -1.000
 3666.00    0.58347   0.56503   -1.000
 3667.00    0.57707   0.56199   -1.000
 3668.00    0.57167   0.55507   -1.000
 3669.00    0.57504   0.55223   -1.000
 3670.00    0.57736   0.55761   -1.000
 3671.00    0.58174   0.56787   -1.000
 3672.00    0.58745   0.57623  192.869
 3673.00    0.58986   0.57832  191.205
 3674.00    0.59056   0.57518   -1.000
 3675.00    0.58440   0.56740   -1.000
 3676.00    0.57476   0.55619   -1.000
 3677.00    0.57440   0.54453   -1.000
 3678.00    0.56657   0.53508   -1.000
 3679.00    0.55594   0.53074   -1.000
 3680.00    0.55740   0.53147   -1.000
 3681.00    0.56262   0.53586   -1.000
 3682.00    0.56872   0.54193   -1.000
 3683.00    0.57307   0.54561   -1.000
 3684.00    0.57247   0.54145   -1.000
 3685.00    0.56922   0.52831   -1.000
 3686.00    0.55883   0.51494   -1.000
 3687.00    0.55152   0.51204   -1.000
 3688.00    0.55616   0.52372   -1.000
 3689.00    0.56612   0.54369   -1.000
 3690.00    0.57793   0.56208   -1.000
 3691.00    0.59340   0.57121   -1.000
 3692.00    0.60132   0.57314   -1.000
 3693.00    0.60369   0.57377   -1.000
 3694.00    0.60070   0.57291   -1.000
 3695.00    0.59153   0.56845   -1.000
 3696.00    0.59266   0.56356   -1.000
 3697.00    0.59810   0.56722   -1.000
 3698.00    0.60929   0.58411   -1.000
 3699.00    0.62522   0.60607   -1.000
 3700.00    0.63440   0.61769   -1.000
 3701.00    0.63163   0.60717   -1.000
 3702.00    0.60984   0.57383   -1.000
 3703.00    0.58072   0.53119   -1.000
 3704.00    0.55130   0.49774   -1.000
 3705.00    0.53154   0.48697   -1.000
 3706.00    0.53457   0.49461   -1.000
 3707.00    0.55864   0.50888   -1.000
 3708.00    0.56966   0.52204   -1.000
 3709.00    0.56380   0.52782   -1.000
 3710.00    0.56393   0.52677   -1.000
 3711.00    0.57158   0.52963   -1.000
 3712.00    0.59481   0.54615   -1.000
 3713.00    0.61368   0.57441   -1.000
 3714.00    0.63182   0.60407   -1.000
 3715.00    0.65598   0.62401   -1.000
 3716.00    0.66497   0.62924   -1.000
 3717.00    0.64631   0.61750   -1.000
 3718.00    0.61103   0.58546   -1.000
 3719.00    0.56272   0.53470   -1.000
 3720.00    0.51725   0.48387   -1.000
 3721.00    0.49812   0.45538   39.437
 3722.00    0.50985   0.46165   -1.000
 3723.00    0.54433   0.49840   -1.000
 3724.00    0.58487   0.54742   -1.000
 3725.00    0.61974   0.58435   -1.000
 3726.00    0.63326   0.60032   -1.000
 3727.00    0.63480   0.60659   -1.000
 3728.00    0.63550   0.61314   -1.000
 3729.00    0.64372   0.61647   -1.000
 3730.00    0.63887   0.60449   -1.000
 3731.00    0.61452   0.56898   -1.000
 3732.00    0.57146   0.51547   -1.000
 3733.00    0.51367   0.46015   38.569
 3734.00    0.47152   0.42238   29.219
 3735.00    0.46161   0.41486   31.145
 3736.00    0.48039   0.43908   30.444
 3737.00    0.52105   0.48663   27.978
 3738.00    0.57172   0.54436   65.928
 3739.00    0.62161   0.59618   -1.000
 3740.00    0.65501   0.63035   -1.000
 3741.00    0.66318   0.64238   -1.000
 3742.00    0.65552   0.63466   -1.000
 3743.00    0.63958   0.61355   -1.000
 3744.00    0.61780   0.58718   -1.000
 3745.00    0.59415   0.55995   -1.000
 3746.00    0.56921   0.53034   -1.000
 3747.00    0.54143   0.49294   39.351
 3748.00    0.50669   0.45149   28.663
 3749.00    0.47836   0.42540   29.491
 3750.00    0.48597   0.43191   -1.000
 3751.00    0.52678   0.47167   -1.000
 3752.00    0.57891   0.52992   -1.000
 3753.00    0.63391   0.58906   -1.000
 3754.00    0.67299   0.63500   -1.000
 3755.00    0.69091   0.65824   -1.000
 3756.00    0.69314   0.65367   -1.000
 3757.00    0.66969   0.63034   -1.000
 3758.00    0.63991   0.60649   -1.000
 3759.00    0.63060   0.59740   -1.000
 3760.00    0.64295   0.60420   -1.000
 3761.00    0.66216   0.61674   -1.000
 3762.00    0.67823   0.62700   -1.000
 3763.00    0.67842   0.63131   -1.000
 3764.00    0.67398   0.62736   -1.000
 3765.00    0.67170   0.61421   -1.000
 3766.00    0.64993   0.59324   -1.000
 3767.00    0.62790   0.56617   -1.000
 3768.00    0.60301   0.53506   -1.000
 3769.00    0.58146   0.50465   -1.000
 3770.00    0.56855   0.48737   -1.000
 3771.00    0.57829   0.49698   -1.000
 3772.00    0.60014   0.53140   -1.000
 3773.00    0.62624   0.57257   -1.000
 3774.00    0.66136   0.60667   -1.000
 3775.00    0.68835   0.63215   -1.000
 3776.00    0.70832   0.65488   -1.000
 3777.00    0.72247   0.67841   -1.000
 3778.00    0.73771   0.70223   -1.000
 3779.00    0.75522   0.72444   -1.000
 3780.00    0.76813   0.74186   -1.000
 3781.00    0.78226   0.75381   -1.000
 3782.00    0.79316   0.76098   -1.000
 3783.00    0.78985   0.76207   -1.000
 3784.00    0.77913   0.75328   -1.000
 3785.00    0.76983   0.73279   -1.000
 3786.00    0.75353   0.70705   -1.000
 3787.00    0.72828   0.68505   -1.000
 3788.00    0.71021   0.67106   -1.000
 3789.00    0.70407   0.66404   -1.000
 3790.00    0.70266   0.66018   -1.000
 3791.00    0.69740   0.65288   -1.000
 3792.00    0.68362   0.63628   -1.000
 3793.00    0.66169   0.60880   -1.000
 3794.00    0.63127   0.57310   -1.000
 3795.00    0.60040   0.53267   -1.000
 3796.00    0.56369   0.49014   -1.000
 3797.00    0.52449   0.45442   -1.000
 3798.00    0.51223   0.44415   -1.000
 3799.00    0.54013   0.47085   -1.000
 3800.00    0.58721   0.52464   -1.000
 3801.00    0.63448   0.58629   -1.000
 3802.00    0.67464   0.63860   -1.000
 3803.00    0.70670   0.67484   -1.000
 3804.00    0.72448   0.69444   -1.000
 3805.00    0.72665   0.70003   -1.000
 3806.00    0.72508   0.69969   -1.000
 3807.00    0.73480   0.70631   -1.000
 3808.00    0.75353   0.72475   -1.000
 3809.00    0.77072   0.74924   -1.000
 3810.00    0.78382   0.77004  190.569
 3811.00    0.78161   0.77404  192.420
 3812.00    0.76385   0.75558  200.682
 3813.00    0.74664   0.72314   -1.000
 3814.00    0.73327   0.69307   -1.000
 3815.00    0.71509   0.68129   -1.000
 3816.00    0.71686   0.68876   -1.000
 3817.00    0.73183   0.69948   -1.000
 3818.00    0.73444   0.69727   -1.000
 3819.00    0.71585   0.67954   -1.000
 3820.00    0.69669   0.66190   -1.000
 3821.00    0.69851   0.65902   -1.000
 3822.00    0.70605   0.66357   -1.000
 3823.00    0.69799   0.65836   -1.000
 3824.00    0.68006   0.63772   -1.000
 3825.00    0.65216   0.61194   41.022
 3826.00    0.63566   0.59337   28.822
 3827.00    0.62838   0.58354   28.854
 3828.00    0.62458   0.57696   28.451
 3829.00    0.61970   0.56671   27.984
 3830.00    0.60680   0.54803   28.066
 3831.00    0.57329   0.51893   29.044
 3832.00    0.53162   0.48060   31.046
 3833.00    0.49566   0.43982   32.527
 3834.00    0.47644   0.40849   32.402
 3835.00    0.47591   0.39683   31.288
 3836.00    0.47820   0.40608   30.409
 3837.00    0.49141   0.42883   30.627
 3838.00    0.51313   0.45784   31.354
 3839.00    0.54269   0.49287   31.223
 3840.00    0.57939   0.53509   29.811
 3841.00    0.62171   0.58166   70.015
 3842.00    0.66585   0.62747   -1.000
 3843.00    0.70456   0.66494   -1.000
 3844.00    0.72124   0.69060   -1.000
 3845.00    0.73229   0.70906   -1.000
 3846.00    0.74761   0.72612   -1.000
 3847.00    0.75567   0.73999   -1.000
 3848.00    0.75200   0.74469  224.319
 3849.00    0.75108   0.74347  232.100
 3850.00    0.75078   0.74496  237.602
 3851.00    0.75594   0.75420  235.005
 3852.00    0.76594   0.76622  228.911
 3853.00    0.77005   0.77032  227.943
 3854.00    0.76411   0.76365  232.451
 3855.00    0.75894   0.75221  239.087
 3856.00    0.75046   0.74065  243.057
 3857.00    0.73287   0.72886  243.057
 3858.00    0.71582   0.71734   38.990
 3859.00    0.70221   0.71207   28.021
 3860.00    0.70610   0.72022   28.186
 3861.00    0.73476   0.73984   66.605
 3862.00    0.76744   0.76114  232.966
 3863.00    0.78710   0.77225   -1.000
 3864.00    0.79133   0.77292   -1.000
 3865.00    0.78577   0.77034   -1.000
 3866.00    0.78283   0.76912   -1.000
 3867.00    0.78434   0.77010   -1.000
 3868.00    0.77589   0.76916  234.701
 3869.00    0.75882   0.76022  243.057
 3870.00    0.73750   0.74117  243.057
 3871.00    0.72082   0.71763   39.643
 3872.00    0.71256   0.70269   65.709
 3873.00    0.72470   0.70600   -1.000
 3874.00    0.74673   0.72414   -1.000
 3875.00    0.76132   0.73763   -1.000
 3876.00    0.75586   0.73121   -1.000
 3877.00    0.73234   0.70938   -1.000
 3878.00    0.70449   0.68914   -1.000
 3879.00    0.69075   0.68062  243.057
 3880.00    0.68367   0.67838  243.057
 3881.00    0.67448   0.67254  243.057
 3882.00    0.66289   0.65995  243.057
 3883.00    0.65972   0.64206   -1.000
 3884.00    0.65985   0.61740   -1.000
 3885.00    0.64482   0.57988   -1.000
 3886.00    0.61184   0.53120   -1.000
 3887.00    0.56775   0.48551   -1.000
 3888.00    0.53575   0.45817   -1.000
 3889.00    0.53864   0.46180   -1.000
 3890.00    0.57333   0.49690   -1.000
 3891.00    0.63382   0.54905   -1.000
 3892.00    0.68569   0.59627   -1.000
 3893.00    0.70190   0.62771   -1.000
 3894.00    0.71090   0.64798   -1.000
 3895.00    0.72717   0.66807   -1.000
 3896.00    0.74441   0.69065   -1.000
 3897.00    0.76288   0.70921   -1.000
 3898.00    0.77432   0.72008   -1.000
 3899.00    0.78192   0.72788   -1.000
 3900.00    0.79157   0.73892   -1.000
 3901.00    0.79582   0.75147   -1.000
 3902.00    0.79722   0.75906   -1.000
 3903.00    0.79819   0.75709   -1.000
 3904.00    0.79322   0.74930   -1.000
 3905.00    0.78389   0.74586   -1.000
 3906.00    0.78450   0.75466   -1.000
 3907.00    0.80897   0.77754   -1.000
 3908.00    0.83632   0.80651   -1.000
 3909.00    0.85583   0.82866   -1.000
 3910.00    0.86281   0.84073   -1.000
 3911.00    0.86333   0.84547   -1.000
 3912.00    0.85814   0.84504  164.467
 3913.00    0.85179   0.84099  165.443
 3914.00    0.84321   0.83559  168.420
 3915.00    0.84666   0.83072   -1.000
 3916.00    0.85249   0.82674   -1.000
 3917.00    0.84088   0.82131   -1.000
 3918.00    0.83099   0.81205   -1.000
 3919.00    0.82354   0.80004   -1.000
 3920.00    0.81591   0.78957   -1.000
 3921.00    0.80280   0.78616   -1.000
 3922.00    0.79988   0.79024  203.648
 3923.00    0.80515   0.79574  200.451
 3924.00    0.80237   0.79403  200.237
 3925.00    0.78743   0.77990  207.425
 3926.00    0.75579   0.75317  224.183
 3927.00    0.71472   0.71643  243.057
 3928.00    0.66256   0.67436   43.747
 3929.00    0.60754   0.62824   33.269
 3930.00    0.56163   0.57475   38.954
 3931.00    0.49704   0.51317   45.903
 3932.00    0.42469   0.45311   53.941
 3933.00    0.37623   0.41653   60.435
 3934.00    0.37605   0.42118   60.588
 3935.00    0.42763   0.46558   54.247
 3936.00    0.49965   0.53143   45.501
 3937.00    0.56673   0.59973   37.430
 3938.00    0.62768   0.65782   31.238
 3939.00    0.67957   0.70383   69.066
 3940.00    0.71531   0.73655   -1.000
 3941.00    0.73424   0.75422   -1.000
 3942.00    0.74340   0.75956   -1.000
 3943.00    0.74971   0.75899  230.785
 3944.00    0.76578   0.76219  222.940
 3945.00    0.78895   0.77375   -1.000
 3946.00    0.81463   0.78717   -1.000
 3947.00    0.82530   0.79559   -1.000
 3948.00    0.82493   0.80041   -1.000
 3949.00    0.83570   0.80522   -1.000
 3950.00    0.84418   0.80778   -1.000
 3951.00    0.83524   0.80624   -1.000
 3952.00    0.83293   0.80471   -1.000
 3953.00    0.84960   0.80676   -1.000
 3954.00    0.85258   0.80753   -1.000
 3955.00    0.84277   0.79948   -1.000
 3956.00    0.82484   0.78641   -1.000
 3957.00    0.80752   0.77818   -1.000
 3958.00    0.80532   0.77344   -1.000
 3959.00    0.79712   0.75996   -1.000
 3960.00    0.77161   0.72880   -1.000
 3961.00    0.72650   0.68603   -1.000
 3962.00    0.67874   0.64547   -1.000
 3963.00    0.63832   0.60957   -1.000
 3964.00    0.59033   0.56997   41.476
 3965.00    0.52827   0.51552   31.314
 3966.00    0.44741   0.44425   37.911
 3967.00    0.36407   0.37238   46.558
 3968.00    0.30960   0.32123   53.469
 3969.00    0.30299   0.30721   52.723
 3970.00    0.34189   0.33328   45.088
 3971.00    0.40680   0.38918   37.060
 3972.00    0.48329   0.45817   30.830
 3973.00    0.56167   0.52788   67.296
 3974.00    0.62860   0.59041   -1.000
 3975.00    0.68337   0.64367   -1.000
 3976.00    0.73011   0.68890   -1.000
 3977.00    0.76898   0.72881   -1.000
 3978.00    0.80775   0.76594   -1.000
 3979.00    0.83549   0.79611   -1.000
 3980.00    0.85304   0.81396   -1.000
 3981.00    0.86475   0.81983   -1.000
 3982.00    0.86357   0.82214   -1.000
 3983.00    0.87074   0.82891   -1.000
 3984.00    0.88436   0.84043   -1.000
 3985.00    0.89552   0.85284   -1.000
 3986.00    0.90754   0.86477   -1.000
 3987.00    0.92225   0.87736   -1.000
 3988.00    0.93126   0.88990   -1.000
 3989.00    0.93897   0.90024   -1.000
 3990.00    0.94136   0.90916   -1.000
 3991.00    0.95264   0.91899   -1.000
 3992.00    0.95936   0.92826   -1.000
 3993.00    0.95776   0.93165   -1.000
 3994.00    0.95223   0.92642   -1.000
 3995.00    0.94127   0.91497   -1.000
 3996.00    0.92739   0.90380   -1.000
 3997.00    0.91535   0.90082  148.325
 3998.00    0.91797   0.90889  146.497
 3999.00    0.94390   0.92379  140.823
 4000.00    0.96288   0.93984   -1.000
 4001.00    0.97397   0.95062   -1.000
 4002.00    0.98633   0.95067   -1.000
 4003.00    0.98629   0.93795   -1.000
 4004.00    0.96009   0.91616   -1.000
 4005.00    0.93035   0.89779   -1.000
 4006.00    0.93440   0.89889   -1.000
 4007.00    0.95430   0.91888   -1.000
 4008.00    0.97696   0.94339   -1.000
 4009.00    0.98871   0.96090   -1.000
 4010.00    0.99796   0.96885   -1.000
 4011.00    0.99549   0.97100   -1.000
 4012.00    0.98931   0.97177  130.664
 4013.00    0.99026   0.97378  131.471
 4014.00    0.99301   0.97662  131.059
 4015.00    0.99640   0.97854  129.467
 4016.00    0.99664   0.97979  129.563
 4017.00    0.99311   0.98225  131.043
 4018.00    0.99300   0.98741  131.185
 4019.00    1.00304   0.99348  129.589
 4020.00    1.00928   0.99703  129.090
 4021.00    1.00695   0.99612  130.477
 4022.00    1.00363   0.99100  131.659
 4023.00    0.99497   0.98286  132.477
 4024.00    0.98686   0.97641  133.460
 4025.00    0.98336   0.97852  131.607
 4026.00    1.00029   0.99032  127.325
 4027.00    1.02237   1.00254  124.061
 4028.00    1.01996   1.00101  123.959
 4029.00    0.99689   0.98282  127.739
 4030.00    0.96873   0.95800  135.358
 4031.00    0.95260   0.93883  142.390
 4032.00    0.94576   0.93288  145.539
 4033.00    0.95282   0.93956  144.861
 4034.00    0.96708   0.95522  141.043
 4035.00    0.99035   0.97682  134.796
 4036.00    1.01455   1.00251  128.103
 4037.00    1.03697   1.02504  122.986
 4038.00    1.04524   1.03416  121.219
 4039.00    1.03195   1.02885  122.797
 4040.00    1.01656   1.01947  125.669
 4041.00    1.01590   1.01235  127.610
 4042.00    1.01542   1.00186  128.472
 4043.00    1.00187   0.97658   -1.000
 4044.00    0.96191   0.93915   -1.000
 4045.00    0.93258   0.91474  155.771
 4046.00    0.93451   0.92096  155.518
 4047.00    0.97314   0.95251  142.968
 4048.00    1.00617   0.98989  132.463
 4049.00    1.02026   1.01508  127.288
 4050.00    1.02858   1.02328  125.120
 4051.00    1.03088   1.01880  125.211
 4052.00    1.02266   1.00684  127.796
 4053.00    1.01184   0.99322  131.222
 4054.00    1.00617   0.98450  133.734
 4055.00    1.00255   0.97982   -1.000
 4056.00    1.00000   0.97541   -1.000
 4057.00    0.99220   0.97359  137.345
 4058.00    0.99402   0.97931  136.775
 4059.00    1.00675   0.99180  132.880
 4060.00    1.01776   0.99826  129.455
 4061.00    1.01456   0.98593   -1.000
 4062.00    0.98768   0.95852   -1.000
 4063.00    0.96216   0.93170   -1.000
 4064.00    0.95572   0.92012   -1.000
 4065.00    0.97273   0.92427   -1.000
 4066.00    0.98488   0.93622   -1.000
 4067.00    0.99667   0.95016   -1.000
 4068.00    1.01022   0.96229   -1.000
 4069.00    1.01738   0.96395   -1.000
 4070.00    1.00338   0.95105   -1.000
 4071.00    0.98169   0.93428   -1.000
 4072.00    0.97843   0.92900   -1.000
 4073.00    0.99333   0.93618   -1.000
 4074.00    0.99731   0.93888   -1.000
 4075.00    0.97853   0.92473   -1.000
 4076.00    0.95162   0.90042   -1.000
 4077.00    0.92805   0.88334   -1.000
 4078.00    0.92862   0.88725   -1.000
 4079.00    0.95671   0.91135   -1.000
 4080.00    0.98673   0.94168   -1.000
 4081.00    1.00445   0.95926   -1.000
 4082.00    0.99788   0.95671   -1.000
 4083.00    0.98600   0.94163   -1.000
 4084.00    0.97273   0.92901   -1.000
 4085.00    0.97367   0.92965   -1.000
 4086.00    0.98952   0.94309   -1.000
 4087.00    1.00198   0.95990   -1.000
 4088.00    1.01370   0.96825   -1.000
 4089.00    1.01737   0.96350   -1.000
 4090.00    1.00726   0.94986   -1.000
 4091.00    0.98882   0.93548   -1.000
 4092.00    0.97253   0.92310   -1.000
 4093.00    0.96604   0.90839   -1.000
 4094.00    0.95676   0.88645   -1.000
 4095.00    0.92955   0.85715   -1.000
 4096.00    0.90236   0.82518   -1.000
 4097.00    0.87178   0.79202   -1.000
 4098.00    0.84280   0.75146   -1.000
 4099.00    0.80129   0.69695   -1.000
 4100.00    0.73445   0.63572   -1.000
 4101.00    0.67541   0.59267   -1.000
 4102.00    0.66961   0.59188   -1.000
 4103.00    0.72264   0.63632   -1.000
 4104.00    0.79558   0.70441   -1.000
 4105.00    0.85312   0.76700   -1.000
 4106.00    0.88410   0.81117   -1.000
 4107.00    0.90196   0.83871   -1.000
 4108.00    0.91409   0.85533   -1.000
 4109.00    0.92218   0.86723   -1.000
 4110.00    0.93007   0.88008   -1.000
 4111.00    0.93944   0.89584   -1.000
 4112.00    0.95247   0.91348   -1.000
 4113.00    0.97081   0.93248   -1.000
 4114.00    0.98694   0.95169   -1.000
 4115.00    0.99403   0.96622   -1.000
 4116.00    1.00058   0.97131   -1.000
 4117.00    0.99642   0.96678   -1.000
 4118.00    0.98414   0.95860   -1.000
 4119.00    0.97914   0.95369   -1.000
 4120.00    0.97795   0.95547  136.031
 4121.00    0.98568   0.96156  134.475
 4122.00    0.99372   0.96872   -1.000
 4123.00    1.00116   0.97713  133.209
 4124.00    1.01662   0.98603   -1.000
 4125.00    1.01777   0.99065   -1.000
 4126.00    1.01460   0.98703   -1.000
 4127.00    1.00658   0.97903   -1.000
 4128.00    0.99675   0.97391  135.286
 4129.00    0.99416   0.97272  136.095
 4130.00    0.99067   0.96841  137.447
 4131.00    0.97788   0.95739  140.893
 4132.00    0.95684   0.94692  145.400
 4133.00    0.96023   0.94781  147.260
 4134.00    0.97929   0.96404  144.133
 4135.00    0.99919   0.98962  137.613
 4136.00    1.01961   1.01557  132.247
 4137.00    1.03714   1.03560  129.393
 4138.00    1.04637   1.04878  127.374
 4139.00    1.05223   1.05299  126.352
 4140.00    1.04677   1.04309  127.878
 4141.00    1.02033   1.01802  133.205
 4142.00    0.98451   0.98702  143.037
 4143.00    0.96029   0.96521  152.348
 4144.00    0.96900   0.96618  151.356
 4145.00    0.99829   0.98695  143.248
 4146.00    1.01338   1.00965  136.728
 4147.00    1.01537   1.02059  134.069
 4148.00    1.00825   1.02027  135.281
 4149.00    1.00529   1.01815  138.716
 4150.00    1.00141   1.01943  141.231
 4151.00    1.00559   1.02059  141.139
 4152.00    1.00338   1.01620  140.212
 4153.00    0.99292   1.00636  140.786
 4154.00    0.98302   0.99764  142.795
 4155.00    0.98590   0.99645  141.265
 4156.00    0.99061   1.00396  139.173
 4157.00    0.99982   1.01692  139.973
 4158.00    1.01269   1.03113  136.599
 4159.00    1.05435   1.04236  135.243
 4160.00    1.14757   1.04918   -1.000
 4161.00    1.09968   1.05410   -1.000
 4162.00    0.95747   1.05990   -1.000
 4163.00    0.96089   1.06577   -1.000
 4164.00    1.03614   1.06792   -1.000
 4165.00    1.03391   1.06292   -1.000
 4166.00    1.01360   1.05240   -1.000
 4167.00    1.01488   1.04301   -1.000
 4168.00    1.02070   1.03888  138.730
 4169.00    1.01924   1.03357  136.733
 4170.00    1.01098   1.01697  136.798
 4171.00    0.98583   0.98927  142.608
 4172.00    0.95058   0.96397  151.393
 4173.00    0.93353   0.95770   -1.000
 4174.00    0.94581   0.97122   -1.000
 4175.00    0.96886   0.98989   -1.000
 4176.00    0.97794   1.00052   -1.000
 4177.00    0.97426   1.00440   -1.000
 4178.00    0.98348   1.01043   -1.000
 4179.00    0.99662   1.02016   -1.000
 4180.00    0.99871   1.02665   -1.000
 4181.00    0.99947   1.02610   -1.000
 4182.00    1.00191   1.02381   -1.000
 4183.00    1.00498   1.02720   -1.000
 4184.00    1.01343   1.03356  134.600
 4185.00    1.01570   1.03344  133.897
 4186.00    0.99862   1.02493   -1.000
 4187.00    0.98340   1.01557   -1.000
 4188.00    0.98552   1.01394   -1.000
 4189.00    0.99500   1.02050   -1.000
 4190.00    1.00140   1.02986   -1.000
 4191.00    1.01086   1.03988   -1.000
 4192.00    1.02191   1.04979   -1.000
 4193.00    1.03074   1.05404   -1.000
 4194.00    1.02683   1.04701  133.131
 4195.00    1.01060   1.02891  139.146
 4196.00    0.98880   1.00575  144.801
 4197.00    0.96725   0.98557   -1.000
 4198.00    0.96072   0.97270  149.188
 4199.00    0.96269   0.96788  148.194
 4200.00    0.97116   0.97011  146.036
 4201.00    0.98371   0.97646  144.948
 4202.00    0.98718   0.98486  144.233
 4203.00    0.98432   0.99663  142.406
 4204.00    0.98722   1.01225   -1.000
 4205.00    0.99403   1.02947   -1.000
 4206.00    1.00788   1.04578   -1.000
 4207.00    1.02372   1.05751   -1.000
 4208.00    1.02974   1.06203   -1.000
 4209.00    1.02865   1.06141   -1.000
 4210.00    1.02518   1.06191   -1.000
 4211.00    1.02432   1.06680   -1.000
 4212.00    1.02529   1.07029   -1.000
 4213.00    1.01970   1.06274   -1.000
 4214.00    0.99612   1.04380   -1.000
 4215.00    0.97319   1.02543   -1.000
 4216.00    0.97016   1.02043   -1.000
 4217.00    0.99650   1.03282   -1.000
 4218.00    1.02643   1.05426   -1.000
 4219.00    1.04120   1.07153   -1.000
 4220.00    1.05485   1.07835  121.534
 4221.00    1.05881   1.07292  121.820
 4222.00    1.03644   1.05247  125.493
 4223.00    1.00393   1.01563  133.080
 4224.00    0.97013   0.96782  144.955
 4225.00    0.91879   0.92211  162.666
 4226.00    0.87630   0.89857   -1.000
 4227.00    0.88213   0.91315   -1.000
 4228.00    0.93812   0.96096   -1.000
 4229.00    1.00094   1.01359  138.625
 4230.00    1.03830   1.04617  129.089
 4231.00    1.03840   1.05216  126.175
 4232.00    1.02157   1.04059  127.760
 4233.00    1.01371   1.02521  131.033
 4234.00    1.01142   1.01449  133.094
 4235.00    1.00690   1.00905  135.550
 4236.00    0.99633   1.00746  138.312
 4237.00    0.99330   1.01083  138.502
 4238.00    1.00667   1.02026  135.949
 4239.00    1.01649   1.03293  133.544
 4240.00    1.02284   1.04500  131.222
 4241.00    1.02831   1.05419   -1.000
 4242.00    1.03284   1.06172   -1.000
 4243.00    1.03965   1.06857   -1.000
 4244.00    1.04799   1.07155  124.054
 4245.00    1.04738   1.06508  123.965
 4246.00    1.02665   1.04773  128.202
 4247.00    1.00109   1.02729   -1.000
 4248.00    0.98163   1.01412   -1.000
 4249.00    0.97616   1.01235   -1.000
 4250.00    0.98229   1.02034   -1.000
 4251.00    1.00033   1.03222   -1.000
 4252.00    1.02010   1.04024  133.159
 4253.00    1.02013   1.03805  132.334
 4254.00    1.00927   1.03149  135.041
 4255.00    1.01020   1.03294   -1.000
 4256.00    1.02643   1.04176  131.038
 4257.00    1.03449   1.04414  128.479
 4258.00    1.02049   1.03042  131.363
 4259.00    1.00235   1.00891  137.993
 4260.00    0.98699   0.99945  143.115
 4261.00    0.98749   1.01325   -1.000
 4262.00    1.01485   1.04353   -1.000
 4263.00    1.04663   1.07292   -1.000
 4264.00    1.06114   1.09065   -1.000
 4265.00    1.06579   1.09484   -1.000
 4266.00    1.06299   1.08890  122.071
 4267.00    1.04495   1.07569   -1.000
 4268.00    1.02666   1.05478   -1.000
 4269.00    1.01544   1.02615  134.052
 4270.00    0.98771   0.99458  141.614
 4271.00    0.95218   0.96840  150.695
 4272.00    0.93958   0.95691   -1.000
 4273.00    0.94587   0.96211  153.148
 4274.00    0.95441   0.97876   -1.000
 4275.00    0.97130   1.00390   -1.000
 4276.00    1.00523   1.03509   -1.000
 4277.00    1.03426   1.06124   -1.000
 4278.00    1.03802   1.07015   -1.000
 4279.00    1.01921   1.06185   -1.000
 4280.00    0.99935   1.04880   -1.000
 4281.00    0.99342   1.04194   -1.000
 4282.00    0.99600   1.04232   -1.000
 4283.00    1.00528   1.04193   -1.000
 4284.00    1.00921   1.03592   -1.000
 4285.00    0.99543   1.02588   -1.000
 4286.00    0.97532   1.01244   -1.000
 4287.00    0.96502   0.99456   -1.000
 4288.00    0.94901   0.97142   -1.000
 4289.00    0.92576   0.95031   -1.000
 4290.00    0.91761   0.94559   -1.000
 4291.00    0.93726   0.96095   -1.000
 4292.00    0.96218   0.98334  143.739
 4293.00    0.97474   0.99720  138.720
 4294.00    0.97659   0.99651  138.739
 4295.00    0.97527   0.98552  140.756
 4296.00    0.96854   0.96753  143.683
 4297.00    0.93650   0.94106  149.549
 4298.00    0.89495   0.90708  160.677
 4299.00    0.86068   0.87610  173.559
 4300.00    0.84321   0.85860  179.536
 4301.00    0.84505   0.85708  176.599
 4302.00    0.85710   0.86666  172.873
 4303.00    0.87175   0.88116  170.300
 4304.00    0.88649   0.89431  168.052
 4305.00    0.89319   0.89763  167.809
 4306.00    0.88070   0.88666  171.872
 4307.00    0.85461   0.86845  180.108
 4308.00    0.84028   0.85753   -1.000
 4309.00    0.84891   0.86479   -1.000
 4310.00    0.86444   0.88651   -1.000
 4311.00    0.88479   0.90995   -1.000
 4312.00    0.90490   0.93050   -1.000
 4313.00    0.92141   0.95478   -1.000
 4314.00    0.94992   0.98996   -1.000
 4315.00    0.99872   1.03596   -1.000
 4316.00    1.04790   1.08031   -1.000
 4317.00    1.07613   1.10909   -1.000
 4318.00    1.08444   1.11655   -1.000
 4319.00    1.08044   1.10735   -1.000
 4320.00    1.06806   1.08864  117.320
 4321.00    1.04696   1.06148  120.854
 4322.00    1.01519   1.02420  126.186
 4323.00    0.97567   0.98030  134.446
 4324.00    0.93644   0.94224  145.879
 4325.00    0.91875   0.92707  154.472
 4326.00    0.93605   0.94400  149.840
 4327.00    0.97652   0.98338  135.666
 4328.00    1.01909   1.01947  124.235
 4329.00    1.04276   1.03626  119.657
 4330.00    1.03994   1.03638  119.315
 4331.00    1.02644   1.03123  119.121
 4332.00    1.02131   1.02746  117.492
 4333.00    1.02249   1.02089  115.958
 4334.00    1.01573   1.00338  115.400
 4335.00    0.99431   0.96732   -1.000
 4336.00    0.95249   0.90801   -1.000
 4337.00    0.88599   0.83009   -1.000
 4338.00    0.80842   0.75081   -1.000
 4339.00    0.74322   0.69226   -1.000
 4340.00    0.71502   0.67478   -1.000
 4341.00    0.73597   0.70550   -1.000
 4342.00    0.80621   0.76965   -1.000
 4343.00    0.88259   0.83932   -1.000
 4344.00    0.92796   0.89711   -1.000
 4345.00    0.96308   0.94195  123.800
 4346.00    0.99426   0.97860  121.269
 4347.00    1.01539   1.00862  119.751
 4348.00    1.02899   1.02790  118.038
 4349.00    1.03038   1.02856  117.549
 4350.00    1.00984   1.00971  121.898
 4351.00    0.98320   0.98696  130.393
 4352.00    0.97045   0.98182  135.127
 4353.00    0.99062   1.00102  131.940
 4354.00    1.02742   1.03308  125.988
 4355.00    1.04993   1.06143  121.464
 4356.00    1.06639   1.07895  118.556
 4357.00    1.06730   1.08679  117.749
 4358.00    1.05866   1.08922   -1.000
 4359.00    1.05001   1.09289   -1.000
 4360.00    1.06425   1.10356   -1.000
 4361.00    1.08531   1.11943   -1.000
 4362.00    1.09388   1.13386   -1.000
 4363.00    1.10417   1.14509   -1.000
 4364.00    1.10951   1.15251   -1.000
 4365.00    1.10374   1.15067   -1.000
 4366.00    1.08961   1.13684   -1.000
 4367.00    1.07233   1.11771   -1.000
 4368.00    1.06684   1.10220   -1.000
 4369.00    1.07162   1.09371  121.110
 4370.00    1.07196   1.08974  120.146
 4371.00    1.07573   1.08434  119.831
 4372.00    1.07280   1.07201  120.586
 4373.00    1.05406   1.05328  124.228
 4374.00    1.03318   1.03758  129.341
 4375.00    1.02690   1.03768  131.200
 4376.00    1.04340   1.05725  127.531
 4377.00    1.07171   1.08492  121.375
 4378.00    1.08974   1.10608  117.824
 4379.00    1.09778   1.11159  117.638
 4380.00    1.09424   1.09614  119.314
 4381.00    1.06799   1.05762  123.736
 4382.00    1.01944   1.00402  134.649
 4383.00    0.96734   0.95769  150.108
 4384.00    0.94832   0.94602  157.188
 4385.00    0.97799   0.97281  147.657
 4386.00    1.02090   1.01357  133.498
 4387.00    1.05050   1.04327  126.281
 4388.00    1.06386   1.05551  125.068
 4389.00    1.06071   1.05895  126.079
 4390.00    1.05870   1.06325  126.856
 4391.00    1.07096   1.07155  125.362
 4392.00    1.08007   1.07945  122.598
 4393.00    1.08041   1.08003  122.150
 4394.00    1.06603   1.07635  124.301
 4395.00    1.06156   1.08053  125.024
 4396.00    1.07608   1.09594  120.992
 4397.00    1.10025   1.10947  116.647
 4398.00    1.10934   1.10789  116.552
 4399.00    1.08634   1.09461  120.054
 4400.00    1.06402   1.08340  124.020
 4401.00    1.06846   1.08133  124.336
 4402.00    1.08410   1.08066  122.229
 4403.00    1.07920   1.07086  124.172
 4404.00    1.05657   1.05610  130.610
 4405.00    1.04363   1.04967  134.106
 4406.00    1.04877   1.05595  131.346
 4407.00    1.05339   1.06858  128.427
 4408.00    1.05575   1.08322   -1.000
 4409.00    1.06570   1.10407   -1.000
 4410.00    1.09192   1.13090   -1.000
 4411.00    1.11768   1.15145   -1.000
 4412.00    1.12637   1.15358   -1.000
 4413.00    1.11829   1.13481  113.256
 4414.00    1.09260   1.10320  118.675
 4415.00    1.06344   1.07640  124.005
 4416.00    1.05256   1.07158  125.046
 4417.00    1.06415   1.09138   -1.000
 4418.00    1.08775   1.12394   -1.000
 4419.00    1.10933   1.15330   -1.000
 4420.00    1.11337   1.16572   -1.000
 4421.00    1.10570   1.16044   -1.000
 4422.00    1.08665   1.14931   -1.000
 4423.00    1.07262   1.14280   -1.000
 4424.00    1.07421   1.14186   -1.000
 4425.00    1.07011   1.14159   -1.000
 4426.00    1.05971   1.14073   -1.000
 4427.00    1.06245   1.14260   -1.000
 4428.00    1.07333   1.14708   -1.000
 4429.00    1.07445   1.15121   -1.000
 4430.00    1.07477   1.15348   -1.000
 4431.00    1.08390   1.15264   -1.000
 4432.00    1.08611   1.14600   -1.000
 4433.00    1.07649   1.13140   -1.000
 4434.00    1.05817   1.11444   -1.000
 4435.00    1.04472   1.10993   -1.000
 4436.00    1.06034   1.12717   -1.000
 4437.00    1.10217   1.15837   -1.000
 4438.00    1.13613   1.18522   -1.000
 4439.00    1.14124   1.19304   -1.000
 4440.00    1.12562   1.17804   -1.000
 4441.00    1.10238   1.14873   -1.000
 4442.00    1.07655   1.12381   -1.000
 4443.00    1.06052   1.11941   -1.000
 4444.00    1.07998   1.13789   -1.000
 4445.00    1.11080   1.16613   -1.000
 4446.00    1.12907   1.18768   -1.000
 4447.00    1.13991   1.19621   -1.000
 4448.00    1.14090   1.19620   -1.000
 4449.00    1.13841   1.19354   -1.000
 4450.00    1.13395   1.19030   -1.000
 4451.00    1.13282   1.18538   -1.000
 4452.00    1.13309   1.17388   -1.000
 4453.00    1.11884   1.15152   -1.000
 4454.00    1.09605   1.12488   -1.000
 4455.00    1.07670   1.10753   -1.000
 4456.00    1.08011   1.10652   -1.000
 4457.00    1.09303   1.11621   -1.000
 4458.00    1.09963   1.12658   -1.000
 4459.00    1.09915   1.13347   -1.000
 4460.00    1.09344   1.13790   -1.000
 4461.00    1.09415   1.14209   -1.000
 4462.00    1.10638   1.14875   -1.000
 4463.00    1.11955   1.15960   -1.000
 4464.00    1.13067   1.17078   -1.000
 4465.00    1.13488   1.17568   -1.000
 4466.00    1.13470   1.17164   -1.000
 4467.00    1.12966   1.16145   -1.000
 4468.00    1.11876   1.15172   -1.000
 4469.00    1.10987   1.15045   -1.000
 4470.00    1.11469   1.16135   -1.000
 4471.00    1.13555   1.18153   -1.000
 4472.00    1.16168   1.20489   -1.000
 4473.00    1.18435   1.22477   -1.000
 4474.00    1.18716   1.23670   -1.000
 4475.00    1.18884   1.24148   -1.000
 4476.00    1.19621   1.24261   -1.000
 4477.00    1.20243   1.24003   -1.000
 4478.00    1.20309   1.22783  105.155
 4479.00    1.18463   1.20198  108.023
 4480.00    1.15539   1.17003  112.705
 4481.00    1.13465   1.15021  116.632
 4482.00    1.13283   1.15521   -1.000
 4483.00    1.15051   1.18179   -1.000
 4484.00    1.17926   1.21598   -1.000
 4485.00    1.19558   1.24166   -1.000
 4486.00    1.20459   1.24888   -1.000
 4487.00    1.20008   1.23785   -1.000
 4488.00    1.17636   1.21792   -1.000
 4489.00    1.15900   1.20178   -1.000
 4490.00    1.15990   1.19899   -1.000
 4491.00    1.17200   1.20844   -1.000
 4492.00    1.18203   1.21999   -1.000
 4493.00    1.18334   1.22377   -1.000
 4494.00    1.17130   1.21932   -1.000
 4495.00    1.15863   1.21621   -1.000
 4496.00    1.15862   1.22071   -1.000
 4497.00    1.17830   1.22987   -1.000
 4498.00    1.19838   1.23711   -1.000
 4499.00    1.20176   1.23829   -1.000
 4500.00    1.18786   1.23473   -1.000
 4501.00    1.17654   1.23469   -1.000
 4502.00    1.18685   1.24616   -1.000
 4503.00    1.20969   1.26641   -1.000
 4504.00    1.23183   1.28555   -1.000
 4505.00    1.23682   1.29470   -1.000
 4506.00    1.23079   1.29238   -1.000
 4507.00    1.22557   1.28407   -1.000
 4508.00    1.22876   1.27796   -1.000
 4509.00    1.23158   1.27829   -1.000
 4510.00    1.22998   1.28149   -1.000
 4511.00    1.22883   1.28084   -1.000
 4512.00    1.21792   1.27324   -1.000
 4513.00    1.20920   1.26169   -1.000
 4514.00    1.20484   1.25087   -1.000
 4515.00    1.20273   1.24407   -1.000
 4516.00    1.20386   1.24217   -1.000
 4517.00    1.19575   1.24175   -1.000
 4518.00    1.18992   1.24040   -1.000
 4519.00    1.19659   1.24035   -1.000
 4520.00    1.20404   1.24247   -1.000
 4521.00    1.20469   1.24348   -1.000
 4522.00    1.19702   1.23950   -1.000
 4523.00    1.18784   1.23059   -1.000
 4524.00    1.18370   1.22000   -1.000
 4525.00    1.17401   1.20824   -1.000
 4526.00    1.15729   1.19299   -1.000
 4527.00    1.14333   1.17454   -1.000
 4528.00    1.13637   1.15885   -1.000
 4529.00    1.13631   1.15373  120.502
 4530.00    1.14736   1.15959  118.771
 4531.00    1.16149   1.16828  116.599
 4532.00    1.15947   1.16937  115.456
 4533.00    1.14641   1.16083  117.321
 4534.00    1.12733   1.15295   -1.000
 4535.00    1.12315   1.15947   -1.000
 4536.00    1.15189   1.18523   -1.000
 4537.00    1.19430   1.22087   -1.000
 4538.00    1.21626   1.25050   -1.000
 4539.00    1.21927   1.26255   -1.000
 4540.00    1.21463   1.25916   -1.000
 4541.00    1.21012   1.25177   -1.000
 4542.00    1.21574   1.24863   -1.000
 4543.00    1.21278   1.24862   -1.000
 4544.00    1.19945   1.24585   -1.000
 4545.00    1.19122   1.23877   -1.000
 4546.00    1.18649   1.22989   -1.000
 4547.00    1.20029   1.21863   67.591
 4548.00    1.08835   1.20385   -1.000
 4549.00    0.44951   1.19124   -1.000
 4550.00    0.00157   1.19014   -1.000
 4551.00    0.08562   1.20083   -1.000
 4552.00    0.64015   1.21130   -1.000
 4553.00    0.52879   1.21161   -1.000
 4554.00    0.70695   1.20556   -1.000
 4555.00    1.13859   1.20445   -1.000
 4556.00    1.19773   1.21604  110.281
 4557.00    1.21298   1.23787   -1.000
 4558.00    1.23747   1.26048  103.170
 4559.00    1.24625   1.27761   -1.000
 4560.00    1.24864   1.28756   -1.000
 4561.00    1.24130   1.28913   -1.000
 4562.00    1.22894   1.28122   -1.000
 4563.00    1.21396   1.26586   -1.000
 4564.00    1.20059   1.25099   -1.000
 4565.00    1.20314   1.24607   -1.000
 4566.00    1.22513   1.25428   -1.000
 4567.00    1.24957   1.27022  104.224
 4568.00    1.25741   1.28241  102.540
 4569.00    1.24568   1.28244   -1.000
 4570.00    1.22264   1.27048   -1.000
 4571.00    1.20172   1.25541   -1.000
 4572.00    1.19809   1.24920   -1.000
 4573.00    1.21587   1.25721   -1.000
 4574.00    1.23440   1.27256   -1.000
 4575.00    1.23994   1.28406   -1.000
 4576.00    1.24105   1.28754   -1.000
 4577.00    1.23612   1.28366   -1.000
 4578.00    1.22637   1.27278   -1.000
 4579.00    1.21447   1.25553   -1.000
 4580.00    1.20558   1.23625   -1.000
 4581.00    1.20023   1.22107  111.471
 4582.00    1.20143   1.21403  110.304
 4583.00    1.19981   1.21438  109.182
 4584.00    1.19459   1.21905   -1.000
 4585.00    1.20186   1.22611   -1.000
 4586.00    1.21685   1.23608  108.995
 4587.00    1.22954   1.24853  106.577
 4588.00    1.23996   1.26067  104.081
 4589.00    1.24639   1.26832  103.165
 4590.00    1.23662   1.26802   -1.000
 4591.00    1.21864   1.26078   -1.000
 4592.00    1.21292   1.25250   -1.000
 4593.00    1.21863   1.24944   -1.000
 4594.00    1.22398   1.25305   -1.000
 4595.00    1.22552   1.25992   -1.000
 4596.00    1.23396   1.26683   -1.000
 4597.00    1.24314   1.27225   -1.000
 4598.00    1.24421   1.27472   -1.000
 4599.00    1.23763   1.27301   -1.000
 4600.00    1.22587   1.26801   -1.000
 4601.00    1.21532   1.26238   -1.000
 4602.00    1.21484   1.25964   -1.000
 4603.00    1.22854   1.26105   -1.000
 4604.00    1.24349   1.26514  106.016
 4605.00    1.24778   1.27085  106.006
 4606.00    1.24961   1.27873   -1.000
 4607.00    1.25729   1.28911   -1.000
 4608.00    1.26827   1.30078   -1.000
 4609.00    1.27520   1.31028   -1.000
 4610.00    1.27801   1.31299   -1.000
 4611.00    1.27461   1.30809   -1.000
 4612.00    1.26468   1.30103   -1.000
 4613.00    1.25793   1.29659   -1.000
 4614.00    1.26002   1.29578   -1.000
 4615.00    1.25830   1.29623   -1.000
 4616.00    1.26455   1.29474   -1.000
 4617.00    1.26657   1.29054  101.507
 4618.00    1.25917   1.28612  102.261
 4619.00    1.25924   1.28572  102.490
 4620.00    1.26816   1.29174  101.821
 4621.00    1.27546   1.30264   -1.000
 4622.00    1.28313   1.31304   -1.000
 4623.00    1.28200   1.31782   -1.000
 4624.00    1.27359   1.31722   -1.000
 4625.00    1.27119   1.31416   -1.000
 4626.00    1.27302   1.31016   -1.000
 4627.00    1.27440   1.30641   -1.000
 4628.00    1.26950   1.30339   -1.000
 4629.00    1.26278   1.30186   -1.000
 4630.00    1.26269   1.30349   -1.000
 4631.00    1.26979   1.30824   -1.000
 4632.00    1.26930   1.31159   -1.000
 4633.00    1.26664   1.30867   -1.000
 4634.00    1.26830   1.30137   -1.000
 4635.00    1.26863   1.29508   -1.000
 4636.00    1.26038   1.29156   -1.000
 4637.00    1.25426   1.28962   -1.000
 4638.00    1.25432   1.28974   -1.000
 4639.00    1.25954   1.29344   -1.000
 4640.00    1.26789   1.30134   -1.000
 4641.00    1.28111   1.31167   -1.000
 4642.00    1.28901   1.32013   -1.000
 4643.00    1.28770   1.32100   -1.000
 4644.00    1.28407   1.31189   -1.000
 4645.00    1.27014   1.29536   -1.000
 4646.00    1.25094   1.27634   -1.000
 4647.00    1.24779   1.26282  108.766
 4648.00    1.25341   1.26274  107.676
 4649.00    1.25773   1.27551  105.327
 4650.00    1.26432   1.29230   -1.000
 4651.00    1.27099   1.30412   -1.000
 4652.00    1.26872   1.30771   -1.000
 4653.00    1.26002   1.30432   -1.000
 4654.00    1.25583   1.29624   -1.000
 4655.00    1.24814   1.28874   -1.000
 4656.00    1.24302   1.28895   -1.000
 4657.00    1.25979   1.30129   -1.000
 4658.00    1.28787   1.32341   -1.000
 4659.00    1.30490   1.34573   -1.000
 4660.00    1.31003   1.35684   -1.000
 4661.00    1.30563   1.35394   -1.000
 4662.00    1.29172   1.34195   -1.000
 4663.00    1.28201   1.32656   -1.000
 4664.00    1.28082   1.30988   -1.000
 4665.00    1.27322   1.29036  103.756
 4666.00    1.24730   1.26672  107.192
 4667.00    1.22028   1.24497   -1.000
 4668.00    1.20908   1.23620   -1.000
 4669.00    1.22054   1.24573   -1.000
 4670.00    1.24642   1.26761  107.107
 4671.00    1.26911   1.29095  103.580
 4672.00    1.28024   1.30755   -1.000
 4673.00    1.28265   1.31681   -1.000
 4674.00    1.28768   1.32290   -1.000
 4675.00    1.29627   1.32914   -1.000
 4676.00    1.30799   1.33268   99.669
 4677.00    1.30667   1.32744   99.397
 4678.00    1.29089   1.31339  100.972
 4679.00    1.27979   1.29726  103.093
 4680.00    1.27087   1.28633  104.920
 4681.00    1.26094   1.28296  106.205
 4682.00    1.25938   1.28572   -1.000
 4683.00    1.27180   1.29269  103.532
 4684.00    1.29042   1.30097  101.663
 4685.00    1.29908   1.30721  101.397
 4686.00    1.29754   1.31036  101.596
 4687.00    1.29463   1.31166  101.961
 4688.00    1.29082   1.31219  102.203
 4689.00    1.29318   1.31224  102.196
 4690.00    1.29453   1.31168  102.655
 4691.00    1.28873   1.31076  103.091
 4692.00    1.29367   1.31200  102.400
 4693.00    1.30704   1.31702  100.954
 4694.00    1.31312   1.32327   98.976
 4695.00    1.31908   1.32728   97.333
 4696.00    1.32807   1.32705   97.175
 4697.00    1.32017   1.32075   99.121
 4698.00    1.30300   1.30875  102.136
 4699.00    1.29548   1.29505  104.065
 4700.00    1.29688   1.28254  103.961
 4701.00    1.29398   1.27160  104.065
 4702.00    1.27928   1.26265  105.545
 4703.00    1.26697   1.25994  106.634
 4704.00    1.27534   1.26666  105.554
 4705.00    1.29101   1.27719  103.761
 4706.00    1.28851   1.28156  104.066
 4707.00    1.27244   1.27736  105.993
 4708.00    1.26004   1.27208  107.463
 4709.00    1.26318   1.27422  107.485
 4710.00    1.27964   1.28466  105.259
 4711.00    1.29731   1.29804  102.225
 4712.00    1.30881   1.30820  100.533
 4713.00    1.30867   1.31076  100.782
 4714.00    1.29926   1.30810  102.379
 4715.00    1.29000   1.30814  103.156
 4716.00    1.29344   1.31604  101.836
 4717.00    1.30883   1.32929   99.803
 4718.00    1.31765   1.34102   98.687
 4719.00    1.32013   1.34757   -1.000
 4720.00    1.32291   1.34927   97.934
 4721.00    1.31866   1.34885   -1.000
 4722.00    1.31204   1.34904   -1.000
 4723.00    1.31299   1.35091   -1.000
 4724.00    1.31532   1.35308   -1.000
 4725.00    1.31187   1.35145   -1.000
 4726.00    1.30055   1.34180   -1.000
 4727.00    1.28741   1.32432   -1.000
 4728.00    1.27662   1.30590   -1.000
 4729.00    1.27790   1.29445  106.215
 4730.00    1.28535   1.29200  105.326
 4731.00    1.28871   1.29567  104.385
 4732.00    1.29130   1.30315  103.301
 4733.00    1.29609   1.31167  102.257
 4734.00    1.30652   1.31722  101.568
 4735.00    1.31085   1.31803  101.005
 4736.00    1.30520   1.31616  101.449
 4737.00    1.30584   1.31532  101.998
 4738.00    1.31323   1.31843  101.207
 4739.00    1.31719   1.32474  100.687
 4740.00    1.31265   1.33037  101.100
 4741.00    1.31241   1.33367  101.425
 4742.00    1.31775   1.33688  100.964
 4743.00    1.32429   1.34148   99.948
 4744.00    1.32463   1.34643   99.639
 4745.00    1.32590   1.35028   99.806
 4746.00    1.33068   1.35350   99.378
 4747.00    1.33257   1.35825   98.450
 4748.00    1.33263   1.36456   -1.000
 4749.00    1.33320   1.37020   -1.000
 4750.00    1.33282   1.37450   -1.000
 4751.00    1.33355   1.37569   -1.000
 4752.00    1.32780   1.37097   -1.000
 4753.00    1.31847   1.36083   -1.000
 4754.00    1.30889   1.34994   -1.000
 4755.00    1.30443   1.34397   -1.000
 4756.00    1.30900   1.34490   -1.000
 4757.00    1.31373   1.35105   -1.000
 4758.00    1.31039   1.35944   -1.000
 4759.00    1.30366   1.36666   -1.000
 4760.00    1.30472   1.36768   -1.000
 4761.00    1.30016   1.35849   -1.000
 4762.00    1.28100   1.34053   -1.000
 4763.00    1.26932   1.32124   -1.000
 4764.00    1.26912   1.30883   -1.000
 4765.00    1.27381   1.30526   -1.000
 4766.00    1.28532   1.30946   -1.000
 4767.00    1.29657   1.32086   -1.000
 4768.00    1.30866   1.33807   -1.000
 4769.00    1.31867   1.35559   -1.000
 4770.00    1.31598   1.36607   -1.000
 4771.00    1.30948   1.36735   -1.000
 4772.00    1.30994   1.36546   -1.000
 4773.00    1.31671   1.36789   -1.000
 4774.00    1.32554   1.37738   -1.000
 4775.00    1.33293   1.38897   -1.000
 4776.00    1.33576   1.39608   -1.000
 4777.00    1.33219   1.39639   -1.000
 4778.00    1.32486   1.39143   -1.000
 4779.00    1.31522   1.38516   -1.000
 4780.00    1.31428   1.38062   -1.000
 4781.00    1.31896   1.37756   -1.000
 4782.00    1.31682   1.37350   -1.000
 4783.00    1.31175   1.36788   -1.000
 4784.00    1.31124   1.36226   -1.000
 4785.00    1.31007   1.35719   -1.000
 4786.00    1.30502   1.35272   -1.000
 4787.00    1.30012   1.35032   -1.000
 4788.00    1.29985   1.35184   -1.000
 4789.00    1.30389   1.35671   -1.000
 4790.00    1.30880   1.36387   -1.000
 4791.00    1.31400   1.37382   -1.000
 4792.00    1.32860   1.38725   -1.000
 4793.00    1.34499   1.40297   -1.000
 4794.00    1.35444   1.41759   -1.000
 4795.00    1.35350   1.42674   -1.000
 4796.00    1.34814   1.42663   -1.000
 4797.00    1.33787   1.41787   -1.000
 4798.00    1.32517   1.40548   -1.000
 4799.00    1.31835   1.39574   -1.000
 4800.00    1.32381   1.39402   -1.000
 4801.00    1.33372   1.40046   -1.000
 4802.00    1.34515   1.40887   -1.000
 4803.00    1.34817   1.41210   -1.000
 4804.00    1.33842   1.40808   -1.000
 4805.00    1.32359   1.40002   -1.000
 4806.00    1.31723   1.39351   -1.000
 4807.00    1.32592   1.39116   -1.000
 4808.00    1.33435   1.39227   -1.000
 4809.00    1.33611   1.39602   -1.000
 4810.00    1.33758   1.40045   -1.000
 4811.00    1.34138   1.40325   -1.000
 4812.00    1.34070   1.40520   -1.000
 4813.00    1.34317   1.40887   -1.000
 4814.00    1.35116   1.41500   -1.000
 4815.00    1.35179   1.42263   -1.000
 4816.00    1.35108   1.42990   -1.000
 4817.00    1.35560   1.43489   -1.000
 4818.00    1.36329   1.43703   -1.000
 4819.00    1.36678   1.43742   -1.000
 4820.00    1.36335   1.43571   -1.000
 4821.00    1.36293   1.42795   -1.000
 4822.00    1.35492   1.41142   -1.000
 4823.00    1.33434   1.39048   -1.000
 4824.00    1.32619   1.37588   -1.000
 4825.00    1.33452   1.37640   -1.000
 4826.00    1.34774   1.38808   -1.000
 4827.00    1.35360   1.39895   -1.000
 4828.00    1.34873   1.40229   -1.000
 4829.00    1.34122   1.39951   -1.000
 4830.00    1.33465   1.39450   -1.000
 4831.00    1.32952   1.38799   -1.000
 4832.00    1.33150   1.38178   -1.000
 4833.00    1.34097   1.37974   -1.000
 4834.00    1.34750   1.38274   -1.000
 4835.00    1.34854   1.38800   -1.000
 4836.00    1.35016   1.39136   -1.000
 4837.00    1.34945   1.38970   -1.000
 4838.00    1.33888   1.38261   -1.000
 4839.00    1.32609   1.37171   -1.000
 4840.00    1.32328   1.36079   -1.000
 4841.00    1.32833   1.35383   -1.000
 4842.00    1.32471   1.35226   -1.000
 4843.00    1.32673   1.35406   -1.000
 4844.00    1.33395   1.35771  100.339
 4845.00    1.34213   1.36323   98.983
 4846.00    1.34737   1.36685   98.038
 4847.00    1.33896   1.36236   99.038
 4848.00    1.32074   1.35122   -1.000
 4849.00    1.31432   1.34214   -1.000
 4850.00    1.31692   1.33921  100.495
 4851.00    1.31209   1.33801   -1.000
 4852.00    1.30246   1.33048   -1.000
 4853.00    1.29196   1.31151  100.781
 4854.00    1.27312   1.28129  102.919
 4855.00    1.24480   1.24635  105.964
 4856.00    1.22738   1.21520  107.038
 4857.00    1.21817   1.18721  106.218
 4858.00    1.18226   1.14780   -1.000
 4859.00    1.09904   1.08110  114.150
 4860.00    0.99486   0.99643  126.259
 4861.00    0.93011   0.93075  136.169
 4862.00    0.95313   0.91909  133.497
 4863.00    1.04329   0.96593   -1.000
 4864.00    1.13062   1.04242   -1.000
 4865.00    1.18417   1.11796   -1.000
 4866.00    1.21721   1.17796   -1.000
 4867.00    1.24474   1.22140  104.613
 4868.00    1.26616   1.24948  103.983
 4869.00    1.26585   1.26114  104.341
 4870.00    1.24939   1.25712  106.476
 4871.00    1.23481   1.24500  109.304
 4872.00    1.23744   1.24033  109.837
 4873.00    1.26399   1.25479  107.509
 4874.00    1.28303   1.28216  105.109
 4875.00    1.28560   1.30700  103.907
 4876.00    1.29000   1.32045   -1.000
 4877.00    1.29726   1.32790   -1.000
 4878.00    1.29833   1.33934   -1.000
 4879.00    1.30525   1.35655   -1.000
 4880.00    1.31567   1.37221   -1.000
 4881.00    1.31249   1.37879   -1.000
 4882.00    1.30715   1.37611   -1.000
 4883.00    1.30793   1.37011   -1.000
 4884.00    1.31145   1.36354   -1.000
 4885.00    1.31207   1.35626   -1.000
 4886.00    1.30830   1.34969   -1.000
 4887.00    1.30984   1.34547   -1.000
 4888.00    1.31258   1.34187   -1.000
 4889.00    1.30325   1.33400   -1.000
 4890.00    1.29047   1.32221   -1.000
 4891.00    1.28811   1.31734   -1.000
 4892.00    1.30958   1.33228   -1.000
 4893.00    1.34716   1.36927  100.871
 4894.00    1.37788   1.41372   -1.000
 4895.00    1.39422   1.44681   -1.000
 4896.00    1.40129   1.46314   -1.000
 4897.00    1.40034   1.46633   -1.000
 4898.00    1.38797   1.46093   -1.000
 4899.00    1.37446   1.45092   -1.000
 4900.00    1.36653   1.44123   -1.000
 4901.00    1.36348   1.43453   -1.000
 4902.00    1.36463   1.42936   -1.000
 4903.00    1.36442   1.42416   -1.000
 4904.00    1.36635   1.42344   -1.000
 4905.00    1.38004   1.43269   -1.000
 4906.00    1.39300   1.44650   -1.000
 4907.00    1.39337   1.45209   -1.000
 4908.00    1.38167   1.44282   -1.000
 4909.00    1.36220   1.42182   -1.000
 4910.00    1.35235   1.40013   -1.000
 4911.00    1.35515   1.38918   -1.000
 4912.00    1.36726   1.39449   -1.000
 4913.00    1.38498   1.41164   -1.000
 4914.00    1.39261   1.43169   -1.000
 4915.00    1.39980   1.44598   -1.000
 4916.00    1.40224   1.44554   -1.000
 4917.00    1.37915   1.42317   -1.000
 4918.00    1.34370   1.38138   -1.000
 4919.00    1.30696   1.33444   -1.000
 4920.00    1.28513   1.30167  112.403
 4921.00    1.29626   1.29470  110.724
 4922.00    1.32206   1.30940  106.791
 4923.00    1.33388   1.33126  104.238
 4924.00    1.33719   1.35019  103.565
 4925.00    1.35052   1.36909  102.779
 4926.00    1.37327   1.39290  100.635
 4927.00    1.39443   1.41967   98.462
 4928.00    1.40888   1.44353   -1.000
 4929.00    1.41884   1.45943   -1.000
 4930.00    1.42450   1.46532   -1.000
 4931.00    1.41967   1.45908   -1.000
 4932.00    1.39677   1.43998   -1.000
 4933.00    1.36798   1.41468   -1.000
 4934.00    1.35730   1.39633   -1.000
 4935.00    1.36577   1.39165  101.998
 4936.00    1.37378   1.39334  101.147
 4937.00    1.36301   1.38750  102.855
 4938.00    1.34564   1.37369   -1.000
 4939.00    1.33674   1.36721   -1.000
 4940.00    1.35156   1.37955   -1.000
 4941.00    1.38327   1.40788  100.499
 4942.00    1.40679   1.43815   -1.000
 4943.00    1.42078   1.45784   -1.000
 4944.00    1.42121   1.46454   -1.000
 4945.00    1.41271   1.46281   -1.000
 4946.00    1.41217   1.45966   -1.000
 4947.00    1.41576   1.46107   -1.000
 4948.00    1.42206   1.46885   -1.000
 4949.00    1.42907   1.47832   -1.000
 4950.00    1.43204   1.48315   -1.000
 4951.00    1.42868   1.48128   -1.000
 4952.00    1.42322   1.47562   -1.000
 4953.00    1.42261   1.46939   -1.000
 4954.00    1.41365   1.46062   -1.000
 4955.00    1.38825   1.44092   -1.000
 4956.00    1.34996   1.40487   -1.000
 4957.00    1.31262   1.36581   -1.000
 4958.00    1.31178   1.35022   -1.000
 4959.00    1.35299   1.37022  104.447
 4960.00    1.39603   1.41150   99.784
 4961.00    1.40996   1.44740   -1.000
 4962.00    1.40829   1.46490   -1.000
 4963.00    1.40477   1.46680   -1.000
 4964.00    1.38928   1.45875   -1.000
 4965.00    1.37517   1.44515   -1.000
 4966.00    1.37587   1.43134   -1.000
 4967.00    1.37833   1.42204   -1.000
 4968.00    1.37938   1.41842   -1.000
 4969.00    1.38710   1.41984   -1.000
 4970.00    1.39384   1.42614   -1.000
 4971.00    1.39832   1.43638   -1.000
 4972.00    1.40494   1.44860   -1.000
 4973.00    1.41272   1.46036   -1.000
 4974.00    1.42092   1.46912   -1.000
 4975.00    1.42611   1.47219   -1.000
 4976.00    1.42121   1.46904   -1.000
 4977.00    1.41230   1.46073   -1.000
 4978.00    1.40175   1.44895   -1.000
 4979.00    1.38307   1.43463   -1.000
 4980.00    1.36656   1.41578   -1.000
 4981.00    1.34665   1.38867   -1.000
 4982.00    1.32100   1.35533   -1.000
 4983.00    1.31117   1.32796  112.290
 4984.00    1.32200   1.32122  111.026
 4985.00    1.34130   1.33948  108.311
 4986.00    1.36827   1.37256  105.020
 4987.00    1.39554   1.40542  102.097
 4988.00    1.40302   1.42674  101.066
 4989.00    1.39274   1.43155   -1.000
 4990.00    1.38027   1.42418   -1.000
 4991.00    1.38011   1.41464   -1.000
 4992.00    1.38676   1.41119  103.212
 4993.00    1.39085   1.41492  102.552
 4994.00    1.39248   1.42245   -1.000
 4995.00    1.39788   1.43033   -1.000
 4996.00    1.40300   1.43600   -1.000
 4997.00    1.40467   1.43660   -1.000
 4998.00    1.39466   1.42870   -1.000
 4999.00    1.37836   1.41164   -1.000
 5000.00    1.36824   1.39103  106.154
 5001.00    1.36189   1.37598  106.761
 5002.00    1.36363   1.37245  106.197
 5003.00    1.36857   1.37630  105.347
 5004.00    1.36434   1.37568  105.904
 5005.00    1.35106   1.36429  108.129
 5006.00    1.34218   1.35059  109.693
 5007.00    1.35051   1.35050  108.382
 5008.00    1.37400   1.36829  105.302
 5009.00    1.39552   1.39195  103.268
 5010.00    1.39494   1.40417  103.580
 5011.00    1.37302   1.39534  105.962
 5012.00    1.34440   1.37039   -1.000
 5013.00    1.32106   1.34358   -1.000
 5014.00    1.31601   1.32902  113.697
 5015.00    1.33241   1.32923  111.974
 5016.00    1.35122   1.33593  109.541
 5017.00    1.35575   1.34009  108.289
 5018.00    1.35269   1.34154  108.130
 5019.00    1.36051   1.34752  107.445
 5020.00    1.37981   1.35977  106.398
 5021.00    1.38950   1.37191  106.292
 5022.00    1.38512   1.37961  106.650
 5023.00    1.38002   1.38587  106.402
 5024.00    1.38979   1.39632  105.484
 5025.00    1.39866   1.40776  104.591
 5026.00    1.39841   1.41168  104.575
 5027.00    1.39491   1.40893  105.094
 5028.00    1.39111   1.40765  104.765
 5029.00    1.39997   1.41272  103.202
 5030.00    1.41752   1.42368  101.510
 5031.00    1.42550   1.43754   99.952
 5032.00    1.43459   1.45059   98.593
 5033.00    1.44130   1.45741   98.197
 5034.00    1.42214   1.45158  100.052
 5035.00    1.39028   1.43321   -1.000
 5036.00    1.37092   1.41173   -1.000
 5037.00    1.36651   1.39528   -1.000
 5038.00    1.36323   1.38109  108.382
 5039.00    1.34413   1.35828  111.374
 5040.00    1.31496   1.32793  115.906
 5041.00    1.30368   1.30941  117.996
 5042.00    1.32339   1.32025  114.645
 5043.00    1.36507   1.35975  108.113
 5044.00    1.40352   1.40969  102.710
 5045.00    1.43007   1.44977   99.711
 5046.00    1.44849   1.47040   96.642
 5047.00    1.44731   1.46994   96.649
 5048.00    1.41988   1.45228   41.104
 5049.00    1.43011   1.42643   52.213
 5050.00    1.09830   1.40424   -1.000
 5051.00    0.42453   1.39454   -1.000
 5052.00    0.03016   1.40087   -1.000
 5053.00    0.29152   1.42014   -1.000
 5054.00    1.03797   1.44277   -1.000
 5055.00    1.45084   1.45949   98.536
 5056.00    1.46470   1.46996   97.963
 5057.00    1.46423   1.47784   97.938
 5058.00    1.45977   1.48505   98.127
 5059.00    1.45653   1.49118   -1.000
 5060.00    1.45849   1.49537   -1.000
 5061.00    1.46223   1.49675   -1.000
 5062.00    1.45958   1.49232   98.292
 5063.00    1.44226   1.47706   -1.000
 5064.00    1.41938   1.45290   -1.000
 5065.00    1.40470   1.43112  106.150
 5066.00    1.40406   1.42074  105.899
 5067.00    1.41257   1.42164  104.387
 5068.00    1.42312   1.42645  103.507
 5069.00    1.43058   1.43051  103.108
 5070.00    1.43889   1.43333  102.505
 5071.00    1.43797   1.43314  102.676
 5072.00    1.43092   1.42874  103.527
 5073.00    1.43220   1.42448  103.152
 5074.00    1.43701   1.42563  102.106
 5075.00    1.43937   1.43141  101.692
 5076.00    1.44244   1.43558  101.599
 5077.00    1.43800   1.43094  102.123
 5078.00    1.41128   1.41366  104.579
 5079.00    1.37752   1.38820  109.038
 5080.00    1.36623   1.36838  112.054
 5081.00    1.38208   1.36439  111.183
 5082.00    1.39592   1.37417  108.756
 5083.00    1.40221   1.39003  106.924
 5084.00    1.42123   1.40704  105.167
 5085.00    1.44295   1.42500  103.272
 5086.00    1.44929   1.44196  102.092
 5087.00    1.45207   1.45450  101.715
 5088.00    1.46078   1.46263  101.374
 5089.00    1.46625   1.46858  100.728
 5090.00    1.46658   1.47377  100.094
 5091.00    1.46954   1.47893   99.564
 5092.00    1.47502   1.48514   98.686
 5093.00    1.48146   1.49145   97.677
 5094.00    1.48555   1.49262   97.804
 5095.00    1.47719   1.48265   99.382
 5096.00    1.45797   1.46053  101.526
 5097.00    1.45752   1.43268  103.873
 5098.00    1.45966   1.40931   -1.000
 5099.00    1.42922   1.39955  107.363
 5100.00    1.42116   1.40674  105.961
 5101.00    1.44825   1.42674  103.029
 5102.00    1.46701   1.44784  101.215
 5103.00    1.46963   1.45948  101.207
 5104.00    1.46008   1.45946  102.250
 5105.00    1.44678   1.45034  103.585
 5106.00    1.42876   1.43590  104.871
 5107.00    1.41652   1.42068  106.173
 5108.00    1.40871   1.40999  106.661
 5109.00    1.40463   1.40756  106.171
 5110.00    1.41759   1.41434  105.434
 5111.00    1.43609   1.42883  104.241
 5112.00    1.45314   1.44682  102.851
 5113.00    1.46745   1.46293  101.600
 5114.00    1.47437   1.47524  100.544
 5115.00    1.48251   1.48480   99.853
 5116.00    1.49390   1.49320   99.029
 5117.00    1.50074   1.49990   98.094
 5118.00    1.50248   1.50280   97.907
 5119.00    1.50104   1.49947   98.780
 5120.00    1.48806   1.48884  100.207
 5121.00    1.46530   1.47281  101.804
 5122.00    1.44309   1.45401  104.019
 5123.00    1.41899   1.43460  106.984
 5124.00    1.40485   1.41779  108.824
 5125.00    1.41183   1.40795  108.546
 5126.00    1.41945   1.40565  107.791
 5127.00    1.42243   1.40723  107.208
 5128.00    1.42471   1.40895  107.014
 5129.00    1.42825   1.41126  107.045
 5130.00    1.43254   1.41644  106.202
 5131.00    1.44026   1.42497  104.542
 5132.00    1.44907   1.43464  103.279
 5133.00    1.45621   1.44313  102.377
 5134.00    1.46884   1.44996  101.439
 5135.00    1.47650   1.45414  100.905
 5136.00    1.46662   1.45229  101.828
 5137.00    1.44333   1.44200  104.078
 5138.00    1.41967   1.42663  106.140
 5139.00    1.41307   1.41311  106.938
 5140.00    1.41988   1.40671  106.420
 5141.00    1.42165   1.40615  106.425
 5142.00    1.42013   1.40758  107.793
 5143.00    1.42091   1.41069  108.221
 5144.00    1.42945   1.41654  106.852
 5145.00    1.44110   1.42229  105.835
 5146.00    1.43889   1.42292  106.269
 5147.00    1.43509   1.41916  106.882
 5148.00    1.44138   1.41818  106.229
 5149.00    1.44667   1.42187  105.288
 5150.00    1.43778   1.42354  105.783
 5151.00    1.42127   1.41921  107.492
 5152.00    1.41218   1.41184  108.766
 5153.00    1.41878   1.40718  108.733
 5154.00    1.43590   1.41036  107.279
 5155.00    1.45665   1.42366   -1.000
 5156.00    1.47870   1.44476   -1.000
 5157.00    1.49238   1.46714   99.917
 5158.00    1.49692   1.48480   98.705
 5159.00    1.50144   1.49430   98.406
 5160.00    1.49942   1.49547   98.602
 5161.00    1.49570   1.48949   99.074
 5162.00    1.49248   1.47756   99.959
 5163.00    1.48233   1.45925  101.341
 5164.00    1.46138   1.42900   -1.000
 5165.00    1.41279   1.37804   -1.000
 5166.00    1.33132   1.30940  121.434
 5167.00    1.26021   1.24566  131.742
 5168.00    1.24684   1.21483   -1.000
 5169.00    1.28693   1.22411   -1.000
 5170.00    1.31779   1.24390   -1.000
 5171.00    1.29555   1.24279   -1.000
 5172.00    1.25648   1.22559   -1.000
 5173.00    1.25812   1.22557   -1.000
 5174.00    1.32234   1.26875   -1.000
 5175.00    1.40486   1.34064   -1.000
 5176.00    1.45470   1.40662   -1.000
 5177.00    1.47468   1.44764  104.972
 5178.00    1.48186   1.46379  104.393
 5179.00    1.47924   1.46111  104.906
 5180.00    1.46129   1.43771  107.448
 5181.00    1.41583   1.38745   -1.000
 5182.00    1.33901   1.31606  124.554
 5183.00    1.26996   1.25033  136.653
 5184.00    1.26398   1.22690   -1.000
 5185.00    1.32627   1.25894   -1.000
 5186.00    1.40394   1.32457   -1.000
 5187.00    1.44819   1.38582   -1.000
 5188.00    1.46168   1.42037   -1.000
 5189.00    1.46201   1.43308   -1.000
 5190.00    1.45117   1.43284  104.809
 5191.00    1.42879   1.42195  107.217
 5192.00    1.40853   1.40622  110.447
 5193.00    1.40469   1.39648  111.278
 5194.00    1.41679   1.39779  109.718
 5195.00    1.43348   1.40675  107.956
 5196.00    1.45315   1.41764   -1.000
 5197.00    1.47102   1.43094   -1.000
 5198.00    1.48000   1.44915  102.555
 5199.00    1.48603   1.46916  101.334
 5200.00    1.49337   1.48379  100.941
 5201.00    1.48856   1.48693  101.377
 5202.00    1.47387   1.47554  102.797
 5203.00    1.45365   1.45083  104.968
 5204.00    1.42591   1.41837  107.894
 5205.00    1.40419   1.38689  111.281
 5206.00    1.39928   1.36450   -1.000
 5207.00    1.39879   1.35446   -1.000
 5208.00    1.40312   1.35510   -1.000
 5209.00    1.41090   1.36608   -1.000
 5210.00    1.43453   1.38972   -1.000
 5211.00    1.47072   1.42505   -1.000
 5212.00    1.50326   1.46325   -1.000
 5213.00    1.52337   1.49026   -1.000
 5214.00    1.51883   1.49652   99.012
 5215.00    1.49857   1.48377  100.903
 5216.00    1.48119   1.46678  102.678
 5217.00    1.48462   1.46228  102.699
 5218.00    1.50148   1.47580  101.004
 5219.00    1.52055   1.49999   99.154
 5220.00    1.53879   1.52255   98.091
 5221.00    1.54473   1.53549   97.561
 5222.00    1.54181   1.53501   98.112
 5223.00    1.52520   1.51909  100.401
 5224.00    1.48643   1.48551  104.129
 5225.00    1.43844   1.43736  108.796
 5226.00    1.40100   1.39125  112.754
 5227.00    1.40372   1.37054  112.662
 5228.00    1.44604   1.38599   -1.000
 5229.00    1.49300   1.42565   -1.000
 5230.00    1.52047   1.46282   -1.000
 5231.00    1.52033   1.47937   -1.000
 5232.00    1.50432   1.47415  100.177
 5233.00    1.49105   1.45907  102.140
 5234.00    1.48988   1.45091   -1.000
 5235.00    1.50311   1.46038   -1.000
 5236.00    1.52273   1.48462   -1.000
 5237.00    1.54422   1.51171   97.193
 5238.00    1.55607   1.53163   96.706
 5239.00    1.55642   1.54118   96.871
 5240.00    1.55686   1.54331   96.918
 5241.00    1.54954   1.54195   96.502
 5242.00    1.54760   1.54053   96.326
 5243.00    1.55588   1.54210   96.301
 5244.00    1.56102   1.54560   96.116
 5245.00    1.55134   1.54387   97.136
 5246.00    1.52151   1.53156   99.774
 5247.00    1.49798   1.51232  102.490
 5248.00    1.49474   1.49474  103.647
 5249.00    1.49270   1.48417  103.805
 5250.00    1.48941   1.48022  104.268
 5251.00    1.49737   1.48174  104.293
 5252.00    1.50589   1.48746  103.217
 5253.00    1.50972   1.49340  101.989
 5254.00    1.51334   1.49670  101.574
 5255.00    1.52358   1.50174  101.198
 5256.00    1.54095   1.51479   99.507
 5257.00    1.56286   1.53428   96.921
 5258.00    1.57910   1.55076   95.292
 5259.00    1.57579   1.55341   95.483
 5260.00    1.55302   1.53697   97.399
 5261.00    1.51670   1.50290  100.946
 5262.00    1.47635   1.45823  105.577
 5263.00    1.44626   1.41269   -1.000
 5264.00    1.42528   1.37610   -1.000
 5265.00    1.41338   1.35676   -1.000
 5266.00    1.42362   1.35608   -1.000
 5267.00    1.43744   1.36286   -1.000
 5268.00    1.42777   1.36194   -1.000
 5269.00    1.40281   1.35014   -1.000
 5270.00    1.39894   1.34302   -1.000
 5271.00    1.43677   1.35949   -1.000
 5272.00    1.48278   1.39495   -1.000
 5273.00    1.50454   1.42829   -1.000
 5274.00    1.51160   1.44764   -1.000
 5275.00    1.51860   1.45836   -1.000
 5276.00    1.53338   1.47381   -1.000
 5277.00    1.55736   1.49940   -1.000
 5278.00    1.58247   1.52682   -1.000
 5279.00    1.58849   1.54098   -1.000
 5280.00    1.56748   1.53403   -1.000
 5281.00    1.54233   1.51255   99.395
 5282.00    1.52452   1.48954   -1.000
 5283.00    1.51437   1.47646   -1.000
 5284.00    1.52287   1.48135   -1.000
 5285.00    1.55449   1.50549   -1.000
 5286.00    1.59017   1.53910   -1.000
 5287.00    1.60190   1.56787   -1.000
 5288.00    1.59448   1.58407   94.091
 5289.00    1.58367   1.59100   94.338
 5290.00    1.58883   1.59436   93.999
 5291.00    1.60108   1.59520   93.629
 5292.00    1.59736   1.59324   93.865
 5293.00    1.59165   1.58853   94.632
 5294.00    1.58579   1.57862   95.743
 5295.00    1.56868   1.55977   97.770
 5296.00    1.53249   1.53113  101.093
 5297.00    1.49815   1.50066  104.369
 5298.00    1.49865   1.48288  105.174
 5299.00    1.51702   1.48449  103.257
 5300.00    1.53341   1.49893   -1.000
 5301.00    1.54550   1.51555   99.816
 5302.00    1.55276   1.53025   98.883
 5303.00    1.57046   1.54685   96.814
 5304.00    1.59806   1.56523   -1.000
 5305.00    1.60956   1.57819   -1.000
 5306.00    1.60161   1.58149   94.218
 5307.00    1.59266   1.57855   95.120
 5308.00    1.59498   1.57762   95.123
 5309.00    1.60492   1.58381   94.238
 5310.00    1.60934   1.59403   93.457
 5311.00    1.61183   1.60153   93.262
 5312.00    1.61502   1.60165   93.621
 5313.00    1.61364   1.59390   94.094
 5314.00    1.60548   1.58001   94.652
 5315.00    1.59065   1.56228   95.491
 5316.00    1.57934   1.54614   -1.000
 5317.00    1.57656   1.54011   -1.000
 5318.00    1.58245   1.54811   -1.000
 5319.00    1.58911   1.56346   95.789
 5320.00    1.58926   1.57351   95.821
 5321.00    1.58784   1.57084   96.381
 5322.00    1.57800   1.55633   97.327
 5323.00    1.55876   1.53527   98.805
 5324.00    1.54868   1.51411   -1.000
 5325.00    1.54906   1.49482   -1.000
 5326.00    1.52665   1.47178   -1.000
 5327.00    1.47639   1.43989   -1.000
 5328.00    1.44096   1.41104  112.059
 5329.00    1.45454   1.40783   -1.000
 5330.00    1.50585   1.43719   -1.000
 5331.00    1.55061   1.48239   -1.000
 5332.00    1.56951   1.51920   -1.000
 5333.00    1.57672   1.53982   -1.000
 5334.00    1.58947   1.55166   -1.000
 5335.00    1.59622   1.55953   -1.000
 5336.00    1.58952   1.56179   95.961
 5337.00    1.58480   1.55675   96.617
 5338.00    1.57864   1.54398   -1.000
 5339.00    1.56157   1.52481   -1.000
 5340.00    1.53995   1.50619   -1.000
 5341.00    1.53897   1.49952   -1.000
 5342.00    1.56317   1.51062   -1.000
 5343.00    1.58655   1.53191   -1.000
 5344.00    1.59447   1.54755   -1.000
 5345.00    1.58881   1.54960   -1.000
 5346.00    1.57994   1.54196   -1.000
 5347.00    1.57389   1.53253   -1.000
 5348.00    1.56953   1.52686   -1.000
 5349.00    1.56537   1.52740   -1.000
 5350.00    1.57201   1.53562   -1.000
 5351.00    1.59553   1.55062   -1.000
 5352.00    1.61312   1.56728   -1.000
 5353.00    1.61595   1.58029   -1.000
 5354.00    1.62094   1.59048   93.935
 5355.00    1.63141   1.60135   92.914
 5356.00    1.63700   1.61232   91.986
 5357.00    1.63744   1.62001   91.749
 5358.00    1.63989   1.62226   91.892
 5359.00    1.63815   1.61938   92.143
 5360.00    1.62824   1.61133   92.905
 5361.00    1.61440   1.59715   94.289
 5362.00    1.59956   1.57842   95.778
 5363.00    1.58746   1.55973   96.764
 5364.00    1.57972   1.54550   -1.000
 5365.00    1.57088   1.53782   -1.000
 5366.00    1.56563   1.53570   98.013
 5367.00    1.57115   1.53456   -1.000
 5368.00    1.57527   1.52765   -1.000
 5369.00    1.55973   1.51065   -1.000
 5370.00    1.53472   1.48705   -1.000
 5371.00    1.52723   1.47016   -1.000
 5372.00    1.54495   1.47439   -1.000
 5373.00    1.57991   1.50274   -1.000
 5374.00    1.61338   1.54269   -1.000
 5375.00    1.63040   1.57626   -1.000
 5376.00    1.63768   1.59469   -1.000
 5377.00    1.63805   1.59952   -1.000
 5378.00    1.63047   1.59630   -1.000
 5379.00    1.62244   1.58908   -1.000
 5380.00    1.61374   1.57993   -1.000
 5381.00    1.60692   1.57016   -1.000
 5382.00    1.60248   1.56152   -1.000
 5383.00    1.59969   1.55733   -1.000
 5384.00    1.60487   1.56121   -1.000
 5385.00    1.61816   1.57308   -1.000
 5386.00    1.63051   1.58668   -1.000
 5387.00    1.63289   1.59393   -1.000
 5388.00    1.62555   1.59154   -1.000
 5389.00    1.61562   1.58130   -1.000
 5390.00    1.60391   1.56758   -1.000
 5391.00    1.59111   1.55432   -1.000
 5392.00    1.58602   1.54345   -1.000
 5393.00    1.58725   1.53589   -1.000
 5394.00    1.58430   1.53031   -1.000
 5395.00    1.57200   1.52155   -1.000
 5396.00    1.55122   1.50763   -1.000
 5397.00    1.53855   1.49519   -1.000
 5398.00    1.55344   1.49494   -1.000
 5399.00    1.58347   1.51053   -1.000
 5400.00    1.60263   1.53240   -1.000
 5401.00    1.60543   1.54742   -1.000
 5402.00    1.59463   1.54754   -1.000
 5403.00    1.57398   1.53006   -1.000
 5404.00    1.54658   1.50059   -1.000
 5405.00    1.52488   1.47456   -1.000
 5406.00    1.53098   1.46577   -1.000
 5407.00    1.55511   1.47503   -1.000
 5408.00    1.56767   1.48999   -1.000
 5409.00    1.56492   1.49801   -1.000
 5410.00    1.56547   1.50143   -1.000
 5411.00    1.58493   1.51065   -1.000
 5412.00    1.61153   1.52808   -1.000
 5413.00    1.62095   1.54566   -1.000
 5414.00    1.61416   1.55574   -1.000
 5415.00    1.61155   1.56151   -1.000
 5416.00    1.61912   1.57003   -1.000
 5417.00    1.62525   1.58105   -1.000
 5418.00    1.62397   1.58910   -1.000
 5419.00    1.62110   1.59064   95.837
 5420.00    1.61872   1.58734   96.599
 5421.00    1.62135   1.58220   -1.000
 5422.00    1.61857   1.57476   -1.000
 5423.00    1.60424   1.56483   -1.000
 5424.00    1.59361   1.55707   -1.000
 5425.00    1.59718   1.55882   -1.000
 5426.00    1.61611   1.57077   -1.000
 5427.00    1.62364   1.57931   -1.000
 5428.00    1.60198   1.57082   -1.000
 5429.00    1.57583   1.54932  100.426
 5430.00    1.57051   1.53125   -1.000
 5431.00    1.58505   1.52774   -1.000
 5432.00    1.59518   1.53203   -1.000
 5433.00    1.58497   1.53133   -1.000
 5434.00    1.56865   1.52512   -1.000
 5435.00    1.56536   1.52385   -1.000
 5436.00    1.58351   1.53721   -1.000
 5437.00    1.61269   1.56415   -1.000
 5438.00    1.63625   1.59414   -1.000
 5439.00    1.64907   1.61670   -1.000
 5440.00    1.65504   1.62880   93.572
 5441.00    1.65832   1.63379   93.165
 5442.00    1.65713   1.63299   93.119
 5443.00    1.64940   1.62311   93.675
 5444.00    1.62695   1.60007   95.557
 5445.00    1.58985   1.56618   98.958
 5446.00    1.55268   1.53377  102.664
 5447.00    1.54115   1.51859  103.674
 5448.00    1.56440   1.52866   -1.000
 5449.00    1.60083   1.55633   -1.000
 5450.00    1.62401   1.58512   -1.000
 5451.00    1.62592   1.60301   96.130
 5452.00    1.61825   1.60482   96.635
 5453.00    1.60393   1.59025   98.296
 5454.00    1.57833   1.56454  100.961
 5455.00    1.55571   1.53994  103.493
 5456.00    1.56015   1.53263  103.585
 5457.00    1.59001   1.54946   -1.000
 5458.00    1.62081   1.57887   -1.000
 5459.00    1.63489   1.60214   -1.000
 5460.00    1.63095   1.60787   96.625
 5461.00    1.61948   1.59676   98.219
 5462.00    1.60734   1.57803   99.807
 5463.00    1.59994   1.56392   -1.000
 5464.00    1.60363   1.56255   -1.000
 5465.00    1.61601   1.57269   -1.000
 5466.00    1.62839   1.58652   -1.000
 5467.00    1.63561   1.59773   -1.000
 5468.00    1.64353   1.60513   -1.000
 5469.00    1.64571   1.60860   -1.000
 5470.00    1.64245   1.60732   -1.000
 5471.00    1.64079   1.60204   -1.000
 5472.00    1.63067   1.59417   -1.000
 5473.00    1.61897   1.58346   -1.000
 5474.00    1.60677   1.56803   -1.000
 5475.00    1.58654   1.54742   -1.000
 5476.00    1.56951   1.52769   -1.000
 5477.00    1.56922   1.51977   -1.000
 5478.00    1.59163   1.52943   -1.000
 5479.00    1.61967   1.54998   -1.000
 5480.00    1.62689   1.56652   -1.000
 5481.00    1.61365   1.57241   -1.000
 5482.00    1.60521   1.57473  101.383
 5483.00    1.61598   1.58226  100.221
 5484.00    1.63536   1.59563   -1.000
 5485.00    1.64674   1.60704   -1.000
 5486.00    1.64124   1.60901   -1.000
 5487.00    1.62765   1.60235   98.355
 5488.00    1.62217   1.59490   99.315
 5489.00    1.62539   1.59352   99.535
 5490.00    1.62533   1.59802   99.123
 5491.00    1.62734   1.60396   98.377
 5492.00    1.63889   1.60790   97.861
 5493.00    1.64240   1.60936   97.843
 5494.00    1.63873   1.60937   97.986
 5495.00    1.63772   1.60727   97.982
 5496.00    1.63368   1.60188   98.378
 5497.00    1.62429   1.59528   99.121
 5498.00    1.62239   1.59151   99.119
 5499.00    1.63077   1.59153   -1.000
 5500.00    1.63352   1.59022   -1.000
 5501.00    1.62476   1.58326   -1.000
 5502.00    1.62227   1.57549   -1.000
 5503.00    1.62749   1.57312   -1.000
 5504.00    1.62795   1.57383   -1.000
 5505.00    1.62002   1.57143   -1.000
 5506.00    1.60217   1.56486   -1.000
 5507.00    1.60051   1.56108   -1.000
 5508.00    1.61676   1.56601   -1.000
 5509.00    1.63381   1.57602   -1.000
 5510.00    1.63633   1.58213   -1.000
 5511.00    1.62166   1.57846   -1.000
 5512.00    1.60778   1.56736   -1.000
 5513.00    1.60396   1.55752   -1.000
 5514.00    1.60969   1.55683   -1.000
 5515.00    1.62089   1.56650   -1.000
 5516.00    1.64263   1.58216   -1.000
 5517.00    1.66149   1.59925   -1.000
 5518.00    1.67055   1.61486   -1.000
 5519.00    1.67381   1.62645   -1.000
 5520.00    1.67086   1.63226   -1.000
 5521.00    1.66982   1.63297   -1.000
 5522.00    1.66754   1.63096   -1.000
 5523.00    1.66024   1.62746   -1.000
 5524.00    1.65451   1.62009   -1.000
 5525.00    1.64980   1.60514   -1.000
 5526.00    1.62965   1.58207   -1.000
 5527.00    1.60001   1.55712   -1.000
 5528.00    1.58922   1.54176   -1.000
 5529.00    1.60346   1.54543   -1.000
 5530.00    1.63367   1.56685   -1.000
 5531.00    1.65581   1.59202   -1.000
 5532.00    1.65558   1.60652   -1.000
 5533.00    1.64751   1.60690   -1.000
 5534.00    1.64199   1.59970   -1.000
 5535.00    1.63925   1.59418   -1.000
 5536.00    1.64234   1.59591   -1.000
 5537.00    1.65567   1.60366   -1.000
 5538.00    1.66670   1.61243   -1.000
 5539.00    1.67232   1.62006   -1.000
 5540.00    1.68215   1.62710   -1.000
 5541.00    1.68876   1.63128   -1.000
 5542.00    1.68071   1.62911   -1.000
 5543.00    1.66652   1.62192   -1.000
 5544.00    1.66174   1.61551   -1.000
 5545.00    1.66346   1.61434   -1.000
 5546.00    1.66872   1.61807   -1.000
 5547.00    1.68065   1.62458   -1.000
 5548.00    1.68843   1.63308   -1.000
 5549.00    1.69166   1.64190   -1.000
 5550.00    1.69619   1.64782   -1.000
 5551.00    1.69320   1.64892   -1.000
 5552.00    1.68826   1.64520   -1.000
 5553.00    1.67898   1.63839   -1.000
 5554.00    1.66960   1.63215   -1.000
 5555.00    1.67270   1.63002   -1.000
 5556.00    1.67924   1.63211   -1.000
 5557.00    1.68088   1.63553   -1.000
 5558.00    1.67907   1.63824   -1.000
 5559.00    1.67769   1.63956   -1.000
 5560.00    1.67883   1.63830   -1.000
 5561.00    1.67846   1.63327   -1.000
 5562.00    1.67210   1.62529   -1.000
 5563.00    1.66768   1.61736   -1.000
 5564.00    1.66178   1.61184   -1.000
 5565.00    1.65380   1.60870   -1.000
 5566.00    1.65328   1.60664   -1.000
 5567.00    1.65498   1.60462   -1.000
 5568.00    1.65318   1.60231   -1.000
 5569.00    1.64974   1.59986   -1.000
 5570.00    1.64932   1.59747   -1.000
 5571.00    1.64926   1.59476   -1.000
 5572.00    1.64584   1.59177   -1.000
 5573.00    1.65039   1.59100   -1.000
 5574.00    1.66295   1.59520   -1.000
 5575.00    1.67517   1.60240   -1.000
 5576.00    1.69745   1.60908   -1.000
 5577.00    1.72714   1.61559   -1.000
 5578.00    1.73407   1.62305   -1.000
 5579.00    1.71778   1.62955   -1.000
 5580.00    1.70615   1.63238   -1.000
 5581.00    1.68969   1.63151   -1.000
 5582.00    1.67241   1.62935   -1.000
 5583.00    1.67325   1.62707   -1.000
 5584.00    1.67396   1.62179   -1.000
 5585.00    1.65927   1.60737   -1.000
 5586.00    1.63038   1.58097   -1.000
 5587.00    1.60019   1.55055   -1.000
 5588.00    1.58655   1.52954   -1.000
 5589.00    1.59362   1.52590   -1.000
 5590.00    1.61409   1.53821   -1.000
 5591.00    1.63417   1.55782   -1.000
 5592.00    1.64661   1.57413   -1.000
 5593.00    1.64528   1.58222   -1.000
 5594.00    1.63994   1.58601   -1.000
 5595.00    1.64726   1.59152   -1.000
 5596.00    1.65611   1.59857   -1.000
 5597.00    1.65378   1.60056   -1.000
 5598.00    1.63934   1.59404   -1.000
 5599.00    1.63048   1.58420   -1.000
 5600.00    1.62896   1.57557   -1.000
 5601.00    1.62490   1.56775   -1.000
 5602.00    1.61955   1.56419   -1.000
 5603.00    1.62809   1.57249   -1.000
 5604.00    1.65817   1.59494   -1.000
 5605.00    1.68453   1.62479   -1.000
 5606.00    1.69785   1.65125   -1.000
 5607.00    1.70388   1.66810   -1.000
 5608.00    1.70646   1.67606   95.908
 5609.00    1.70606   1.67893   96.098
 5610.00    1.70172   1.68014   96.133
 5611.00    1.70256   1.68007   95.905
 5612.00    1.70393   1.67391   96.014
 5613.00    1.68703   1.65525   -1.000
 5614.00    1.65429   1.62453  100.229
 5615.00    1.63174   1.59287   -1.000
 5616.00    1.63578   1.57726   -1.000
 5617.00    1.65918   1.58479   -1.000
 5618.00    1.67947   1.60534   -1.000
 5619.00    1.68689   1.62513   -1.000
 5620.00    1.69255   1.63831   -1.000
 5621.00    1.69699   1.64465   -1.000
 5622.00    1.69276   1.64376   -1.000
 5623.00    1.67996   1.63467   -1.000
 5624.00    1.66500   1.62146   -1.000
 5625.00    1.65705   1.61351   -1.000
 5626.00    1.66580   1.61712   -1.000
 5627.00    1.68288   1.63045   -1.000
 5628.00    1.69333   1.64650   -1.000
 5629.00    1.70298   1.65968   -1.000
 5630.00    1.71258   1.66817   -1.000
 5631.00    1.71501   1.67119   -1.000
 5632.00    1.71212   1.66849   -1.000
 5633.00    1.71240   1.66196   -1.000
 5634.00    1.71187   1.65426   -1.000
 5635.00    1.70549   1.64682   -1.000
 5636.00    1.69566   1.64022   -1.000
 5637.00    1.68412   1.63521   -1.000
 5638.00    1.67488   1.63276   -1.000
 5639.00    1.67310   1.63226   -1.000
 5640.00    1.68021   1.63142   -1.000
 5641.00    1.68442   1.63002   -1.000
 5642.00    1.68324   1.63051   -1.000
 5643.00    1.68609   1.63383   -1.000
 5644.00    1.69148   1.63848   -1.000
 5645.00    1.69670   1.64329   -1.000
 5646.00    1.69949   1.64763   -1.000
 5647.00    1.69903   1.65040   -1.000
 5648.00    1.70295   1.65079   -1.000
 5649.00    1.70662   1.64934   -1.000
 5650.00    1.71039   1.64824   -1.000
 5651.00    1.71582   1.64894   -1.000
 5652.00    1.71737   1.64987   -1.000
 5653.00    1.71461   1.64819   -1.000
 5654.00    1.70538   1.64226   -1.000
 5655.00    1.69174   1.63178   -1.000
 5656.00    1.67572   1.61637   -1.000
 5657.00    1.65622   1.59686   -1.000
 5658.00    1.63462   1.57991   -1.000
 5659.00    1.63424   1.57479   -1.000
 5660.00    1.65813   1.58247   -1.000
 5661.00    1.66920   1.59499   -1.000
 5662.00    1.66789   1.60533   -1.000
 5663.00    1.67766   1.61385   -1.000
 5664.00    1.68877   1.62430   -1.000
 5665.00    1.69280   1.63522   -1.000
 5666.00    1.69457   1.64089   -1.000
 5667.00    1.68938   1.64006   -1.000
 5668.00    1.68277   1.63728   -1.000
 5669.00    1.68462   1.63746   -1.000
 5670.00    1.69219   1.64222   -1.000
 5671.00    1.70315   1.65018   -1.000
 5672.00    1.70798   1.65870   -1.000
 5673.00    1.71178   1.66539   -1.000
 5674.00    1.71730   1.66883   -1.000
 5675.00    1.71714   1.66946   -1.000
 5676.00    1.71892   1.66940   -1.000
 5677.00    1.72050   1.66979   -1.000
 5678.00    1.71925   1.66929   -1.000
 5679.00    1.71902   1.66560   -1.000
 5680.00    1.71804   1.65720   -1.000
 5681.00    1.70735   1.64434   -1.000
 5682.00    1.69147   1.63021   -1.000
 5683.00    1.68583   1.61989   -1.000
 5684.00    1.68878   1.61703   -1.000
 5685.00    1.69246   1.62003   -1.000
 5686.00    1.69320   1.62268   -1.000
 5687.00    1.68983   1.62125   -1.000
 5688.00    1.68361   1.61871   -1.000
 5689.00    1.68352   1.62095   -1.000
 5690.00    1.70041   1.63046   -1.000
 5691.00    1.71709   1.64395   -1.000
 5692.00    1.72397   1.65615   -1.000
 5693.00    1.72558   1.66428   -1.000
 5694.00    1.72566   1.66871   -1.000
 5695.00    1.72916   1.67038   -1.000
 5696.00    1.72447   1.66960   -1.000
 5697.00    1.71457   1.66608   -1.000
 5698.00    1.70186   1.65928   -1.000
 5699.00    1.68765   1.64981   -1.000
 5700.00    1.67957   1.63992   -1.000
 5701.00    1.67460   1.63285   -1.000
 5702.00    1.67724   1.63094   -1.000
 5703.00    1.68250   1.63365   -1.000
 5704.00    1.68291   1.63680   -1.000
 5705.00    1.68034   1.63502   -1.000
 5706.00    1.67186   1.62628   -1.000
 5707.00    1.65814   1.61219   -1.000
 5708.00    1.64447   1.59567   -1.000
 5709.00    1.63537   1.58144   -1.000
 5710.00    1.63399   1.57530   -1.000
 5711.00    1.64216   1.58053   -1.000
 5712.00    1.66005   1.59659   -1.000
 5713.00    1.68695   1.61911   -1.000
 5714.00    1.71208   1.64092   -1.000
 5715.00    1.72324   1.65605   -1.000
 5716.00    1.72683   1.66420   -1.000
 5717.00    1.72400   1.66910   -1.000
 5718.00    1.72143   1.67396   -1.000
 5719.00    1.72815   1.67995   -1.000
 5720.00    1.73484   1.68679   -1.000
 5721.00    1.74197   1.69317   -1.000
 5722.00    1.74227   1.69787   -1.000
 5723.00    1.74290   1.70025   -1.000
 5724.00    1.74766   1.69977   -1.000
 5725.00    1.74095   1.69560   -1.000
 5726.00    1.72890   1.68834   -1.000
 5727.00    1.71566   1.68131   -1.000
 5728.00    1.71435   1.67803   -1.000
 5729.00    1.72901   1.67877   -1.000
 5730.00    1.73364   1.68032   -1.000
 5731.00    1.72756   1.68023   -1.000
 5732.00    1.73059   1.68015   -1.000
 5733.00    1.74162   1.68325   -1.000
 5734.00    1.75123   1.68966   -1.000
 5735.00    1.74793   1.69608   -1.000
 5736.00    1.73953   1.69956   -1.000
 5737.00    1.73757   1.69998   -1.000
 5738.00    1.73777   1.69904   -1.000
 5739.00    1.73897   1.69818   -1.000
 5740.00    1.74036   1.69740   -1.000
 5741.00    1.73682   1.69580   -1.000
 5742.00    1.73428   1.69396   -1.000
 5743.00    1.73821   1.69384   -1.000
 5744.00    1.73962   1.69619   -1.000
 5745.00    1.74474   1.69862   -1.000
 5746.00    1.74442   1.69800   -1.000
 5747.00    1.73244   1.69469   -1.000
 5748.00    1.73252   1.69229   -1.000
 5749.00    1.74242   1.69293   -1.000
 5750.00    1.74831   1.69319   -1.000
 5751.00    1.74277   1.68741   -1.000
 5752.00    1.72651   1.67515   -1.000
 5753.00    1.71253   1.66284   -1.000
 5754.00    1.71116   1.65903   -1.000
 5755.00    1.72538   1.66706   -1.000
 5756.00    1.74596   1.68270   -1.000
 5757.00    1.75498   1.69777   -1.000
 5758.00    1.75085   1.70577   -1.000
 5759.00    1.74578   1.70463   -1.000
 5760.00    1.73971   1.69596   -1.000
 5761.00    1.73073   1.68336   -1.000
 5762.00    1.71894   1.67296   -1.000
 5763.00    1.71271   1.67144   -1.000
 5764.00    1.71949   1.68100   -1.000
 5765.00    1.73436   1.69678   -1.000
 5766.00    1.74650   1.71050   -1.000
 5767.00    1.75036   1.71746   -1.000
 5768.00    1.74873   1.71860   94.887
 5769.00    1.74154   1.71674   94.917
 5770.00    1.73344   1.71323   95.203
 5771.00    1.72691   1.70812   95.643
 5772.00    1.72279   1.70181   96.225
 5773.00    1.71936   1.69604   96.628
 5774.00    1.71627   1.69263   96.776
 5775.00    1.71798   1.69232   96.713
 5776.00    1.71681   1.69442   96.332
 5777.00    1.70513   1.69563   96.048
 5778.00    1.67810   1.69108   96.203
 5779.00    1.63948   1.67912   -1.000
 5780.00    1.61436   1.66333   -1.000
 5781.00    1.61900   1.65001   -1.000
 5782.00    1.64749   1.64343  101.244
 5783.00    1.67490   1.64348  100.858
 5784.00    1.69032   1.64702   -1.000
 5785.00    1.70634   1.65194   -1.000
 5786.00    1.72005   1.65953   -1.000
 5787.00    1.73165   1.67047   -1.000
 5788.00    1.74097   1.68083   -1.000
 5789.00    1.73820   1.68562   -1.000
 5790.00    1.73454   1.68449   -1.000
 5791.00    1.73496   1.68241   -1.000
 5792.00    1.73599   1.68455   -1.000
 5793.00    1.74089   1.69169   -1.000
 5794.00    1.74171   1.70073   -1.000
 5795.00    1.73730   1.70762   95.079
 5796.00    1.72669   1.70942   95.393
 5797.00    1.72096   1.70670   96.024
 5798.00    1.72732   1.70430   96.050
 5799.00    1.73722   1.70662   95.103
 5800.00    1.75016   1.71300   -1.000
 5801.00    1.76404   1.71933   -1.000
 5802.00    1.76959   1.72187   -1.000
 5803.00    1.76054   1.71928   -1.000
 5804.00    1.75090   1.71311   -1.000
 5805.00    1.75315   1.70731   -1.000
 5806.00    1.75719   1.70532   -1.000
 5807.00    1.75712   1.70738   -1.000
 5808.00    1.76279   1.71128   -1.000
 5809.00    1.76723   1.71529   -1.000
 5810.00    1.76812   1.71901   -1.000
 5811.00    1.77199   1.72175   -1.000
 5812.00    1.77246   1.72217   -1.000
 5813.00    1.77167   1.71969   -1.000
 5814.00    1.76926   1.71466   -1.000
 5815.00    1.76077   1.70870   -1.000
 5816.00    1.75664   1.70538   -1.000
 5817.00    1.76385   1.70823   -1.000
 5818.00    1.77586   1.71640   -1.000
 5819.00    1.78300   1.72511   -1.000
 5820.00    1.78204   1.73048   -1.000
 5821.00    1.78167   1.73240   -1.000
 5822.00    1.78528   1.73293   -1.000
 5823.00    1.78566   1.73355   -1.000
 5824.00    1.78472   1.73418   -1.000
 5825.00    1.78507   1.73452   -1.000
 5826.00    1.78383   1.73502   -1.000
 5827.00    1.78551   1.73611   -1.000
 5828.00    1.79136   1.73741   -1.000
 5829.00    1.79110   1.73819   -1.000
 5830.00    1.78802   1.73824   -1.000
 5831.00    1.78857   1.73772   -1.000
 5832.00    1.78811   1.73649   -1.000
 5833.00    1.78731   1.73435   -1.000
 5834.00    1.78800   1.73193   -1.000
 5835.00    1.79090   1.73084   -1.000
 5836.00    1.79595   1.73224   -1.000
 5837.00    1.79428   1.73504   -1.000
 5838.00    1.78944   1.73723   -1.000
 5839.00    1.79050   1.73850   -1.000
 5840.00    1.78475   1.73996   -1.000
 5841.00    1.78075   1.74162   -1.000
 5842.00    1.78875   1.74206   -1.000
 5843.00    1.79118   1.74034   -1.000
 5844.00    1.78949   1.73650   -1.000
 5845.00    1.78856   1.73093   -1.000
 5846.00    1.78166   1.72487   -1.000
 5847.00    1.77460   1.72070   -1.000
 5848.00    1.77043   1.71981   -1.000
 5849.00    1.77111   1.72021   -1.000
 5850.00    1.76369   1.71817   -1.000
 5851.00    1.75029   1.71153   -1.000
 5852.00    1.74387   1.70158   -1.000
 5853.00    1.74187   1.69169   -1.000
 5854.00    1.73906   1.68383   -1.000
 5855.00    1.73951   1.67614   -1.000
 5856.00    1.73948   1.66500   -1.000
 5857.00    1.72864   1.65222   -1.000
 5858.00    1.72396   1.64638   -1.000
 5859.00    1.73674   1.65280   -1.000
 5860.00    1.75193   1.66734   -1.000
 5861.00    1.75818   1.68202   -1.000
 5862.00    1.75940   1.69269   -1.000
 5863.00    1.76196   1.70004   -1.000
 5864.00    1.76720   1.70447   -1.000
 5865.00    1.76337   1.70438   -1.000
 5866.00    1.75267   1.70045   -1.000
 5867.00    1.75219   1.69734   -1.000
 5868.00    1.76399   1.69983   -1.000
 5869.00    1.77823   1.70833   -1.000
 5870.00    1.78352   1.71836   -1.000
 5871.00    1.78261   1.72466   -1.000
 5872.00    1.78287   1.72530   -1.000
 5873.00    1.78078   1.72182   -1.000
 5874.00    1.77554   1.71689   -1.000
 5875.00    1.77511   1.71235   -1.000
 5876.00    1.77588   1.70890   -1.000
 5877.00    1.77003   1.70615   -1.000
 5878.00    1.76531   1.70315   -1.000
 5879.00    1.75969   1.69944   -1.000
 5880.00    1.75642   1.69529   -1.000
 5881.00    1.75611   1.69066   -1.000
 5882.00    1.75392   1.68488   -1.000
 5883.00    1.75333   1.67779   -1.000
 5884.00    1.74975   1.67037   -1.000
 5885.00    1.74685   1.66196   -1.000
 5886.00    1.72305   1.64497   -1.000
 5887.00    1.64763   1.60666   -1.000
 5888.00    1.52555   1.54294  106.222
 5889.00    1.40037   1.47193   -1.000
 5890.00    1.35295   1.42824   -1.000
 5891.00    1.42868   1.43116  116.703
 5892.00    1.55005   1.46343   -1.000
 5893.00    1.59346   1.48981   -1.000
 5894.00    1.53980   1.48973   -1.000
 5895.00    1.45910   1.47093  111.400
 5896.00    1.44062   1.45934  112.770
 5897.00    1.51099   1.47586   -1.000
 5898.00    1.60967   1.51765   -1.000
 5899.00    1.67887   1.56510   -1.000
 5900.00    1.71069   1.60468   -1.000
 5901.00    1.72178   1.63508   -1.000
 5902.00    1.73163   1.65743   -1.000
 5903.00    1.74684   1.67154   -1.000
 5904.00    1.75422   1.67866   -1.000
 5905.00    1.75436   1.68215   -1.000
 5906.00    1.75154   1.68519   -1.000
 5907.00    1.74881   1.68897   -1.000
 5908.00    1.74955   1.69286   -1.000
 5909.00    1.74465   1.69609   -1.000
 5910.00    1.74494   1.69817   -1.000
 5911.00    1.74599   1.69781   -1.000
 5912.00    1.74113   1.69268   -1.000
 5913.00    1.73433   1.68267   -1.000
 5914.00    1.72488   1.67204   -1.000
 5915.00    1.72290   1.66606   -1.000
 5916.00    1.72865   1.66691   -1.000
 5917.00    1.73122   1.67337   -1.000
 5918.00    1.73381   1.68247   -1.000
 5919.00    1.73469   1.69061   -1.000
 5920.00    1.73229   1.69532   -1.000
 5921.00    1.73533   1.69659   -1.000
 5922.00    1.74024   1.69638   -1.000
 5923.00    1.73995   1.69698   -1.000
 5924.00    1.73739   1.69967   -1.000
 5925.00    1.74293   1.70375   -1.000
 5926.00    1.75249   1.70641   -1.000
 5927.00    1.75748   1.70430   -1.000
 5928.00    1.75923   1.69684   -1.000
 5929.00    1.75356   1.68799   -1.000
 5930.00    1.74422   1.68366   -1.000
 5931.00    1.74366   1.68650   -1.000
 5932.00    1.74765   1.69278   -1.000
 5933.00    1.74346   1.69669   -1.000
 5934.00    1.74364   1.69757   -1.000
 5935.00    1.75183   1.69931   -1.000
 5936.00    1.75397   1.70420   -1.000
 5937.00    1.75547   1.71030   -1.000
 5938.00    1.75903   1.71371   -1.000
 5939.00    1.75944   1.71209   -1.000
 5940.00    1.74971   1.70648   -1.000
 5941.00    1.73597   1.70062   -1.000
 5942.00    1.72958   1.69814   99.119
 5943.00    1.73423   1.69973   -1.000
 5944.00    1.74578   1.70323   -1.000
 5945.00    1.74838   1.70568   -1.000
 5946.00    1.74339   1.70481   -1.000
 5947.00    1.74174   1.70031   -1.000
 5948.00    1.73844   1.69494   -1.000
 5949.00    1.72879   1.69266   -1.000
 5950.00    1.72836   1.69440   -1.000
 5951.00    1.74401   1.69670   -1.000
 5952.00    1.75024   1.69647   -1.000
 5953.00    1.74798   1.69523   -1.000
 5954.00    1.75191   1.69516   -1.000
 5955.00    1.74798   1.69478   -1.000
 5956.00    1.73652   1.69279   -1.000
 5957.00    1.73104   1.69176   -1.000
 5958.00    1.74057   1.69512   -1.000
 5959.00    1.74943   1.70308   -1.000
 5960.00    1.75978   1.71240   -1.000
 5961.00    1.77485   1.71947   -1.000
 5962.00    1.77847   1.72281   -1.000
 5963.00    1.77049   1.72254   -1.000
 5964.00    1.76167   1.71942   -1.000
 5965.00    1.75669   1.71512   -1.000
 5966.00    1.75125   1.71209   -1.000
 5967.00    1.75170   1.71210   -1.000
 5968.00    1.75538   1.71502   -1.000
 5969.00    1.75988   1.71973   -1.000
 5970.00    1.76773   1.72496   -1.000
 5971.00    1.77116   1.72903   -1.000
 5972.00    1.76834   1.73008   -1.000
 5973.00    1.76549   1.72693   -1.000
 5974.00    1.76052   1.71955   -1.000
 5975.00    1.75538   1.70972   -1.000
 5976.00    1.74538   1.70103   -1.000
 5977.00    1.73745   1.69734   -1.000
 5978.00    1.74699   1.70021   -1.000
 5979.00    1.75951   1.70761   -1.000
 5980.00    1.76249   1.71494   -1.000
 5981.00    1.76048   1.71718   -1.000
 5982.00    1.75700   1.71189   -1.000
 5983.00    1.74824   1.70146   -1.000
 5984.00    1.74062   1.69216   -1.000
 5985.00    1.74385   1.68934   -1.000
 5986.00    1.75283   1.69352   -1.000
 5987.00    1.75778   1.70120   -1.000
 5988.00    1.76155   1.70851   -1.000
 5989.00    1.76280   1.71330   -1.000
 5990.00    1.76244   1.71529   -1.000
 5991.00    1.76662   1.71633   -1.000
 5992.00    1.77280   1.71935   -1.000
 5993.00    1.77845   1.72487   -1.000
 5994.00    1.77959   1.72920   -1.000
 5995.00    1.77614   1.72843   -1.000
 5996.00    1.77036   1.72314   -1.000
 5997.00    1.76785   1.71736   -1.000
 5998.00    1.76840   1.71446   -1.000
 5999.00    1.76704   1.71468   -1.000
 6000.00    1.76431   1.71566   -1.000
 6001.00    1.76139   1.71495   -1.000
 6002.00    1.75951   1.71232   -1.000
 6003.00    1.75389   1.70991   -1.000
 6004.00    1.74883   1.70923   -1.000
 6005.00    1.74822   1.70817   -1.000
 6006.00    1.74475   1.70308   -1.000
 6007.00    1.73960   1.69473   -1.000
 6008.00    1.73577   1.68937   -1.000
 6009.00    1.73800   1.69243   -1.000
 6010.00    1.74789   1.70195   -1.000
 6011.00    1.75742   1.71014   -1.000
 6012.00    1.75752   1.71188   -1.000
 6013.00    1.75766   1.70912   -1.000
 6014.00    1.76320   1.70627   -1.000
 6015.00    1.76009   1.70511   -1.000
 6016.00    1.76080   1.70470   -1.000
 6017.00    1.76756   1.70382   -1.000
 6018.00    1.76282   1.70161   -1.000
 6019.00    1.75477   1.69744   -1.000
 6020.00    1.75178   1.69235   -1.000
 6021.00    1.75058   1.68933   -1.000
 6022.00    1.75207   1.69014   -1.000
 6023.00    1.75752   1.69366   -1.000
 6024.00    1.75944   1.69925   -1.000
 6025.00    1.76402   1.70736   -1.000
 6026.00    1.77047   1.71651   -1.000
 6027.00    1.77413   1.72429   -1.000
 6028.00    1.77704   1.73063   -1.000
 6029.00    1.78109   1.73628   -1.000
 6030.00    1.78360   1.74080   -1.000
 6031.00    1.78393   1.74383   -1.000
 6032.00    1.78617   1.74615   -1.000
 6033.00    1.78934   1.74857   -1.000
 6034.00    1.79308   1.75096   -1.000
 6035.00    1.78942   1.75248   -1.000
 6036.00    1.78209   1.75258   -1.000
 6037.00    1.78310   1.75121   -1.000
 6038.00    1.78733   1.74826   -1.000
 6039.00    1.78343   1.74388   -1.000
 6040.00    1.77908   1.73919   -1.000
 6041.00    1.78229   1.73590   -1.000
 6042.00    1.78858   1.73541   -1.000
 6043.00    1.79641   1.73809   -1.000
 6044.00    1.80064   1.74280   -1.000
 6045.00    1.80165   1.74765   -1.000
 6046.00    1.80285   1.75184   -1.000
 6047.00    1.80334   1.75583   -1.000
 6048.00    1.80022   1.75946   -1.000
 6049.00    1.79484   1.76172   -1.000
 6050.00    1.79341   1.76208   -1.000
 6051.00    1.80160   1.76060   -1.000
 6052.00    1.80479   1.75698   -1.000
 6053.00    1.79948   1.75071   -1.000
 6054.00    1.79416   1.74275   -1.000
 6055.00    1.78974   1.73581   -1.000
 6056.00    1.78770   1.73280   -1.000
 6057.00    1.78679   1.73479   -1.000
 6058.00    1.78638   1.74014   -1.000
 6059.00    1.78836   1.74579   -1.000
 6060.00    1.79412   1.74917   -1.000
 6061.00    1.79328   1.74849   -1.000
 6062.00    1.78257   1.74250   -1.000
 6063.00    1.77362   1.73131   -1.000
 6064.00    1.76316   1.71826   -1.000
 6065.00    1.73831   1.71019   -1.000
 6066.00    1.71083   1.71275   52.689
 6067.00    1.73746   1.72455   43.690
 6068.00    1.71918   1.73904  105.692
 6069.00    1.35370   1.75085   -1.000
 6070.00    0.92756   1.75829   -1.000
 6071.00    1.22097   1.76229   -1.000
 6072.00    1.74877   1.76470   94.607
 6073.00    1.83435   1.76640   -1.000
 6074.00    1.84663   1.76680   -1.000
 6075.00    1.89538   1.76463   -1.000
 6076.00    1.87225   1.75929   -1.000
 6077.00    1.78252   1.75139   -1.000
 6078.00    1.77779   1.74316   -1.000
 6079.00    1.77688   1.73767   -1.000
 6080.00    1.77444   1.73538   -1.000
 6081.00    1.77365   1.73372   -1.000
 6082.00    1.77300   1.73102   -1.000
 6083.00    1.77149   1.72809   -1.000
 6084.00    1.77628   1.72655   -1.000
 6085.00    1.77915   1.72780   -1.000
 6086.00    1.77945   1.73208   -1.000
 6087.00    1.77817   1.73722   -1.000
 6088.00    1.77558   1.73999   -1.000
 6089.00    1.77280   1.73915   -1.000
 6090.00    1.76870   1.73638   -1.000
 6091.00    1.76862   1.73445   -1.000
 6092.00    1.77549   1.73518   -1.000
 6093.00    1.78220   1.73871   -1.000
 6094.00    1.78813   1.74384   -1.000
 6095.00    1.79259   1.74904   -1.000
 6096.00    1.79182   1.75348   -1.000
 6097.00    1.79407   1.75670   -1.000
 6098.00    1.79595   1.75722   -1.000
 6099.00    1.78839   1.75161   -1.000
 6100.00    1.77238   1.73628   -1.000
 6101.00    1.75488   1.71250   -1.000
 6102.00    1.73722   1.68980   -1.000
 6103.00    1.72544   1.68110   -1.000
 6104.00    1.74191   1.69085   -1.000
 6105.00    1.76811   1.71069   -1.000
 6106.00    1.77410   1.72930   -1.000
 6107.00    1.77060   1.74201   -1.000
 6108.00    1.77038   1.75014   99.337
 6109.00    1.77161   1.75563   99.417
 6110.00    1.77526   1.75877   99.267
 6111.00    1.77709   1.75997   98.925
 6112.00    1.77706   1.76078   98.691
 6113.00    1.77440   1.76224   98.440
 6114.00    1.77507   1.76373   98.022
 6115.00    1.77685   1.76400   98.133
 6116.00    1.77282   1.76288   98.696
 6117.00    1.77132   1.76062   99.097
 6118.00    1.76982   1.75543   99.372
 6119.00    1.75615   1.74364  100.382
 6120.00    1.73606   1.72371  101.830
 6121.00    1.72048   1.70024  102.950
 6122.00    1.71601   1.68306   -1.000
 6123.00    1.72697   1.68011   -1.000
 6124.00    1.74065   1.69112   -1.000
 6125.00    1.74967   1.70859   -1.000
 6126.00    1.75098   1.72407  100.715
 6127.00    1.75212   1.73363  100.966
 6128.00    1.75742   1.73896  100.733
 6129.00    1.76222   1.74424  100.201
 6130.00    1.76713   1.75165   99.271
 6131.00    1.77372   1.75984   98.708
 6132.00    1.77147   1.76510   98.760
 6133.00    1.76062   1.76197   99.356
 6134.00    1.74128   1.74527  101.024
 6135.00    1.71055   1.71538  103.772
 6136.00    1.67796   1.68261  106.657
 6137.00    1.66356   1.66227  108.078
 6138.00    1.68117   1.66081  106.650
 6139.00    1.71016   1.67034   -1.000
 6140.00    1.72499   1.68126   -1.000
 6141.00    1.72505   1.69296   -1.000
 6142.00    1.72435   1.70856  101.518
 6143.00    1.73776   1.72684  101.054
 6144.00    1.75574   1.74218   99.849
 6145.00    1.76550   1.74987   99.189
 6146.00    1.76698   1.74967   99.428
 6147.00    1.76088   1.74455  100.011
 6148.00    1.75334   1.73786  100.702
 6149.00    1.74376   1.73227  101.365
 6150.00    1.73773   1.72980  101.644
 6151.00    1.73762   1.73144  101.413
 6152.00    1.74333   1.73538  100.844
 6153.00    1.75278   1.73729  100.416
 6154.00    1.74800   1.73465  100.843
 6155.00    1.73851   1.72946  101.593
 6156.00    1.73689   1.72506  101.848
 6157.00    1.73391   1.72150  102.074
 6158.00    1.72168   1.71443  102.870
 6159.00    1.69783   1.69769  104.457
 6160.00    1.67233   1.66885  107.117
 6161.00    1.64367   1.63455  110.387
 6162.00    1.62505   1.60887  112.470
 6163.00    1.62775   1.60323  111.971
 6164.00    1.64548   1.61695  109.384
 6165.00    1.66676   1.63903  106.979
 6166.00    1.67865   1.65700  106.058
 6167.00    1.67717   1.66297  106.050
 6168.00    1.66366   1.65733  106.943
 6169.00    1.65375   1.64971  108.259
 6170.00    1.65779   1.65133  108.339
 6171.00    1.67793   1.66423  106.725
 6172.00    1.69482   1.68193  104.877
 6173.00    1.69784   1.69769  104.274
 6174.00    1.69851   1.70863  104.475
 6175.00    1.69924   1.71501  104.363
 6176.00    1.70008   1.71887  104.113
 6177.00    1.70192   1.72224  103.880
 6178.00    1.70287   1.72569  103.469
 6179.00    1.70673   1.72898  103.011
 6180.00    1.71162   1.73255  102.675
 6181.00    1.71453   1.73711  102.270
 6182.00    1.71898   1.74171  101.894
 6183.00    1.72050   1.74390  101.894
 6184.00    1.71316   1.74206   -1.000
 6185.00    1.70772   1.73663   -1.000
 6186.00    1.70706   1.72913  103.833
 6187.00    1.70079   1.72080  104.958
 6188.00    1.68677   1.71125   -1.000
 6189.00    1.67207   1.69867   -1.000
 6190.00    1.66068   1.68404   -1.000
 6191.00    1.65483   1.67444  109.046
 6192.00    1.66203   1.67726  108.679
 6193.00    1.67831   1.69123  106.545
 6194.00    1.69639   1.70855  104.275
 6195.00    1.70452   1.72305  103.211
 6196.00    1.70555   1.73233  102.894
 6197.00    1.70677   1.73552   -1.000
 6198.00    1.70474   1.73293   -1.000
 6199.00    1.69556   1.72760   -1.000
 6200.00    1.68802   1.72468   -1.000
 6201.00    1.68653   1.72748   -1.000
 6202.00    1.68270   1.73497   -1.000
 6203.00    1.68699   1.74389   -1.000
 6204.00    1.69993   1.75150   -1.000
 6205.00    1.70801   1.75673   -1.000
 6206.00    1.71383   1.75983   -1.000
 6207.00    1.72358   1.76141   -1.000
 6208.00    1.72603   1.76127   -1.000
 6209.00    1.72062   1.75827   -1.000
 6210.00    1.71408   1.75097   -1.000
 6211.00    1.70747   1.73870   -1.000
 6212.00    1.69526   1.72297   -1.000
 6213.00    1.67508   1.70779   -1.000
 6214.00    1.66741   1.69754   -1.000
 6215.00    1.67167   1.69382   -1.000
 6216.00    1.67583   1.69439  108.561
 6217.00    1.67758   1.69518  107.475
 6218.00    1.67830   1.69399  107.745
 6219.00    1.68013   1.69263  108.028
 6220.00    1.68234   1.69469  107.303
 6221.00    1.68610   1.70100  107.248
 6222.00    1.68788   1.70862  111.715
 6223.00    1.68618   1.71436   -1.000
 6224.00    1.68907   1.71755   -1.000
 6225.00    1.70179   1.71867  106.196
 6226.00    1.58238   1.71710   -1.000
 6227.00    1.44527   1.71067   -1.000
 6228.00    1.58388   1.69748   -1.000
 6229.00    1.68416   1.67942  109.577
 6230.00    1.65407   1.66322  111.201
 6231.00    1.65569   1.65675  111.609
 6232.00    1.66451   1.66316  110.404
 6233.00    1.68276   1.67870  108.489
 6234.00    1.69839   1.69541  106.555
 6235.00    1.70360   1.70612  105.487
 6236.00    1.70393   1.70814  105.703
 6237.00    1.69823   1.70350  106.680
 6238.00    1.68723   1.69663  107.780
 6239.00    1.68001   1.69104  108.900
 6240.00    1.67967   1.68751  109.706
 6241.00    1.67770   1.68429  109.849
 6242.00    1.67185   1.67896  110.211
 6243.00    1.66579   1.67065  111.052
 6244.00    1.65802   1.66125  111.354
 6245.00    1.65587   1.65481  110.897
 6246.00    1.66623   1.65597  109.947
 6247.00    1.68093   1.66665  108.672
 6248.00    1.69077   1.68298  107.395
 6249.00    1.69339   1.69640  106.812
 6250.00    1.69014   1.69942  107.335
 6251.00    1.67700   1.69081  108.911
 6252.00    1.66108   1.67594  110.658
 6253.00    1.65184   1.66250  111.650
 6254.00    1.64710   1.65504  112.148
 6255.00    1.64344   1.65306  112.249
 6256.00    1.64127   1.65355  112.719
 6257.00    1.64114   1.65477  113.823
 6258.00    1.64270   1.65775  114.062
 6259.00    1.65419   1.66459  112.837
 6260.00    1.67511   1.67598  111.064
 6261.00    1.69068   1.69010  109.491
 6262.00    1.69793   1.70330  107.907
 6263.00    1.70248   1.71207  106.788
 6264.00    1.69743   1.71590  107.038
 6265.00    1.69245   1.71780   -1.000
 6266.00    1.69614   1.72067  107.998
 6267.00    1.68907   1.72380   -1.000
 6268.00    1.67880   1.72434   -1.000
 6269.00    1.67696   1.72171   -1.000
 6270.00    1.67708   1.71878   -1.000
 6271.00    1.68324   1.71809   -1.000
 6272.00    1.69490   1.71832  107.187
 6273.00    1.69857   1.71510  107.212
 6274.00    1.69070   1.70517  107.783
 6275.00    1.67224   1.68967  108.643
 6276.00    1.64530   1.67298   -1.000
 6277.00    1.61611   1.65920   -1.000
 6278.00    1.58976   1.65026   -1.000
 6279.00    1.57415   1.64709   -1.000
 6280.00    1.57160   1.65096   -1.000
 6281.00    1.56998   1.66210   -1.000
 6282.00    1.56781   1.67807   -1.000
 6283.00    1.57883   1.69488   -1.000
 6284.00    1.59404   1.70915   -1.000
 6285.00    1.61738   1.71940   -1.000
 6286.00    1.64822   1.72585   -1.000
 6287.00    1.67234   1.72889   -1.000
 6288.00    1.68956   1.72814   -1.000
 6289.00    1.70306   1.72375  106.502
 6290.00    1.70313   1.71783  107.290
 6291.00    1.69507   1.71311  108.165
 6292.00    1.68997   1.71082  108.664
 6293.00    1.69197   1.71017  108.788
 6294.00    1.69763   1.70888  108.942
 6295.00    1.69105   1.70459  109.465
 6296.00    1.67502   1.69712  110.299
 6297.00    1.66824   1.68923  110.733
 6298.00    1.66564   1.68361  110.698
 6299.00    1.65621   1.67981  110.364
 6300.00    1.64271   1.67604   -1.000
 6301.00    1.63548   1.67376   -1.000
 6302.00    1.64683   1.67753   -1.000
 6303.00    1.67208   1.68921  111.469
 6304.00    1.69445   1.70494  109.968
 6305.00    1.70759   1.71919  108.381
 6306.00    1.71771   1.72908  107.284
 6307.00    1.72267   1.73434  106.361
 6308.00    1.73140   1.73596  105.777
 6309.00    1.73587   1.73537  105.976
 6310.00    1.72375   1.73358  106.606
 6311.00    1.71556   1.73073  107.191
 6312.00    1.71299   1.72622  107.594
 6313.00    1.70528   1.71962  107.873
 6314.00    1.70030   1.71165  108.390
 6315.00    1.69580   1.70379  109.160
 6316.00    1.68606   1.69724  109.271
 6317.00    1.68233   1.69344  109.156
 6318.00    1.68222   1.69477  109.179
 6319.00    1.68820   1.70244  109.078
 6320.00    1.70481   1.71390  108.182
 6321.00    1.71016   1.72478  106.939
 6322.00    1.71354   1.73375  106.228
 6323.00    1.72362   1.74230  105.885
 6324.00    1.72849   1.75029  105.421
 6325.00    1.73190   1.75561  104.952
 6326.00    1.73692   1.75739  104.774
 6327.00    1.73528   1.75705  104.503
 6328.00    1.73669   1.75638  104.248
 6329.00    1.73735   1.75610  104.382
 6330.00    1.73599   1.75627  104.448
 6331.00    1.73581   1.75634  104.299
 6332.00    1.73829   1.75416  103.990
 6333.00    1.73835   1.74669  104.057
 6334.00    1.72711   1.73360  104.358
 6335.00    1.71230   1.71955  105.668
 6336.00    1.70656   1.71154  107.212
 6337.00    1.71085   1.71310  106.730
 6338.00    1.75446   1.72220   -1.000
 6339.00    1.78572   1.73434   -1.000
 6340.00    1.75742   1.74539  103.712
 6341.00    1.74367   1.75201  103.248
 6342.00    1.74186   1.75272  103.020
 6343.00    1.73895   1.74897  103.553
 6344.00    1.73151   1.74399  104.163
 6345.00    1.72916   1.74095  104.042
 6346.00    1.73548   1.74215  103.598
 6347.00    1.73812   1.74854  102.940
 6348.00    1.73961   1.75867  102.368
 6349.00    1.74262   1.76883  102.201
 6350.00    1.74409   1.77552   -1.000
 6351.00    1.74116   1.77717   -1.000
 6352.00    1.73297   1.77385   -1.000
 6353.00    1.72086   1.76700   -1.000
 6354.00    1.71526   1.75925   -1.000
 6355.00    1.71370   1.75294   -1.000
 6356.00    1.70989   1.74814   -1.000
 6357.00    1.70749   1.74334   -1.000
 6358.00    1.69930   1.73821   -1.000
 6359.00    1.69373   1.73385   -1.000
 6360.00    1.69551   1.73049   -1.000
 6361.00    1.69752   1.72754   -1.000
 6362.00    1.70067   1.72552   -1.000
 6363.00    1.70364   1.72599  106.075
 6364.00    1.70971   1.72977  105.528
 6365.00    1.71748   1.73610  104.823
 6366.00    1.72049   1.74337  104.209
 6367.00    1.72642   1.74962  103.606
 6368.00    1.73484   1.75297  102.923
 6369.00    1.73800   1.75326  102.437
 6370.00    1.73761   1.75303  102.360
 6371.00    1.74151   1.75532  102.251
 6372.00    1.74601   1.76061  101.849
 6373.00    1.74457   1.76655  101.765
 6374.00    1.74009   1.77015  101.986
 6375.00    1.74096   1.76990  102.117
 6376.00    1.73797   1.76629  102.424
 6377.00    1.72491   1.76106   -1.000
 6378.00    1.71537   1.75596   -1.000
 6379.00    1.71570   1.75199   -1.000
 6380.00    1.71720   1.74930   -1.000
 6381.00    1.71876   1.74780  104.404
 6382.00    1.72033   1.74750  104.507
 6383.00    1.72429   1.74875  104.343
 6384.00    1.72457   1.75194  104.413
 6385.00    1.71960   1.75666   -1.000
 6386.00    1.71764   1.76127   -1.000
 6387.00    1.71782   1.76409   -1.000
 6388.00    1.70988   1.76478   -1.000
 6389.00    1.69610   1.76330   -1.000
 6390.00    1.68607   1.75827   -1.000
 6391.00    1.67384   1.74848   -1.000
 6392.00    1.65764   1.73649   -1.000
 6393.00    1.64459   1.72874   -1.000
 6394.00    1.64502   1.73032   -1.000
 6395.00    1.65504   1.73964   -1.000
 6396.00    1.65703   1.74896   -1.000
 6397.00    1.64700   1.75039   -1.000
 6398.00    1.63247   1.74230   -1.000
 6399.00    1.61319   1.73116   -1.000
 6400.00    1.59568   1.72634   -1.000
 6401.00    1.60281   1.73236   -1.000
 6402.00    1.61857   1.74588   -1.000
 6403.00    1.62784   1.75944   -1.000
 6404.00    1.63122   1.76675   -1.000
 6405.00    1.62612   1.76550   -1.000
 6406.00    1.60834   1.75801   -1.000
 6407.00    1.58468   1.74976   -1.000
 6408.00    1.57407   1.74526   -1.000
 6409.00    1.56896   1.74431   -1.000
 6410.00    1.55932   1.74407   -1.000
 6411.00    1.55133   1.74406   -1.000
 6412.00    1.54675   1.74623   -1.000
 6413.00    1.53729   1.75088   -1.000
 6414.00    1.53064   1.75593   -1.000
 6415.00    1.52899   1.75963   -1.000
 6416.00    1.52478   1.76134   -1.000
 6417.00    1.51536   1.75992   -1.000
 6418.00    1.49725   1.75410   -1.000
 6419.00    1.47357   1.74514   -1.000
 6420.00    1.45668   1.73794   -1.000
 6421.00    1.44617   1.73835   -1.000
 6422.00    1.44055   1.74805   -1.000
 6423.00    1.44195   1.76271   -1.000
 6424.00    1.43884   1.77650   -1.000
 6425.00    1.43031   1.78651   -1.000
 6426.00    1.42184   1.79168   -1.000
 6427.00    1.41029   1.79052   -1.000
 6428.00    1.39493   1.78167   -1.000
