###################################################################
## OUTPUT of StarlightChains_v04.for    [Cid@UFSC - 01/Apr/2007] ##
###################################################################

## Some input info
NGC6316_b_1.cxt                          [arq_obs]
Base.BC03.N                              [arq_base]
NGC6316_b_1.msk                          [arq_masks]
StCv04.C11.config                        [arq_config]
   45                                    [N_base]
    0                                    [N_YAV_components = # of components with extra extinction!]
    0                                    [i_FitPowerLaw (1/0 = Yes/No)]
-9.99                                    [alpha_PowerLaw]
CCM                                      [red_law_option]
 1.458241                                [q_norm = A(l_norm)/A(V)]

## (Re)Sampling Parameters
 3359.00                                 [l_ini (A)]
 6428.00                                 [l_fin (A)]
    1.00                                 [dl    (A)]     (OBS: dl_cushion =    50.00 A)

## Normalization info
 4020.00                                 [l_norm (A) - for base]
 4010.00                                 [llow_norm (A) - window for f_obs]
 4060.00                                 [lupp_norm (A) - window for f_obs]
4.941922E-15                             [fobs_norm (in input units)]

## S/N
 4730.00                                 [llow_SN (A) - window for S/N]
 4780.00                                 [lupp_SN (A) - window for S/N]
  40.026                                 [S/N in S/N window]
  23.956                                 [S/N in norm. window]
 311.877                                 [S/N_err in S/N window]
 186.662                                 [S/N_err in norm. window]
  1.0000                                 [fscale_chi2]

## etc...
  2147483617                             [idum_orig]
  3069                                   [NOl_eff]
  1300                                   [Nl_eff]
  1769    NSIGMA                         [Ntot_cliped & clip_method]
  1151500                                [Nglobal_steps]
   7                                     [N_chains]
  16                                     [NEX0s_base = N_base in EX0s-fits]
 0   0   1      129   2.0   4.321E+02    [Clip-Bug, RC-Crash & Burn-In warning-flags, n_censored_weights, wei_nsig_threshold & wei_limit]
    12     11.462     11.454      0.008  [idt_all, wdt_TotTime, wdt_UsrTime & wdt_SysTime (sec)]

## Synthesis Results - Best model ##

 2.76851E+00                             [chi2/Nl_eff]
     2.09522                             [adev (%)]

    95.58600                             [sum-of-x (%)]
 6.89300E-14                             [Flux_tot (units of input spectrum!)]
 2.09421E-09                             [Mini_tot (???)]
 1.06427E-09                             [Mcor_tot (???)]

 -13.24                                  [v0_min  (km/s)]
  43.47                                  [vd_min  (km/s)]
 1.9958                                  [AV_min  (mag)]
 0.0000                                  [YAV_min (mag)]

# j     x_j(%)      Mini_j(%)     Mcor_j(%)     age_j(yr)     Z_j      (L/M)_j    YAV?  Mstars   component_j        a/Fe...       SSP_chi2r SSP_adev(%)   SSP_AV   SSP_x(%)
  1      4.6876     1.4490E-02    2.8512E-02    1.000000E+06  0.00400  1.114E-02    0   1.0000   age020_m42            0.0000     2.2766E+03    35.6201   4.0000    95.8091
  2      3.4254     2.8959E-03    5.6978E-03    3.160000E+06  0.00400  4.073E-02    0   0.9999   age045_m42            0.0000     3.6532E+02    13.7858   4.0000   101.5366
  3      8.8045     1.1964E-02    2.2338E-02    5.010000E+06  0.00400  2.534E-02    0   0.9488   age055_m42            0.0000     9.4234E+02    23.0707   4.0000   100.4760
  4      4.3443     1.1770E-02    2.0524E-02    1.000000E+07  0.00400  1.271E-02    0   0.8862   age070_m42            0.0000     2.4709E+02     6.9485   4.0000    95.2954
  5      0.0000     0.0000E+00    0.0000E+00    2.512000E+07  0.00400  5.070E-03    0   0.8174   age090_m42            0.0000     1.8909E+02     6.4151   4.0000    94.6254
  6      0.0000     0.0000E+00    0.0000E+00    4.000000E+07  0.00400  3.505E-03    0   0.7851   age104_m42            0.0000     1.4266E+02     5.2778   3.6938    96.4052
  7      0.0000     0.0000E+00    0.0000E+00    1.015200E+08  0.00400  2.268E-03    0   0.7207   age116_m42            0.0000     5.6153E+02    11.6902   3.5026   105.6944
  8      0.0000     0.0000E+00    0.0000E+00    2.861200E+08  0.00400  1.079E-03    0   0.6613   age125_m42            0.0000     5.9533E+02    12.5404   2.9941   107.2049
  9      0.0000     0.0000E+00    0.0000E+00    6.405400E+08  0.00400  5.077E-04    0   0.6197   age132_m42            0.0000     6.3767E+02    12.6841   2.6429   111.5968
 10      1.3798     1.3441E-01    1.5933E-01    9.047900E+08  0.00400  3.535E-04    0   0.6024   age135_m42            0.0000     4.6555E+02    11.5500   2.4117   110.7705
 11      0.0000     0.0000E+00    0.0000E+00    1.434000E+09  0.00400  1.910E-04    0   0.5716   age139_m42            0.0000     2.7131E+02    10.9651   1.8782   108.6508
 12      0.0000     0.0000E+00    0.0000E+00    2.500000E+09  0.00400  9.818E-05    0   0.5463   age150_m42            0.0000     1.1916E+02     9.4445   1.6069   103.7152
 13     31.8486     2.3245E+01    2.3913E+01    5.000000E+09  0.00400  4.718E-05    0   0.5228   age161_m42            0.0000     7.0828E+01     8.3269   1.4580   100.1835
 14     18.1018     2.8269E+01    2.7702E+01    1.100000E+10  0.00400  2.205E-05    0   0.4980   age185_m42            0.0000     1.0121E+02     9.7472   1.1724    97.7049
 15      6.7968     1.2429E+01    1.2050E+01    1.300000E+10  0.00400  1.883E-05    0   0.4927   age193_m42            0.0000     1.0854E+02     9.8310   1.1569    97.5008
 16      1.1141     1.9288E-03    3.7955E-03    1.000000E+06  0.02000  1.989E-02    0   1.0000   age020_m62            0.0000     2.2180E+03    34.7746   4.0000    96.4770
 17      0.8072     7.3691E-04    1.4294E-03    3.160000E+06  0.02000  3.772E-02    0   0.9858   age045_m62            0.0000     1.8882E+03    31.9022   4.0000    98.3540
 18      2.5666     2.7388E-03    5.0346E-03    5.010000E+06  0.02000  3.227E-02    0   0.9342   age055_m62            0.0000     7.0225E+02    19.7636   4.0000   102.0501
 19      0.0000     0.0000E+00    0.0000E+00    1.000000E+07  0.02000  1.011E-02    0   0.8751   age070_m62            0.0000     4.0120E+02    10.0059   4.0000    93.8300
 20      0.0000     0.0000E+00    0.0000E+00    2.512000E+07  0.02000  4.206E-03    0   0.8099   age090_m62            0.0000     2.8178E+02     8.3831   4.0000    92.7104
 21      0.0000     0.0000E+00    0.0000E+00    4.000000E+07  0.02000  3.373E-03    0   0.7799   age104_m62            0.0000     2.1241E+02     5.7092   3.8913    97.9601
 22      0.0000     0.0000E+00    0.0000E+00    1.015200E+08  0.02000  1.878E-03    0   0.7221   age116_m62            0.0000     5.0243E+02    10.0355   3.5765   105.9686
 23      0.0000     0.0000E+00    0.0000E+00    2.861200E+08  0.02000  8.869E-04    0   0.6700   age125_m62            0.0000     8.7544E+02    14.4584   2.9955   112.2550
 24      0.0000     0.0000E+00    0.0000E+00    6.405400E+08  0.02000  3.657E-04    0   0.6322   age132_m62            0.0000     6.5116E+02    15.0795   2.2742   115.0977
 25      0.0000     0.0000E+00    0.0000E+00    9.047900E+08  0.02000  2.312E-04    0   0.6152   age135_m62            0.0000     4.3223E+02    13.8549   1.9070   114.0109
 26      0.0000     0.0000E+00    0.0000E+00    1.434000E+09  0.02000  1.168E-04    0   0.5865   age139_m62            0.0000     1.8941E+02    11.2597   1.5196   107.7747
 27      0.0000     0.0000E+00    0.0000E+00    2.500000E+09  0.02000  5.505E-05    0   0.5610   age150_m62            0.0000     1.5244E+02    11.2575   1.1447   104.6731
 28      0.0000     0.0000E+00    0.0000E+00    5.000000E+09  0.02000  2.596E-05    0   0.5353   age161_m62            0.0000     2.3084E+02    13.5498   0.7723   104.3673
 29      7.4568     2.1965E+01    2.2056E+01    1.100000E+10  0.02000  1.169E-05    0   0.5103   age185_m62            0.0000     3.7238E+02    16.1724   0.3579   105.6721
 30      0.0000     0.0000E+00    0.0000E+00    1.300000E+10  0.02000  9.691E-06    0   0.5047   age193_m62            0.0000     4.0364E+02    16.5885   0.3056   105.8336
 31      0.7200     9.3517E-04    1.8398E-03    1.000000E+06  0.05000  2.651E-02    0   0.9998   age020_m72            0.0000     2.1719E+03    34.6871   4.0000    97.5719
 32      0.0000     0.0000E+00    0.0000E+00    3.160000E+06  0.05000  4.817E-02    0   0.9577   age045_m72            0.0000     1.4307E+03    28.4490   4.0000   101.1605
 33      0.0000     0.0000E+00    0.0000E+00    5.010000E+06  0.05000  3.101E-02    0   0.9147   age055_m72            0.0000     8.5404E+02    20.2826   4.0000   100.9883
 34      0.0000     0.0000E+00    0.0000E+00    1.000000E+07  0.05000  8.954E-03    0   0.8524   age070_m72            0.0000     1.1661E+03    25.4671   4.0000   101.5944
 35      0.0000     0.0000E+00    0.0000E+00    2.512000E+07  0.05000  4.207E-03    0   0.7902   age090_m72            0.0000     4.5161E+02    15.4523   4.0000   102.1240
 36      0.0000     0.0000E+00    0.0000E+00    4.000000E+07  0.05000  3.198E-03    0   0.7618   age104_m72            0.0000     3.5722E+02     8.6704   3.9402   101.9746
 37      0.0000     0.0000E+00    0.0000E+00    1.015200E+08  0.05000  1.716E-03    0   0.7092   age116_m72            0.0000     5.7720E+02    10.8581   3.6423   106.2290
 38      0.0000     0.0000E+00    0.0000E+00    2.861200E+08  0.05000  7.047E-04    0   0.6618   age125_m72            0.0000     8.4625E+02    15.1941   2.7598   112.6982
 39      0.0000     0.0000E+00    0.0000E+00    6.405400E+08  0.05000  2.633E-04    0   0.6253   age132_m72            0.0000     5.3766E+02    14.9857   1.8928   114.1478
 40      0.0000     0.0000E+00    0.0000E+00    9.047900E+08  0.05000  1.484E-04    0   0.6088   age135_m72            0.0000     2.8967E+02    13.4809   1.4183   108.5082
 41      0.0000     0.0000E+00    0.0000E+00    1.434000E+09  0.05000  7.827E-05    0   0.5847   age139_m72            0.0000     2.2764E+02    13.5286   1.0126   104.9214
 42      0.0000     0.0000E+00    0.0000E+00    2.500000E+09  0.05000  3.759E-05    0   0.5583   age150_m72            0.0000     2.6118E+02    14.2265   0.6797   104.0475
 43      1.8091     4.0243E+00    4.2127E+00    5.000000E+09  0.05000  1.548E-05    0   0.5320   age161_m72            0.0000     4.0509E+02    16.0732   0.2492   102.9741
 44      1.0590     5.5828E+00    5.5696E+00    1.100000E+10  0.05000  6.532E-06    0   0.5070   age185_m72            0.0000     6.2943E+02    19.9008  -0.2321   102.9106
 45      0.6643     4.3028E+00    4.2486E+00    1.300000E+10  0.05000  5.316E-06    0   0.5018   age193_m72            0.0000     7.2799E+02    21.3917  -0.3944   103.1735


## Synthesis Results - Average & Chains ##

# j      x_j: min, <> & last-chain-values for 1 ...  7 chains
  1      4.6876      4.5921      4.6188      4.6606      4.6680      4.5891      4.5900      4.5272      4.7032
  2      3.4254      2.9282      3.0476      3.0806      2.8183      3.0984      3.0336      2.8726      3.1285
  3      8.8045      8.4782      8.5373      8.5560      8.5316      8.6809      8.5351      8.6468      8.3924
  4      4.3443      3.8755      3.8722      3.9575      4.0773      4.0380      3.9432      3.8178      4.0050
  5      0.0000      0.1397      0.1718      0.1506      0.0000      0.0853      0.0837      0.0557      0.0559
  6      0.0000      0.0397      0.0932      0.1404      0.0000      0.0000      0.0000      0.0530      0.0000
  7      0.0000      0.0934      0.0000      0.0611      0.1231      0.0000      0.0000      0.0109      0.0000
  8      0.0000      0.0279      0.0000      0.0977      0.0000      0.0000      0.0000      0.0000      0.0000
  9      0.0000      0.2059      0.1947      0.1334      0.2357      0.2074      0.3473      0.5459      0.1737
 10      1.3798      0.3353      0.6888      0.6183      0.2132      0.6617      0.6921      0.4738      0.5833
 11      0.0000      0.2553      0.2596      0.2057      0.8979      0.1716      0.0000      0.4242      0.0000
 12      0.0000      0.1682      0.0604      0.0000      0.0000      0.0438      0.0692      0.1174      0.1970
 13     31.8486     32.5328     32.1531     32.6807     32.8190     32.3785     32.7348     32.5173     32.7687
 14     18.1018     17.9546     18.3983     18.1453     17.6665     18.1489     18.2929     18.0636     17.8032
 15      6.7968      6.2461      6.0825      5.9239      6.2726      6.4687      6.1987      6.2893      6.2521
 16      1.1141      0.9531      0.9631      0.8886      1.1320      0.9209      1.0018      0.9176      0.9202
 17      0.8072      0.7170      0.7039      0.6441      0.6914      0.8251      0.7591      0.7168      0.7299
 18      2.5666      2.3902      2.5110      2.3418      2.4238      2.5002      2.4981      2.2971      2.3593
 19      0.0000      0.4862      0.3856      0.3804      0.5273      0.5180      0.5297      0.4714      0.5166
 20      0.0000      0.0305      0.0000      0.0000      0.0000      0.0000      0.0062      0.0000      0.0000
 21      0.0000      0.0447      0.0478      0.0402      0.0000      0.0000      0.0845      0.0000      0.1796
 22      0.0000      0.0452      0.0000      0.0000      0.0000      0.0000      0.0000      0.0000      0.0305
 23      0.0000      0.0182      0.0000      0.0000      0.0000      0.0000      0.0476      0.0000      0.0000
 24      0.0000      0.0287      0.0000      0.0535      0.0000      0.0000      0.0000      0.0000      0.0000
 25      0.0000      0.0333      0.0024      0.0000      0.0000      0.0000      0.0000      0.0000      0.0185
 26      0.0000      0.0274      0.0197      0.0000      0.0000      0.0000      0.0000      0.0000      0.0000
 27      0.0000      0.0394      0.0000      0.0000      0.0000      0.0000      0.0037      0.0000      0.0000
 28      0.0000      0.0538      0.0000      0.0000      0.0000      0.0000      0.0000      0.0644      0.0054
 29      7.4568      8.4093      8.4830      8.3467      8.3188      8.3884      8.2011      8.0429      8.4115
 30      0.0000      0.3146      0.1119      0.1838      0.4959      0.1631      0.2977      0.3680      0.2458
 31      0.7200      0.8626      0.8074      0.8561      0.7488      0.6365      0.8343      1.1683      0.8000
 32      0.0000      0.2194      0.1917      0.2439      0.3029      0.0000      0.2202      0.2005      0.1449
 33      0.0000      0.2912      0.3681      0.2226      0.1411      0.3711      0.0979      0.3092      0.3031
 34      0.0000      0.0375      0.0000      0.1161      0.0000      0.0732      0.0000      0.0000      0.0000
 35      0.0000      0.0557      0.0071      0.0566      0.0159      0.0000      0.0000      0.0351      0.0502
 36      0.0000      0.0281      0.0237      0.0103      0.0000      0.0000      0.0000      0.0000      0.0000
 37      0.0000      0.0444      0.0000      0.0000      0.0000      0.0000      0.0000      0.0000      0.1242
 38      0.0000      0.0254      0.0000      0.0000      0.0000      0.1555      0.0425      0.0000      0.0000
 39      0.0000      0.0267      0.1458      0.0000      0.0000      0.0000      0.0000      0.0000      0.0186
 40      0.0000      0.0362      0.0000      0.0000      0.0000      0.0000      0.0000      0.0000      0.0000
 41      0.0000      0.0230      0.0120      0.0000      0.0000      0.0000      0.0000      0.0000      0.0879
 42      0.0000      0.0182      0.0000      0.0000      0.0000      0.0000      0.0000      0.0000      0.0000
 43      1.8091      1.0582      1.0087      1.1577      1.1632      1.0491      1.1284      1.0290      1.2472
 44      1.0590      0.8718      1.0461      1.1136      0.8477      0.8573      0.7791      0.8561      0.9166
 45      0.6643      0.6068      0.6553      0.5960      0.5161      0.6397      0.5956      0.7571      0.4804

# j      m_j: min, <> & last-chain-values for 1 ...  7 chains
  1  2.8512E-02  2.7840E-02  2.7841E-02  2.8140E-02  2.8410E-02  2.7849E-02  2.8019E-02  2.7414E-02  2.8667E-02
  2  5.6978E-03  4.8549E-03  5.0238E-03  5.0868E-03  4.6909E-03  5.1423E-03  5.0645E-03  4.7571E-03  5.2151E-03
  3  2.2338E-02  2.1439E-02  2.1464E-02  2.1548E-02  2.1658E-02  2.1974E-02  2.1733E-02  2.1840E-02  2.1337E-02
  4  2.0524E-02  1.8250E-02  1.8129E-02  1.8560E-02  1.9275E-02  1.9034E-02  1.8697E-02  1.7956E-02  1.8961E-02
  5  0.0000E+00  1.5213E-03  1.8596E-03  1.6327E-03  0.0000E+00  9.2992E-04  9.1778E-04  6.0531E-04  6.1183E-04
  6  0.0000E+00  6.0030E-04  1.4015E-03  2.1151E-03  0.0000E+00  0.0000E+00  0.0000E+00  8.0043E-04  0.0000E+00
  7  0.0000E+00  2.0054E-03  0.0000E+00  1.3049E-03  2.6513E-03  0.0000E+00  0.0000E+00  2.3434E-04  0.0000E+00
  8  0.0000E+00  1.1544E-03  0.0000E+00  4.0273E-03  0.0000E+00  0.0000E+00  0.0000E+00  0.0000E+00  0.0000E+00
  9  0.0000E+00  1.6975E-02  1.5956E-02  1.0953E-02  1.9501E-02  1.7116E-02  2.8825E-02  4.4948E-02  1.4395E-02
 10  1.5933E-01  3.8585E-02  7.8818E-02  7.0872E-02  2.4636E-02  7.6235E-02  8.0209E-02  5.4468E-02  6.7493E-02
 11  0.0000E+00  5.1598E-02  5.2175E-02  4.1413E-02  1.8219E-01  3.4716E-02  0.0000E+00  8.5636E-02  0.0000E+00
 12  0.0000E+00  6.3208E-02  2.2550E-02  0.0000E+00  0.0000E+00  1.6468E-02  2.6191E-02  4.4080E-02  7.4426E-02
 13  2.3913E+01  2.4347E+01  2.3924E+01  2.4357E+01  2.4656E+01  2.4255E+01  2.4667E+01  2.4306E+01  2.4656E+01
 14  2.7702E+01  2.7387E+01  2.7902E+01  2.7564E+01  2.7052E+01  2.7710E+01  2.8096E+01  2.7520E+01  2.7302E+01
 15  1.2050E+01  1.1038E+01  1.0687E+01  1.0426E+01  1.1128E+01  1.1442E+01  1.1030E+01  1.1101E+01  1.1108E+01
 16  3.7955E-03  3.2361E-03  3.2512E-03  3.0051E-03  3.8587E-03  3.1300E-03  3.4252E-03  3.1120E-03  3.1414E-03
 17  1.4294E-03  1.2656E-03  1.2352E-03  1.1322E-03  1.2251E-03  1.4577E-03  1.3491E-03  1.2637E-03  1.2953E-03
 18  5.0346E-03  4.6733E-03  4.8810E-03  4.5598E-03  4.7573E-03  4.8932E-03  4.9180E-03  4.4859E-03  4.6378E-03
 19  0.0000E+00  2.8421E-03  2.2409E-03  2.2148E-03  3.0945E-03  3.0313E-03  3.1179E-03  2.7524E-03  3.0362E-03
 20  0.0000E+00  3.9675E-04  0.0000E+00  0.0000E+00  0.0000E+00  0.0000E+00  8.1706E-05  0.0000E+00  0.0000E+00
 21  0.0000E+00  6.9773E-04  7.4171E-04  6.2472E-04  0.0000E+00  0.0000E+00  1.3290E-03  0.0000E+00  2.8197E-03
 22  0.0000E+00  1.1731E-03  0.0000E+00  0.0000E+00  0.0000E+00  0.0000E+00  0.0000E+00  0.0000E+00  7.9663E-04
 23  0.0000E+00  9.2727E-04  0.0000E+00  0.0000E+00  0.0000E+00  0.0000E+00  2.4470E-03  0.0000E+00  0.0000E+00
 24  0.0000E+00  3.3475E-03  0.0000E+00  6.2154E-03  0.0000E+00  0.0000E+00  0.0000E+00  0.0000E+00  0.0000E+00
 25  0.0000E+00  5.9814E-03  4.2316E-04  0.0000E+00  0.0000E+00  0.0000E+00  0.0000E+00  0.0000E+00  3.3436E-03
 26  0.0000E+00  9.2922E-03  6.6332E-03  0.0000E+00  0.0000E+00  0.0000E+00  0.0000E+00  0.0000E+00  0.0000E+00
 27  0.0000E+00  2.7143E-02  0.0000E+00  0.0000E+00  0.0000E+00  0.0000E+00  2.5707E-03  0.0000E+00  0.0000E+00
 28  0.0000E+00  7.4956E-02  0.0000E+00  0.0000E+00  0.0000E+00  0.0000E+00  0.0000E+00  8.9601E-02  7.5448E-03
 29  2.2056E+01  2.4792E+01  2.4865E+01  2.4507E+01  2.4620E+01  2.4755E+01  2.4345E+01  2.3684E+01  2.4932E+01
 30  0.0000E+00  1.1067E+00  3.9146E-01  6.4400E-01  1.7510E+00  5.7417E-01  1.0545E+00  1.2928E+00  8.6924E-01
 31  1.8398E-03  2.1972E-03  2.0446E-03  2.1715E-03  1.9146E-03  1.6229E-03  2.1398E-03  2.9723E-03  2.0487E-03
 32  0.0000E+00  2.9459E-04  2.5598E-04  3.2614E-04  4.0825E-04  0.0000E+00  2.9769E-04  2.6886E-04  1.9565E-04
 33  0.0000E+00  5.8021E-04  7.2902E-04  4.4157E-04  2.8212E-04  7.4002E-04  1.9632E-04  6.1527E-04  6.0715E-04
 34  0.0000E+00  2.4085E-04  0.0000E+00  7.4369E-04  0.0000E+00  4.7105E-04  0.0000E+00  0.0000E+00  0.0000E+00
 35  0.0000E+00  7.0606E-04  8.9908E-05  7.1455E-04  2.0311E-04  0.0000E+00  0.0000E+00  4.4490E-04  6.4078E-04
 36  0.0000E+00  4.5179E-04  3.7838E-04  1.6566E-04  0.0000E+00  0.0000E+00  0.0000E+00  0.0000E+00  0.0000E+00
 37  0.0000E+00  1.2397E-03  0.0000E+00  0.0000E+00  0.0000E+00  0.0000E+00  0.0000E+00  0.0000E+00  3.4862E-03
 38  0.0000E+00  1.6133E-03  0.0000E+00  0.0000E+00  0.0000E+00  9.8697E-03  2.7141E-03  0.0000E+00  0.0000E+00
 39  0.0000E+00  4.2893E-03  2.3255E-02  0.0000E+00  0.0000E+00  0.0000E+00  0.0000E+00  0.0000E+00  3.0039E-03
 40  0.0000E+00  1.0040E-02  0.0000E+00  0.0000E+00  0.0000E+00  0.0000E+00  0.0000E+00  0.0000E+00  0.0000E+00
 41  0.0000E+00  1.1585E-02  6.0188E-03  0.0000E+00  0.0000E+00  0.0000E+00  0.0000E+00  0.0000E+00  4.4596E-02
 42  0.0000E+00  1.8296E-02  0.0000E+00  0.0000E+00  0.0000E+00  0.0000E+00  0.0000E+00  0.0000E+00  0.0000E+00
 43  4.2127E+00  2.4560E+00  2.3276E+00  2.6761E+00  2.7103E+00  2.4374E+00  2.6371E+00  2.3854E+00  2.9104E+00
 44  5.5696E+00  4.5699E+00  5.4524E+00  5.8137E+00  4.4610E+00  4.4983E+00  4.1122E+00  4.4822E+00  4.8310E+00
 45  4.2486E+00  3.8686E+00  4.1535E+00  3.7842E+00  3.3030E+00  4.0823E+00  3.8235E+00  4.8206E+00  3.0792E+00

# AV, chi2 & Mass for <> & i_chain = 1 ...  7 solutions
AV       1.9958      1.9868      1.9872      1.9875      1.9882      1.9903      1.9922      1.9893      1.9892
chi2 2.7685E+00  2.7992E+00  2.7929E+00  2.7915E+00  2.7945E+00  2.7882E+00  2.7873E+00  2.7893E+00  2.7905E+00
Mass 1.0643E-09  1.0550E-09  1.0617E-09  1.0604E-09  1.0528E-09  1.0589E-09  1.0554E-09  1.0598E-09  1.0527E-09
 -13.24                                  [v0_min (km/s) before EX0s...]
  43.47                                  [vd_min (km/s) before EX0s...]


## Synthetic spectrum (Best Model) ##l_obs f_obs f_syn wei
 3070    [Nl_obs]
 3359.00    0.24837   0.45832   -1.000
 3360.00    0.25076   0.43907   -1.000
 3361.00    0.23868   0.43892   -1.000
 3362.00    0.26236   0.45955   -1.000
 3363.00    0.26635   0.48702   -1.000
 3364.00    0.27369   0.50538   -1.000
 3365.00    0.33918   0.50637   -1.000
 3366.00    0.34598   0.49178   -1.000
 3367.00    0.31434   0.47069   -1.000
 3368.00    0.28694   0.45486   -1.000
 3369.00    0.30308   0.44893   -1.000
 3370.00    0.28769   0.44784   -1.000
 3371.00    0.29373   0.44596   -1.000
 3372.00    0.32818   0.44631   -1.000
 3373.00    0.31119   0.45733   -1.000
 3374.00    0.28853   0.47930   -1.000
 3375.00    0.31820   0.50636   -1.000
 3376.00    0.36080   0.52158   -1.000
 3377.00    0.36890   0.51538   -1.000
 3378.00    0.36445   0.49713   -1.000
 3379.00    0.36003   0.47873   -1.000
 3380.00    0.34140   0.47123   -1.000
 3381.00    0.33972   0.47763   -1.000
 3382.00    0.36704   0.49261   -1.000
 3383.00    0.36387   0.50535   -1.000
 3384.00    0.36102   0.51369   -1.000
 3385.00    0.35993   0.52243   -1.000
 3386.00    0.37381   0.52753   -1.000
 3387.00    0.34822   0.52671   -1.000
 3388.00    0.35646   0.52378   -1.000
 3389.00    0.35658   0.52117   -1.000
 3390.00    0.38086   0.51775   -1.000
 3391.00    0.38885   0.51079   -1.000
 3392.00    0.40259   0.50128   -1.000
 3393.00    0.38048   0.49831   -1.000
 3394.00    0.38365   0.50812   -1.000
 3395.00    0.39050   0.52491   -1.000
 3396.00    0.41581   0.54095   -1.000
 3397.00    0.43472   0.55355   -1.000
 3398.00    0.46292   0.55868   -1.000
 3399.00    0.43964   0.55444   -1.000
 3400.00    0.45186   0.54667   -1.000
 3401.00    0.47172   0.53786   -1.000
 3402.00    0.47045   0.52605   54.957
 3403.00    0.47287   0.51639   55.892
 3404.00    0.46737   0.51216   56.912
 3405.00    0.45299   0.50962   -1.000
 3406.00    0.43353   0.50474   -1.000
 3407.00    0.41634   0.50049   -1.000
 3408.00    0.43378   0.50047   -1.000
 3409.00    0.43275   0.50650   -1.000
 3410.00    0.45271   0.51355   -1.000
 3411.00    0.42685   0.51265   -1.000
 3412.00    0.46899   0.50492   59.118
 3413.00    0.45553   0.49577   60.316
 3414.00    0.43639   0.49290   -1.000
 3415.00    0.43082   0.49853   -1.000
 3416.00    0.43535   0.51000   -1.000
 3417.00    0.42511   0.52376   -1.000
 3418.00    0.43430   0.53798   -1.000
 3419.00    0.49473   0.55064   50.651
 3420.00    0.49085   0.55658   -1.000
 3421.00    0.50706   0.55336   50.577
 3422.00    0.50294   0.54502   51.985
 3423.00    0.48414   0.53781   53.188
 3424.00    0.47618   0.53553   51.845
 3425.00    0.47191   0.53705   -1.000
 3426.00    0.49527   0.54090   50.122
 3427.00    0.48696   0.54886   -1.000
 3428.00    0.48561   0.56403   -1.000
 3429.00    0.52575   0.57619   -1.000
 3430.00    0.50440   0.57545   -1.000
 3431.00    0.49191   0.56295   -1.000
 3432.00    0.47912   0.54725   -1.000
 3433.00    0.47615   0.53859   -1.000
 3434.00    0.48663   0.54046   -1.000
 3435.00    0.48710   0.54757   -1.000
 3436.00    0.48485   0.54922   -1.000
 3437.00    0.48560   0.54184   52.113
 3438.00    0.47338   0.52452   55.205
 3439.00    0.45581   0.50027   59.535
 3440.00    0.42185   0.47351   62.107
 3441.00    0.42887   0.45665   62.379
 3442.00    0.42173   0.45612   62.136
 3443.00    0.44980   0.46618   59.813
 3444.00    0.44675   0.47820   56.592
 3445.00    0.44934   0.48915   53.459
 3446.00    0.48099   0.50386   51.527
 3447.00    0.49584   0.52362   -1.000
 3448.00    0.48137   0.54381   -1.000
 3449.00    0.50210   0.55546   -1.000
 3450.00    0.54623   0.55240  432.084
 3451.00    0.51369   0.53923   -1.000
 3452.00    0.48607   0.52432   -1.000
 3453.00    0.48836   0.51906   -1.000
 3454.00    0.49036   0.52464   -1.000
 3455.00    0.49228   0.53300   -1.000
 3456.00    0.52507   0.53486   -1.000
 3457.00    0.53049   0.52477  432.084
 3458.00    0.51326   0.51052   53.815
 3459.00    0.48349   0.49883   50.728
 3460.00    0.49301   0.49058   50.457
 3461.00    0.46338   0.49247   -1.000
 3462.00    0.47646   0.50849   -1.000
 3463.00    0.50576   0.52590   -1.000
 3464.00    0.51396   0.53118   -1.000
 3465.00    0.53309   0.52941  432.084
 3466.00    0.53340   0.52771   -1.000
 3467.00    0.54622   0.53289   -1.000
 3468.00    0.56382   0.54232   -1.000
 3469.00    0.53359   0.55103   -1.000
 3470.00    0.55148   0.55375  427.147
 3471.00    0.53998   0.54718  432.084
 3472.00    0.54575   0.53375   -1.000
 3473.00    0.52993   0.51639   -1.000
 3474.00    0.49625   0.49646   54.030
 3475.00    0.48539   0.48325   52.289
 3476.00    0.48516   0.48473   51.330
 3477.00    0.47775   0.49747   -1.000
 3478.00    0.48302   0.51368   -1.000
 3479.00    0.52699   0.52739  430.495
 3480.00    0.53641   0.53499  427.211
 3481.00    0.57041   0.53519   -1.000
 3482.00    0.55547   0.52832   -1.000
 3483.00    0.53978   0.52065   -1.000
 3484.00    0.53212   0.52112   -1.000
 3485.00    0.51678   0.53343   -1.000
 3486.00    0.55620   0.55063  407.024
 3487.00    0.56059   0.55710  415.059
 3488.00    0.55464   0.54729   -1.000
 3489.00    0.56047   0.52743   -1.000
 3490.00    0.52045   0.51205   -1.000
 3491.00    0.49611   0.51039   -1.000
 3492.00    0.52180   0.51760  432.084
 3493.00    0.52867   0.52406   -1.000
 3494.00    0.49896   0.52333   -1.000
 3495.00    0.51482   0.51596  432.084
 3496.00    0.50662   0.50995  432.084
 3497.00    0.51066   0.51669  432.084
 3498.00    0.53317   0.53565  422.724
 3499.00    0.51327   0.55018   -1.000
 3500.00    0.55490   0.55361  395.839
 3501.00    0.57345   0.55552   -1.000
 3502.00    0.56740   0.56080  388.167
 3503.00    0.59538   0.56569   -1.000
 3504.00    0.58570   0.56205   -1.000
 3505.00    0.56539   0.55254   -1.000
 3506.00    0.55244   0.54619  407.354
 3507.00    0.56354   0.54550   -1.000
 3508.00    0.55495   0.54577   -1.000
 3509.00    0.54990   0.54094   -1.000
 3510.00    0.52506   0.53238  431.634
 3511.00    0.52775   0.52460  432.084
 3512.00    0.53841   0.51728   -1.000
 3513.00    0.53774   0.50845   -1.000
 3514.00    0.53603   0.50879   -1.000
 3515.00    0.53571   0.52381   -1.000
 3516.00    0.54267   0.54796  403.761
 3517.00    0.57186   0.56803  396.609
 3518.00    0.56381   0.57292   -1.000
 3519.00    0.55541   0.56266   -1.000
 3520.00    0.56878   0.54308   -1.000
 3521.00    0.54553   0.52476   -1.000
 3522.00    0.51456   0.51103  432.084
 3523.00    0.51143   0.49717   52.900
 3524.00    0.48772   0.48632   51.782
 3525.00    0.47285   0.48315   51.552
 3526.00    0.46762   0.49318   -1.000
 3527.00    0.49094   0.51544   -1.000
 3528.00    0.50800   0.53990   -1.000
 3529.00    0.52965   0.55580   -1.000
 3530.00    0.55122   0.56038   -1.000
 3531.00    0.54924   0.55826   -1.000
 3532.00    0.54302   0.55773   -1.000
 3533.00    0.56532   0.56252  415.973
 3534.00    0.56712   0.56997  407.187
 3535.00    0.58999   0.57483   -1.000
 3536.00    0.57598   0.57609  402.748
 3537.00    0.56420   0.57898   -1.000
 3538.00    0.60928   0.58631   -1.000
 3539.00    0.58195   0.59188   -1.000
 3540.00    0.57263   0.58909   -1.000
 3541.00    0.56761   0.58342   -1.000
 3542.00    0.57663   0.58446   -1.000
 3543.00    0.56555   0.59044   -1.000
 3544.00    0.58818   0.59686   -1.000
 3545.00    0.65195   0.59713   -1.000
 3546.00    0.59644   0.59216  414.208
 3547.00    0.58458   0.58816  416.147
 3548.00    0.57563   0.58751   -1.000
 3549.00    0.55683   0.58940   -1.000
 3550.00    0.54529   0.59047   -1.000
 3551.00    0.57807   0.58789   -1.000
 3552.00    0.56857   0.57977   -1.000
 3553.00    0.59702   0.57097   -1.000
 3554.00    0.54402   0.56681   -1.000
 3555.00    0.53125   0.56880   -1.000
 3556.00    0.54995   0.57250   -1.000
 3557.00    0.56179   0.57180   -1.000
 3558.00    0.56277   0.56740  432.084
 3559.00    0.53047   0.56553   -1.000
 3560.00    0.53035   0.57136   -1.000
 3561.00    0.54221   0.58381   -1.000
 3562.00    0.56185   0.59150   -1.000
 3563.00    0.54306   0.58035   -1.000
 3564.00    0.53372   0.54733   52.887
 3565.00    0.52114   0.51770   52.565
 3566.00    0.48774   0.50790   52.062
 3567.00    0.47085   0.50915   51.759
 3568.00    0.49059   0.50768   53.456
 3569.00    0.48434   0.49472   54.473
 3570.00    0.46449   0.48316   52.858
 3571.00    0.46221   0.48648   50.511
 3572.00    0.47739   0.49925   -1.000
 3573.00    0.50258   0.51111  432.084
 3574.00    0.51295   0.51696  432.084
 3575.00    0.52197   0.51924  432.084
 3576.00    0.50513   0.52162   -1.000
 3577.00    0.49455   0.51932   -1.000
 3578.00    0.50947   0.50774   54.471
 3579.00    0.46675   0.48755   56.277
 3580.00    0.48310   0.46799   59.417
 3581.00    0.44513   0.45724   59.898
 3582.00    0.43098   0.45865   60.148
 3583.00    0.44952   0.46525   61.631
 3584.00    0.43238   0.46323   63.656
 3585.00    0.44998   0.45400   64.594
 3586.00    0.44147   0.44912   61.448
 3587.00    0.43377   0.45439   58.171
 3588.00    0.45259   0.47122   55.351
 3589.00    0.46631   0.49511   50.451
 3590.00    0.48082   0.52045   -1.000
 3591.00    0.51899   0.53879   -1.000
 3592.00    0.53847   0.54505   -1.000
 3593.00    0.55044   0.54519  432.084
 3594.00    0.55002   0.54936  425.059
 3595.00    0.56557   0.56234  404.523
 3596.00    0.59621   0.57673   -1.000
 3597.00    0.58293   0.58797  382.165
 3598.00    0.59812   0.59751  375.800
 3599.00    0.60844   0.60295  380.062
 3600.00    0.61374   0.59911   -1.000
 3601.00    0.60898   0.58292   -1.000
 3602.00    0.57016   0.56044   -1.000
 3603.00    0.54567   0.54062  432.084
 3604.00    0.52466   0.53156  432.084
 3605.00    0.50085   0.53241   -1.000
 3606.00    0.51910   0.53316   -1.000
 3607.00    0.52551   0.52696  432.084
 3608.00    0.51310   0.51570  432.084
 3609.00    0.49438   0.51081   -1.000
 3610.00    0.50033   0.52042   -1.000
 3611.00    0.52094   0.53420   -1.000
 3612.00    0.55262   0.54393   -1.000
 3613.00    0.54916   0.55205  423.785
 3614.00    0.52322   0.56156   -1.000
 3615.00    0.56078   0.57016   -1.000
 3616.00    0.56816   0.56296  432.084
 3617.00    0.56106   0.53331   -1.000
 3618.00    0.51017   0.50745   51.425
 3619.00    0.47844   0.50641   -1.000
 3620.00    0.51516   0.52631   -1.000
 3621.00    0.55334   0.55332  403.120
 3622.00    0.55133   0.57410   -1.000
 3623.00    0.59898   0.58542   -1.000
 3624.00    0.59463   0.59646  374.026
 3625.00    0.61137   0.61541  358.313
 3626.00    0.63186   0.63600  352.873
 3627.00    0.62231   0.64861   -1.000
 3628.00    0.64012   0.63989  381.119
 3629.00    0.61832   0.60519   -1.000
 3630.00    0.55877   0.56250  432.084
 3631.00    0.52930   0.53449  432.084
 3632.00    0.52338   0.53104  432.084
 3633.00    0.52616   0.54418   -1.000
 3634.00    0.55089   0.55913   -1.000
 3635.00    0.56023   0.56723  412.005
 3636.00    0.58060   0.57186   -1.000
 3637.00    0.57827   0.58461  374.869
 3638.00    0.58603   0.60325   -1.000
 3639.00    0.60662   0.62023   -1.000
 3640.00    0.61464   0.62567   -1.000
 3641.00    0.63298   0.61679   -1.000
 3642.00    0.60551   0.59878  404.062
 3643.00    0.57787   0.57946  416.004
 3644.00    0.57924   0.56605   -1.000
 3645.00    0.57946   0.55785   -1.000
 3646.00    0.56563   0.54880   -1.000
 3647.00    0.56478   0.54227   -1.000
 3648.00    0.55303   0.54338   -1.000
 3649.00    0.54931   0.55248  408.942
 3650.00    0.55625   0.56871   -1.000
 3651.00    0.58962   0.58945  372.729
 3652.00    0.60233   0.60869  363.512
 3653.00    0.61947   0.62184  358.424
 3654.00    0.65006   0.62856   -1.000
 3655.00    0.65202   0.63338   -1.000
 3656.00    0.65250   0.64208  349.413
 3657.00    0.66665   0.65084   -1.000
 3658.00    0.64602   0.65551   -1.000
 3659.00    0.66723   0.65699  343.746
 3660.00    0.65703   0.65479  347.566
 3661.00    0.63633   0.64771   -1.000
 3662.00    0.62740   0.63768   -1.000
 3663.00    0.63617   0.62872  360.083
 3664.00    0.65380   0.62505   -1.000
 3665.00    0.64022   0.62634   -1.000
 3666.00    0.63087   0.62726  363.473
 3667.00    0.64680   0.62204   -1.000
 3668.00    0.61449   0.61100  376.622
 3669.00    0.61299   0.60602  374.205
 3670.00    0.60069   0.61354   -1.000
 3671.00    0.61161   0.62858   -1.000
 3672.00    0.64991   0.64030  351.599
 3673.00    0.65355   0.64310  351.518
 3674.00    0.66553   0.63868   -1.000
 3675.00    0.67283   0.62747   -1.000
 3676.00    0.65550   0.61211   -1.000
 3677.00    0.60740   0.59584   -1.000
 3678.00    0.58629   0.58185  395.860
 3679.00    0.58903   0.57512   -1.000
 3680.00    0.59603   0.57652   -1.000
 3681.00    0.60518   0.58561   -1.000
 3682.00    0.60830   0.59700   -1.000
 3683.00    0.61166   0.60349  378.868
 3684.00    0.63583   0.59802   -1.000
 3685.00    0.61549   0.57848   -1.000
 3686.00    0.59551   0.55876   -1.000
 3687.00    0.58008   0.55382   -1.000
 3688.00    0.57823   0.56866   -1.000
 3689.00    0.60859   0.59623   -1.000
 3690.00    0.64056   0.62327   -1.000
 3691.00    0.66504   0.63637   -1.000
 3692.00    0.67002   0.63478   -1.000
 3693.00    0.64829   0.62828   -1.000
 3694.00    0.63347   0.62253   -1.000
 3695.00    0.63894   0.61836   -1.000
 3696.00    0.65202   0.61818   -1.000
 3697.00    0.64773   0.62739   -1.000
 3698.00    0.67288   0.64621   -1.000
 3699.00    0.68726   0.66634   -1.000
 3700.00    0.69647   0.67521   -1.000
 3701.00    0.66629   0.66217  348.639
 3702.00    0.65306   0.62513   -1.000
 3703.00    0.61641   0.57876   -1.000
 3704.00    0.59129   0.54035   -1.000
 3705.00    0.56789   0.52351   -1.000
 3706.00    0.54876   0.52908   -1.000
 3707.00    0.56809   0.54250   -1.000
 3708.00    0.56212   0.55435   -1.000
 3709.00    0.56740   0.56248  388.642
 3710.00    0.59654   0.57105   -1.000
 3711.00    0.62929   0.58598   -1.000
 3712.00    0.65096   0.61139   -1.000
 3713.00    0.68603   0.63934   -1.000
 3714.00    0.70908   0.66130   -1.000
 3715.00    0.70071   0.67047   -1.000
 3716.00    0.69284   0.66235   -1.000
 3717.00    0.68031   0.63832   -1.000
 3718.00    0.64642   0.59736   -1.000
 3719.00    0.56717   0.53970   -1.000
 3720.00    0.51784   0.49183   51.171
 3721.00    0.49439   0.47615   -1.000
 3722.00    0.50483   0.49380   -1.000
 3723.00    0.57606   0.53638   -1.000
 3724.00    0.63885   0.58429   -1.000
 3725.00    0.66511   0.61222   -1.000
 3726.00    0.64696   0.61609   -1.000
 3727.00    0.62624   0.61605   -1.000
 3728.00    0.62153   0.62107  373.066
 3729.00    0.64579   0.62502   -1.000
 3730.00    0.62723   0.61561   -1.000
 3731.00    0.61892   0.58237   -1.000
 3732.00    0.58169   0.53224   50.078
 3733.00    0.49284   0.48073   55.952
 3734.00    0.46710   0.44218   58.027
 3735.00    0.45834   0.43272   55.090
 3736.00    0.44695   0.45480   49.876
 3737.00    0.46839   0.49929   -1.000
 3738.00    0.53387   0.55525   -1.000
 3739.00    0.58575   0.60660   -1.000
 3740.00    0.63074   0.63559  371.753
 3741.00    0.62998   0.63950   -1.000
 3742.00    0.62206   0.62307  411.608
 3743.00    0.58722   0.59484  432.084
 3744.00    0.57441   0.56762   -1.000
 3745.00    0.54323   0.54610  432.084
 3746.00    0.51058   0.52350   50.635
 3747.00    0.49397   0.49463   53.919
 3748.00    0.50276   0.46145   54.495
 3749.00    0.46273   0.44608   -1.000
 3750.00    0.48308   0.46624   -1.000
 3751.00    0.54447   0.51406   -1.000
 3752.00    0.59116   0.56975   -1.000
 3753.00    0.62387   0.62112  338.542
 3754.00    0.66153   0.65658  332.155
 3755.00    0.70769   0.66538   -1.000
 3756.00    0.68748   0.64491   -1.000
 3757.00    0.63303   0.60722   -1.000
 3758.00    0.57874   0.57560  432.084
 3759.00    0.56555   0.56794  412.664
 3760.00    0.58507   0.57959  393.898
 3761.00    0.59587   0.59444  385.933
 3762.00    0.61121   0.60545  382.900
 3763.00    0.61441   0.61160  379.168
 3764.00    0.60944   0.61173  384.901
 3765.00    0.61502   0.60370   -1.000
 3766.00    0.62484   0.59053   -1.000
 3767.00    0.61116   0.57691   -1.000
 3768.00    0.60827   0.56246   -1.000
 3769.00    0.61531   0.54801   -1.000
 3770.00    0.60438   0.54022   -1.000
 3771.00    0.62439   0.55207   -1.000
 3772.00    0.66502   0.58426   -1.000
 3773.00    0.68793   0.61708   -1.000
 3774.00    0.70425   0.63792   -1.000
 3775.00    0.68494   0.65139   -1.000
 3776.00    0.68166   0.66247   -1.000
 3777.00    0.70312   0.67587   -1.000
 3778.00    0.70595   0.69146   -1.000
 3779.00    0.71927   0.70669   -1.000
 3780.00    0.75262   0.71969   -1.000
 3781.00    0.74882   0.72787   -1.000
 3782.00    0.74973   0.73233   -1.000
 3783.00    0.75691   0.73092   -1.000
 3784.00    0.74248   0.71797   -1.000
 3785.00    0.71344   0.69216   -1.000
 3786.00    0.65932   0.66265  385.324
 3787.00    0.65461   0.63910   -1.000
 3788.00    0.64643   0.62736   -1.000
 3789.00    0.61388   0.62613   -1.000
 3790.00    0.61801   0.63010   -1.000
 3791.00    0.63235   0.63116  386.929
 3792.00    0.61913   0.62126  401.821
 3793.00    0.62032   0.60128   -1.000
 3794.00    0.62181   0.57560   -1.000
 3795.00    0.60523   0.54786   -1.000
 3796.00    0.56629   0.51719   -1.000
 3797.00    0.55049   0.48512   -1.000
 3798.00    0.50655   0.47509   -1.000
 3799.00    0.55338   0.50364   -1.000
 3800.00    0.58738   0.55607   -1.000
 3801.00    0.62669   0.61175   -1.000
 3802.00    0.66048   0.65484  353.283
 3803.00    0.69502   0.67833   -1.000
 3804.00    0.69523   0.68532  357.254
 3805.00    0.66526   0.67707   -1.000
 3806.00    0.65760   0.66331  377.842
 3807.00    0.64543   0.66329   -1.000
 3808.00    0.64259   0.68043   -1.000
 3809.00    0.67109   0.70231   -1.000
 3810.00    0.69198   0.71276   -1.000
 3811.00    0.69257   0.70292   -1.000
 3812.00    0.69623   0.67679   -1.000
 3813.00    0.65654   0.64313   -1.000
 3814.00    0.59226   0.61442   -1.000
 3815.00    0.55811   0.60364   -1.000
 3816.00    0.56187   0.61088   -1.000
 3817.00    0.59037   0.61808   -1.000
 3818.00    0.59640   0.60971   -1.000
 3819.00    0.57413   0.58608   -1.000
 3820.00    0.54112   0.56776   -1.000
 3821.00    0.52533   0.57263   -1.000
 3822.00    0.56160   0.58703   -1.000
 3823.00    0.56183   0.58684   -1.000
 3824.00    0.53727   0.56869   52.352
 3825.00    0.49706   0.54692   53.429
 3826.00    0.47804   0.53412   52.923
 3827.00    0.49003   0.53184   52.056
 3828.00    0.49134   0.53415   51.232
 3829.00    0.49983   0.53298   51.946
 3830.00    0.49020   0.52395   54.411
 3831.00    0.46908   0.50402   58.789
 3832.00    0.47919   0.47559   60.448
 3833.00    0.46306   0.44377   59.153
 3834.00    0.47373   0.42202   -1.000
 3835.00    0.47755   0.41938   -1.000
 3836.00    0.45826   0.43051   56.844
 3837.00    0.46119   0.44524   58.169
 3838.00    0.46144   0.45978   57.012
 3839.00    0.45424   0.47953   54.989
 3840.00    0.48387   0.51153   -1.000
 3841.00    0.53625   0.55323   -1.000
 3842.00    0.57316   0.59628   -1.000
 3843.00    0.59825   0.63147   -1.000
 3844.00    0.61616   0.65066   -1.000
 3845.00    0.63575   0.66032   -1.000
 3846.00    0.63563   0.66813   -1.000
 3847.00    0.63968   0.67404   -1.000
 3848.00    0.63959   0.67126   -1.000
 3849.00    0.62213   0.66469   -1.000
 3850.00    0.62120   0.66337   -1.000
 3851.00    0.60136   0.67103   -1.000
 3852.00    0.59804   0.68161   -1.000
 3853.00    0.64063   0.68197   -1.000
 3854.00    0.62585   0.66889   -1.000
 3855.00    0.59842   0.65249   -1.000
 3856.00    0.58264   0.63703   -1.000
 3857.00    0.57095   0.62014   49.639
 3858.00    0.55417   0.60324   52.684
 3859.00    0.50664   0.59553   -1.000
 3860.00    0.52837   0.60734   -1.000
 3861.00    0.54840   0.63510   -1.000
 3862.00    0.60701   0.66546   -1.000
 3863.00    0.63307   0.67961   -1.000
 3864.00    0.65238   0.67882   -1.000
 3865.00    0.62571   0.67471   -1.000
 3866.00    0.64039   0.67176   -1.000
 3867.00    0.65499   0.67212   -1.000
 3868.00    0.62137   0.67127   -1.000
 3869.00    0.60948   0.66122   -1.000
 3870.00    0.59143   0.64114   51.731
 3871.00    0.55680   0.61907   -1.000
 3872.00    0.55406   0.60942   -1.000
 3873.00    0.57385   0.62107   -1.000
 3874.00    0.59228   0.64999   -1.000
 3875.00    0.64257   0.66956   -1.000
 3876.00    0.65816   0.66228  432.084
 3877.00    0.60126   0.63966   -1.000
 3878.00    0.58602   0.62337   -1.000
 3879.00    0.56307   0.62149   -1.000
 3880.00    0.58119   0.62636   -1.000
 3881.00    0.58136   0.62765   -1.000
 3882.00    0.56413   0.62478   -1.000
 3883.00    0.58492   0.62095   -1.000
 3884.00    0.59313   0.60923   -1.000
 3885.00    0.60054   0.58024   -1.000
 3886.00    0.58675   0.53754   -1.000
 3887.00    0.56855   0.50119   -1.000
 3888.00    0.55983   0.48563   -1.000
 3889.00    0.57035   0.50066   -1.000
 3890.00    0.60463   0.54308   -1.000
 3891.00    0.63820   0.59708   -1.000
 3892.00    0.69175   0.63577   -1.000
 3893.00    0.71622   0.64995   -1.000
 3894.00    0.69171   0.65336   -1.000
 3895.00    0.68789   0.66091   -1.000
 3896.00    0.71827   0.67567   -1.000
 3897.00    0.73487   0.68683   -1.000
 3898.00    0.71852   0.68890   -1.000
 3899.00    0.70309   0.68892   -1.000
 3900.00    0.71288   0.69438   -1.000
 3901.00    0.72467   0.70174   -1.000
 3902.00    0.74406   0.70276   -1.000
 3903.00    0.72557   0.69342   -1.000
 3904.00    0.67558   0.68024  364.716
 3905.00    0.66244   0.67459   -1.000
 3906.00    0.67194   0.68293  338.659
 3907.00    0.68606   0.70690   -1.000
 3908.00    0.73350   0.73772  309.373
 3909.00    0.77314   0.75872   -1.000
 3910.00    0.76930   0.76917  303.802
 3911.00    0.77731   0.77575  302.274
 3912.00    0.79400   0.77674   -1.000
 3913.00    0.77771   0.77120  312.629
 3914.00    0.77104   0.76296  319.881
 3915.00    0.76048   0.75454  323.853
 3916.00    0.76004   0.74734   -1.000
 3917.00    0.74572   0.73766   -1.000
 3918.00    0.71801   0.72128  353.699
 3919.00    0.69897   0.70105  370.276
 3920.00    0.68664   0.68302  377.089
 3921.00    0.66005   0.67554   -1.000
 3922.00    0.64496   0.67962   -1.000
 3923.00    0.66704   0.68645   -1.000
 3924.00    0.67945   0.68496  390.386
 3925.00    0.66705   0.66977  429.195
 3926.00    0.61636   0.64127   -1.000
 3927.00    0.55352   0.60210   55.797
 3928.00    0.50373   0.55941   65.428
 3929.00    0.43923   0.51743   -1.000
 3930.00    0.38776   0.47198   -1.000
 3931.00    0.34301   0.42578   -1.000
 3932.00    0.29284   0.38043   -1.000
 3933.00    0.27309   0.35288   -1.000
 3934.00    0.28884   0.36222   -1.000
 3935.00    0.30543   0.40262   -1.000
 3936.00    0.34695   0.45450   -1.000
 3937.00    0.40775   0.51003   -1.000
 3938.00    0.48014   0.56072   -1.000
 3939.00    0.52306   0.60284   -1.000
 3940.00    0.55963   0.63501   -1.000
 3941.00    0.59113   0.65158   -1.000
 3942.00    0.58897   0.65644   -1.000
 3943.00    0.62326   0.65686   -1.000
 3944.00    0.63043   0.66387   -1.000
 3945.00    0.66871   0.68225   -1.000
 3946.00    0.70311   0.70188  341.073
 3947.00    0.73072   0.71359   -1.000
 3948.00    0.71618   0.72198  325.445
 3949.00    0.72942   0.73366  315.484
 3950.00    0.76247   0.74333   -1.000
 3951.00    0.76933   0.74490   -1.000
 3952.00    0.75222   0.74491  315.499
 3953.00    0.76031   0.75009   -1.000
 3954.00    0.76814   0.75530   -1.000
 3955.00    0.77078   0.74984   -1.000
 3956.00    0.76411   0.73799   -1.000
 3957.00    0.74847   0.73283   -1.000
 3958.00    0.75911   0.73150   -1.000
 3959.00    0.73190   0.71717   -1.000
 3960.00    0.69701   0.68169   -1.000
 3961.00    0.63870   0.63579  432.084
 3962.00    0.58180   0.59833   -1.000
 3963.00    0.53907   0.57094   52.572
 3964.00    0.50474   0.54071   61.909
 3965.00    0.45017   0.49516   76.447
 3966.00    0.37945   0.42904   -1.000
 3967.00    0.31597   0.36423   -1.000
 3968.00    0.28707   0.32416   93.303
 3969.00    0.29922   0.32093   76.758
 3970.00    0.34415   0.35397   63.136
 3971.00    0.40324   0.41259   56.440
 3972.00    0.45778   0.47852   -1.000
 3973.00    0.50683   0.54369   -1.000
 3974.00    0.58191   0.60322   -1.000
 3975.00    0.65372   0.65348  337.194
 3976.00    0.69906   0.69682  317.599
 3977.00    0.74960   0.73294   -1.000
 3978.00    0.78278   0.76697   -1.000
 3979.00    0.81055   0.79334   -1.000
 3980.00    0.82830   0.80463   -1.000
 3981.00    0.84371   0.80303   -1.000
 3982.00    0.83721   0.79779   -1.000
 3983.00    0.82362   0.80025   -1.000
 3984.00    0.84069   0.81115   -1.000
 3985.00    0.86309   0.82279   -1.000
 3986.00    0.86261   0.83339   -1.000
 3987.00    0.88367   0.84516   -1.000
 3988.00    0.90298   0.85669   -1.000
 3989.00    0.89616   0.86357   -1.000
 3990.00    0.89431   0.86873   -1.000
 3991.00    0.90537   0.87731   -1.000
 3992.00    0.92380   0.88743   -1.000
 3993.00    0.93947   0.89048   -1.000
 3994.00    0.92337   0.88204   -1.000
 3995.00    0.90915   0.86619   -1.000
 3996.00    0.89638   0.85167   -1.000
 3997.00    0.87320   0.84856   -1.000
 3998.00    0.88453   0.85925   -1.000
 3999.00    0.89927   0.87736   -1.000
 4000.00    0.94278   0.89752   -1.000
 4001.00    0.97955   0.91185   -1.000
 4002.00    0.98475   0.91287   -1.000
 4003.00    0.96965   0.89634   -1.000
 4004.00    0.94074   0.86553   -1.000
 4005.00    0.87898   0.83806   -1.000
 4006.00    0.86355   0.83886   -1.000
 4007.00    0.90171   0.86475   -1.000
 4008.00    0.94541   0.89478   -1.000
 4009.00    0.95756   0.91414   -1.000
 4010.00    0.95899   0.92310   -1.000
 4011.00    0.97715   0.92720   -1.000
 4012.00    1.00556   0.92981   -1.000
 4013.00    0.97765   0.93328   -1.000
 4014.00    0.99464   0.93676   -1.000
 4015.00    1.00226   0.93789   -1.000
 4016.00    1.00237   0.93667   -1.000
 4017.00    1.00829   0.93693   -1.000
 4018.00    0.99744   0.94276   -1.000
 4019.00    1.02395   0.94985   -1.000
 4020.00    1.02991   0.95365   -1.000
 4021.00    1.01181   0.95156   -1.000
 4022.00    1.00680   0.94646   -1.000
 4023.00    0.99371   0.93759   -1.000
 4024.00    0.98835   0.92790   -1.000
 4025.00    1.00000   0.92817   -1.000
 4026.00    1.02331   0.94329   -1.000
 4027.00    1.05114   0.96261   -1.000
 4028.00    1.06906   0.96293   -1.000
 4029.00    1.03068   0.93761   -1.000
 4030.00    0.97032   0.90107   -1.000
 4031.00    0.92016   0.87037   -1.000
 4032.00    0.91150   0.85710   -1.000
 4033.00    0.92949   0.86169   -1.000
 4034.00    0.93587   0.88258   -1.000
 4035.00    0.95347   0.91566   -1.000
 4036.00    1.00729   0.95646   -1.000
 4037.00    1.06001   0.99220   -1.000
 4038.00    1.06459   1.00526   -1.000
 4039.00    1.05609   0.99539   -1.000
 4040.00    1.04330   0.98211   -1.000
 4041.00    1.03585   0.97364   -1.000
 4042.00    1.02203   0.95931   -1.000
 4043.00    0.98423   0.92279   -1.000
 4044.00    0.90507   0.86672   -1.000
 4045.00    0.84817   0.83192   -1.000
 4046.00    0.86460   0.84201   -1.000
 4047.00    0.92646   0.88655   -1.000
 4048.00    0.99747   0.93877   -1.000
 4049.00    1.02044   0.97604   -1.000
 4050.00    1.03740   0.99188   -1.000
 4051.00    1.04320   0.99090   -1.000
 4052.00    1.02476   0.97782   -1.000
 4053.00    1.00532   0.95975   -1.000
 4054.00    0.98720   0.94789   -1.000
 4055.00    0.96713   0.94084   -1.000
 4056.00    0.96601   0.93257   -1.000
 4057.00    0.96920   0.92859   -1.000
 4058.00    0.98004   0.93648   -1.000
 4059.00    0.99384   0.95484   -1.000
 4060.00    1.00999   0.96450   -1.000
 4061.00    1.01467   0.94557   -1.000
 4062.00    0.97341   0.90654   -1.000
 4063.00    0.90624   0.87071   -1.000
 4064.00    0.89216   0.85798   -1.000
 4065.00    0.92091   0.86792   -1.000
 4066.00    0.94133   0.89053   -1.000
 4067.00    0.97633   0.91543   -1.000
 4068.00    1.01276   0.93600   -1.000
 4069.00    1.02554   0.93918   -1.000
 4070.00    1.01808   0.91981   -1.000
 4071.00    0.97786   0.89651   -1.000
 4072.00    0.95972   0.89322   -1.000
 4073.00    0.98957   0.90946   -1.000
 4074.00    0.99240   0.91806   -1.000
 4075.00    0.94114   0.90167   -1.000
 4076.00    0.89691   0.87261   -1.000
 4077.00    0.85812   0.85552  273.405
 4078.00    0.86458   0.86733  254.269
 4079.00    0.92769   0.90439   -1.000
 4080.00    0.99189   0.94785   -1.000
 4081.00    1.03566   0.97042   -1.000
 4082.00    1.01587   0.96543   -1.000
 4083.00    0.98930   0.94615   -1.000
 4084.00    0.99327   0.93437   -1.000
 4085.00    0.99861   0.94308   -1.000
 4086.00    1.02256   0.96769   -1.000
 4087.00    1.05003   0.99619   -1.000
 4088.00    1.08672   1.01331   -1.000
 4089.00    1.10342   1.01288   -1.000
 4090.00    1.10728   1.00010   -1.000
 4091.00    1.09236   0.98789   -1.000
 4092.00    1.07267   0.98070   -1.000
 4093.00    1.05625   0.97152   -1.000
 4094.00    1.03971   0.95418   -1.000
 4095.00    1.01307   0.92624   -1.000
 4096.00    0.96615   0.89676   -1.000
 4097.00    0.94820   0.86948   -1.000
 4098.00    0.94556   0.83686   -1.000
 4099.00    0.90788   0.78833   -1.000
 4100.00    0.84319   0.72793   -1.000
 4101.00    0.80461   0.68741   -1.000
 4102.00    0.78435   0.69294   -1.000
 4103.00    0.83464   0.74380   -1.000
 4104.00    0.91664   0.81607   -1.000
 4105.00    0.96287   0.87551   -1.000
 4106.00    0.99511   0.91066   -1.000
 4107.00    1.01375   0.92981   -1.000
 4108.00    1.01831   0.93576   -1.000
 4109.00    0.99804   0.93539   -1.000
 4110.00    0.99164   0.93823   -1.000
 4111.00    0.99117   0.94671   -1.000
 4112.00    0.99520   0.95959   -1.000
 4113.00    1.02698   0.97546   -1.000
 4114.00    1.06120   0.99322   -1.000
 4115.00    1.05801   1.00440   -1.000
 4116.00    1.04462   1.00361   -1.000
 4117.00    1.03832   0.99226   -1.000
 4118.00    1.02593   0.97817   -1.000
 4119.00    1.01506   0.96927   -1.000
 4120.00    1.01584   0.97011   -1.000
 4121.00    1.02053   0.97630   -1.000
 4122.00    1.03059   0.98246   -1.000
 4123.00    1.03154   0.99012   -1.000
 4124.00    1.04040   1.00021   -1.000
 4125.00    1.04646   1.00655   -1.000
 4126.00    1.03634   1.00168   -1.000
 4127.00    1.02271   0.98980   -1.000
 4128.00    1.02487   0.98079   -1.000
 4129.00    1.01671   0.97592   -1.000
 4130.00    0.99628   0.96453   -1.000
 4131.00    0.97149   0.94363   -1.000
 4132.00    0.94450   0.92558   -1.000
 4133.00    0.92727   0.92597  260.469
 4134.00    0.95052   0.94893  247.624
 4135.00    1.00175   0.98293   -1.000
 4136.00    1.03121   1.01567  236.403
 4137.00    1.06899   1.03765   -1.000
 4138.00    1.08679   1.05142   -1.000
 4139.00    1.08610   1.05513   -1.000
 4140.00    1.07664   1.03889   -1.000
 4141.00    1.04145   1.00040   -1.000
 4142.00    0.97463   0.95521   -1.000
 4143.00    0.92805   0.92504  272.595
 4144.00    0.93118   0.93119  256.626
 4145.00    0.97692   0.96574  248.000
 4146.00    1.02023   0.99932   -1.000
 4147.00    1.03741   1.01339   -1.000
 4148.00    1.02991   1.01056   -1.000
 4149.00    1.03065   1.00674   -1.000
 4150.00    1.01186   1.00917  258.852
 4151.00    1.01305   1.01103  257.812
 4152.00    1.00945   1.00504  260.574
 4153.00    0.97727   0.99153   -1.000
 4154.00    1.00985   0.98068   -1.000
 4155.00    1.20693   0.98143   -1.000
 4156.00    1.28307   0.99278   -1.000
 4157.00    0.85994   1.00936   -1.000
 4158.00    0.76322   1.02851   -1.000
 4159.00    1.02392   1.04506   -1.000
 4160.00    1.08542   1.05592   -1.000
 4161.00    1.06835   1.06402  238.128
 4162.00    1.07373   1.07171  239.981
 4163.00    1.09301   1.07688  244.010
 4164.00    1.07991   1.07458  247.850
 4165.00    1.05171   1.06149   -1.000
 4166.00    1.02158   1.04340   -1.000
 4167.00    1.01482   1.03136   -1.000
 4168.00    1.02401   1.03057  250.317
 4169.00    1.03124   1.03054  254.572
 4170.00    1.02852   1.01457  270.370
 4171.00    0.99964   0.98292   -1.000
 4172.00    0.95436   0.95153  284.009
 4173.00    0.92244   0.94385   -1.000
 4174.00    0.94112   0.96193   -1.000
 4175.00    0.98331   0.98590  264.929
 4176.00    0.99957   0.99896  266.248
 4177.00    0.97492   1.00611   -1.000
 4178.00    0.96873   1.01734   -1.000
 4179.00    0.99971   1.02979   -1.000
 4180.00    1.01252   1.03180   -1.000
 4181.00    1.01088   1.02359   -1.000
 4182.00    0.99933   1.01903   -1.000
 4183.00    1.01858   1.02717   -1.000
 4184.00    1.04404   1.03787  247.664
 4185.00    1.04350   1.03501  256.251
 4186.00    1.02086   1.01909  262.375
 4187.00    0.99366   1.00463   -1.000
 4188.00    0.98749   1.00399   -1.000
 4189.00    1.01542   1.01465  252.126
 4190.00    1.04262   1.02687  248.421
 4191.00    1.03240   1.03977   -1.000
 4192.00    1.05161   1.05423  241.297
 4193.00    1.08002   1.06169   -1.000
 4194.00    1.06865   1.05232  262.327
 4195.00    1.02047   1.02653   -1.000
 4196.00    0.97796   0.99539   -1.000
 4197.00    0.96221   0.97091   -1.000
 4198.00    0.94894   0.95549   -1.000
 4199.00    0.95191   0.94807  267.080
 4200.00    0.97741   0.95002   -1.000
 4201.00    0.98266   0.95854   -1.000
 4202.00    0.98241   0.97128  260.301
 4203.00    0.98750   0.99061  258.114
 4204.00    1.00195   1.01535   -1.000
 4205.00    1.02563   1.04007   -1.000
 4206.00    1.04034   1.06180   -1.000
 4207.00    1.06947   1.07656  241.479
 4208.00    1.08275   1.08092  242.382
 4209.00    1.07045   1.07744  241.645
 4210.00    1.06748   1.07499   -1.000
 4211.00    1.06162   1.08001   -1.000
 4212.00    1.07412   1.08337   -1.000
 4213.00    1.06601   1.07041  262.470
 4214.00    1.01332   1.04352   -1.000
 4215.00    0.98366   1.02115   -1.000
 4216.00    0.98161   1.01862   -1.000
 4217.00    1.01961   1.04079   -1.000
 4218.00    1.08071   1.07416  224.825
 4219.00    1.11662   1.09876   -1.000
 4220.00    1.13158   1.10644   -1.000
 4221.00    1.14131   1.09454   -1.000
 4222.00    1.12415   1.05957   -1.000
 4223.00    1.06346   1.00062   -1.000
 4224.00    0.97737   0.92906   -1.000
 4225.00    0.88792   0.86504   -1.000
 4226.00    0.80924   0.83564   -1.000
 4227.00    0.80569   0.86234   -1.000
 4228.00    0.90201   0.93565   -1.000
 4229.00    1.01169   1.00682  232.916
 4230.00    1.08300   1.04683   -1.000
 4231.00    1.10240   1.05481   -1.000
 4232.00    1.08846   1.04397   -1.000
 4233.00    1.07585   1.02942   -1.000
 4234.00    1.06324   1.01770   -1.000
 4235.00    1.05145   1.00984   -1.000
 4236.00    1.03766   1.00701   -1.000
 4237.00    1.02162   1.01290  247.472
 4238.00    1.03568   1.02891  243.890
 4239.00    1.03823   1.04802  239.311
 4240.00    1.05546   1.06484  236.454
 4241.00    1.09167   1.07750  235.089
 4242.00    1.10049   1.08916  230.764
 4243.00    1.11564   1.10324  226.847
 4244.00    1.13166   1.11503   -1.000
 4245.00    1.13466   1.11206   -1.000
 4246.00    1.12219   1.08792   -1.000
 4247.00    1.08099   1.05337   -1.000
 4248.00    1.03654   1.02612  257.665
 4249.00    1.01079   1.01621  256.225
 4250.00    1.02747   1.02392  248.527
 4251.00    1.05063   1.03870  242.707
 4252.00    1.06511   1.04779   -1.000
 4253.00    1.06239   1.03933   -1.000
 4254.00    1.04582   1.02619   -1.000
 4255.00    1.03569   1.03404  237.236
 4256.00    1.06001   1.05793  237.168
 4257.00    1.08180   1.06925  247.402
 4258.00    1.08674   1.05004   -1.000
 4259.00    1.04773   1.01526   -1.000
 4260.00    0.99400   1.00037  252.751
 4261.00    1.01114   1.02262   -1.000
 4262.00    1.04744   1.07017   -1.000
 4263.00    1.09733   1.11345   -1.000
 4264.00    1.14273   1.13732  222.848
 4265.00    1.15852   1.14043   -1.000
 4266.00    1.15478   1.13020   -1.000
 4267.00    1.12406   1.11046  242.289
 4268.00    1.08852   1.07953  252.685
 4269.00    1.07118   1.03692   -1.000
 4270.00    1.01938   0.99119   -1.000
 4271.00    0.96109   0.95447  285.202
 4272.00    0.94035   0.93970  278.271
 4273.00    0.94318   0.94825  270.402
 4274.00    0.97467   0.97160  257.169
 4275.00    1.00053   1.00810  240.912
 4276.00    1.04726   1.05656  231.539
 4277.00    1.10411   1.09717  233.386
 4278.00    1.13066   1.10954   -1.000
 4279.00    1.10374   1.09506  251.271
 4280.00    1.05992   1.07626   -1.000
 4281.00    1.04110   1.06993   -1.000
 4282.00    1.05177   1.07526   -1.000
 4283.00    1.06395   1.07584   -1.000
 4284.00    1.06100   1.06599  257.504
 4285.00    1.03746   1.05289   -1.000
 4286.00    1.00615   1.03815   -1.000
 4287.00    0.98495   1.02000   -1.000
 4288.00    0.98155   0.99205  291.384
 4289.00    0.94107   0.96128   -1.000
 4290.00    0.91328   0.95325   -1.000
 4291.00    0.94237   0.97713   -1.000
 4292.00    1.00441   1.01203  254.096
 4293.00    1.05112   1.03378   -1.000
 4294.00    1.04021   1.03229  261.651
 4295.00    1.04323   1.01582   -1.000
 4296.00    1.00031   0.99020   -1.000
 4297.00    0.94448   0.95391  309.087
 4298.00    0.89672   0.90717  329.041
 4299.00    0.82644   0.86756   -1.000
 4300.00    0.79901   0.84892   -1.000
 4301.00    0.80606   0.85047   -1.000
 4302.00    0.82906   0.86170   -1.000
 4303.00    0.84876   0.87688   -1.000
 4304.00    0.85582   0.89063   -1.000
 4305.00    0.87076   0.89079   -1.000
 4306.00    0.85357   0.87072   -1.000
 4307.00    0.81284   0.84179   -1.000
 4308.00    0.78581   0.82426   -1.000
 4309.00    0.79407   0.83476   -1.000
 4310.00    0.82237   0.86932   -1.000
 4311.00    0.86991   0.91097   -1.000
 4312.00    0.91149   0.95445   -1.000
 4313.00    0.95680   1.00653   -1.000
 4314.00    1.02016   1.06907   -1.000
 4315.00    1.09862   1.14035   -1.000
 4316.00    1.18777   1.20213   -1.000
 4317.00    1.26828   1.23819   -1.000
 4318.00    1.26835   1.24405   -1.000
 4319.00    1.23733   1.23156  219.010
 4320.00    1.22731   1.20902   -1.000
 4321.00    1.20369   1.17089   -1.000
 4322.00    1.13414   1.11224   -1.000
 4323.00    1.06974   1.04230   -1.000
 4324.00    0.99302   0.98670  285.170
 4325.00    0.94553   0.97274   -1.000
 4326.00    0.97352   1.01138   -1.000
 4327.00    1.07050   1.08660   -1.000
 4328.00    1.16400   1.15302  219.055
 4329.00    1.22720   1.18705   -1.000
 4330.00    1.21132   1.19437  218.097
 4331.00    1.20223   1.19620  214.391
 4332.00    1.21679   1.20400  212.577
 4333.00    1.23577   1.21003   -1.000
 4334.00    1.23402   1.20323   -1.000
 4335.00    1.21969   1.17076   -1.000
 4336.00    1.17781   1.10374   -1.000
 4337.00    1.11064   1.00788   -1.000
 4338.00    1.01092   0.91459   -1.000
 4339.00    0.92163   0.85332   -1.000
 4340.00    0.88983   0.84568   -1.000
 4341.00    0.93636   0.89600   -1.000
 4342.00    1.00917   0.97997   -1.000
 4343.00    1.08345   1.05418   -1.000
 4344.00    1.13555   1.10565   -1.000
 4345.00    1.18035   1.14286   -1.000
 4346.00    1.20110   1.17314   -1.000
 4347.00    1.20779   1.20028  215.973
 4348.00    1.23976   1.21660   -1.000
 4349.00    1.24665   1.20602   -1.000
 4350.00    1.20075   1.16454   -1.000
 4351.00    1.11377   1.11757  247.854
 4352.00    1.07298   1.09890   -1.000
 4353.00    1.11220   1.11837  226.633
 4354.00    1.15061   1.15989  220.228
 4355.00    1.19262   1.19484  216.560
 4356.00    1.21884   1.21325  217.703
 4357.00    1.24192   1.21888   -1.000
 4358.00    1.23679   1.21689   -1.000
 4359.00    1.20570   1.21648   -1.000
 4360.00    1.20558   1.22787   -1.000
 4361.00    1.23937   1.24860  210.668
 4362.00    1.26975   1.26628  209.613
 4363.00    1.28335   1.27910  207.534
 4364.00    1.28874   1.28888  208.623
 4365.00    1.29101   1.28568  215.701
 4366.00    1.25708   1.26398  222.725
 4367.00    1.21752   1.23800   -1.000
 4368.00    1.20348   1.22002   -1.000
 4369.00    1.21258   1.21028  220.622
 4370.00    1.22419   1.20377   -1.000
 4371.00    1.22845   1.19392   -1.000
 4372.00    1.21945   1.17541   -1.000
 4373.00    1.18200   1.14871   -1.000
 4374.00    1.13303   1.12527  239.460
 4375.00    1.11731   1.12463  228.621
 4376.00    1.14791   1.15308  218.369
 4377.00    1.19611   1.18968  215.826
 4378.00    1.24133   1.21340   -1.000
 4379.00    1.24666   1.21288   -1.000
 4380.00    1.22407   1.18300   -1.000
 4381.00    1.18311   1.12133   -1.000
 4382.00    1.10834   1.04158   -1.000
 4383.00    1.00522   0.97620   -1.000
 4384.00    0.95480   0.96912   -1.000
 4385.00    1.01907   1.02191  235.395
 4386.00    1.10184   1.08859  229.939
 4387.00    1.16705   1.12969   -1.000
 4388.00    1.17960   1.14144   -1.000
 4389.00    1.16384   1.14339   -1.000
 4390.00    1.16616   1.14922   -1.000
 4391.00    1.18473   1.16399   -1.000
 4392.00    1.21278   1.18121   -1.000
 4393.00    1.21765   1.18736   -1.000
 4394.00    1.20261   1.18672  227.603
 4395.00    1.19472   1.19746  217.348
 4396.00    1.22283   1.22357  212.973
 4397.00    1.25768   1.24386  217.395
 4398.00    1.25504   1.23963   -1.000
 4399.00    1.23206   1.21973  230.316
 4400.00    1.19718   1.20282  226.797
 4401.00    1.20032   1.19616  224.825
 4402.00    1.21656   1.18640   -1.000
 4403.00    1.19952   1.15723   -1.000
 4404.00    1.13707   1.12186  245.658
 4405.00    1.11239   1.10831  237.730
 4406.00    1.12063   1.12297  234.814
 4407.00    1.15199   1.15032  231.433
 4408.00    1.15896   1.17896   -1.000
 4409.00    1.20433   1.21805   -1.000
 4410.00    1.26859   1.26718  206.552
 4411.00    1.29463   1.30074  205.873
 4412.00    1.31448   1.29994  213.098
 4413.00    1.29255   1.26767   -1.000
 4414.00    1.23458   1.21916  231.014
 4415.00    1.18342   1.18262  227.823
 4416.00    1.17483   1.18601   -1.000
 4417.00    1.20562   1.22689   -1.000
 4418.00    1.24723   1.27842   -1.000
 4419.00    1.28067   1.31738   -1.000
 4420.00    1.28303   1.32500   -1.000
 4421.00    1.25429   1.30695   -1.000
 4422.00    1.20485   1.28488   -1.000
 4423.00    1.20340   1.27435   -1.000
 4424.00    1.21965   1.27473   -1.000
 4425.00    1.21308   1.27338   -1.000
 4426.00    1.18824   1.26900   -1.000
 4427.00    1.20210   1.27175   -1.000
 4428.00    1.20579   1.27890   -1.000
 4429.00    1.20884   1.28548   -1.000
 4430.00    1.21027   1.29013   -1.000
 4431.00    1.21811   1.29192   -1.000
 4432.00    1.23066   1.28604   -1.000
 4433.00    1.21985   1.26289   -1.000
 4434.00    1.18421   1.23003   -1.000
 4435.00    1.16205   1.21795   -1.000
 4436.00    1.18899   1.24554   -1.000
 4437.00    1.26081   1.29889   -1.000
 4438.00    1.31767   1.34405   -1.000
 4439.00    1.33657   1.35779   -1.000
 4440.00    1.32848   1.33601  219.359
 4441.00    1.27544   1.29373   -1.000
 4442.00    1.21181   1.26225   -1.000
 4443.00    1.21514   1.26455   -1.000
 4444.00    1.25559   1.30020   -1.000
 4445.00    1.31560   1.34275   -1.000
 4446.00    1.33055   1.36939   -1.000
 4447.00    1.33492   1.37629   -1.000
 4448.00    1.35421   1.37469   -1.000
 4449.00    1.33907   1.37276   -1.000
 4450.00    1.34055   1.36823   -1.000
 4451.00    1.32542   1.35780   -1.000
 4452.00    1.32547   1.33540  220.019
 4453.00    1.31169   1.29374   -1.000
 4454.00    1.24232   1.24669  231.842
 4455.00    1.21257   1.21877  227.397
 4456.00    1.23487   1.21956  224.202
 4457.00    1.23993   1.23625  224.792
 4458.00    1.25086   1.24994  226.253
 4459.00    1.25590   1.25531  228.632
 4460.00    1.23858   1.25894   -1.000
 4461.00    1.23205   1.26713   -1.000
 4462.00    1.24593   1.28459   -1.000
 4463.00    1.28518   1.31119   -1.000
 4464.00    1.33040   1.33537  211.254
 4465.00    1.35390   1.34642  211.876
 4466.00    1.34606   1.34229  214.780
 4467.00    1.32738   1.32983  218.458
 4468.00    1.30872   1.31725  218.689
 4469.00    1.29396   1.31355   -1.000
 4470.00    1.30494   1.32702   -1.000
 4471.00    1.33720   1.35718   -1.000
 4472.00    1.38194   1.39350   -1.000
 4473.00    1.42595   1.42291  194.951
 4474.00    1.44256   1.43783  194.987
 4475.00    1.44059   1.44318  193.269
 4476.00    1.44994   1.44725  192.774
 4477.00    1.47725   1.44857   -1.000
 4478.00    1.47318   1.43566   -1.000
 4479.00    1.42596   1.40174   -1.000
 4480.00    1.37515   1.35696  216.419
 4481.00    1.32523   1.33049  212.070
 4482.00    1.31918   1.33802   -1.000
 4483.00    1.35952   1.37357   -1.000
 4484.00    1.42091   1.42070  192.972
 4485.00    1.46280   1.45683  194.360
 4486.00    1.48641   1.46495   -1.000
 4487.00    1.47516   1.44546   -1.000
 4488.00    1.42717   1.41472  209.995
 4489.00    1.36938   1.39155   -1.000
 4490.00    1.36730   1.39007   -1.000
 4491.00    1.39778   1.40673  199.597
 4492.00    1.42788   1.42293  203.607
 4493.00    1.42334   1.42050  209.669
 4494.00    1.39081   1.40234   -1.000
 4495.00    1.36083   1.39185   -1.000
 4496.00    1.35958   1.40050   -1.000
 4497.00    1.39480   1.42072   -1.000
 4498.00    1.42005   1.44010   -1.000
 4499.00    1.43132   1.45074   -1.000
 4500.00    1.42275   1.45168   -1.000
 4501.00    1.41240   1.45630   -1.000
 4502.00    1.42751   1.47624   -1.000
 4503.00    1.48174   1.50597   -1.000
 4504.00    1.53628   1.53290  185.918
 4505.00    1.54311   1.54415  189.457
 4506.00    1.52300   1.53857   -1.000
 4507.00    1.52440   1.52574  190.534
 4508.00    1.52070   1.51827  189.013
 4509.00    1.51645   1.51936  188.338
 4510.00    1.52657   1.52245  190.569
 4511.00    1.53224   1.51821  194.396
 4512.00    1.50871   1.50383  197.353
 4513.00    1.48639   1.48684  197.971
 4514.00    1.45846   1.47402   -1.000
 4515.00    1.46790   1.46865  197.521
 4516.00    1.48343   1.46966  199.808
 4517.00    1.46667   1.46878  199.881
 4518.00    1.46571   1.46539  196.116
 4519.00    1.47914   1.46922  193.196
 4520.00    1.48711   1.48011  194.900
 4521.00    1.49309   1.48718  199.613
 4522.00    1.46396   1.48087   -1.000
 4523.00    1.44744   1.46271   -1.000
 4524.00    1.43106   1.44175  209.254
 4525.00    1.40820   1.41890  215.740
 4526.00    1.37750   1.38864   -1.000
 4527.00    1.34463   1.35350  222.539
 4528.00    1.31901   1.32727  220.177
 4529.00    1.31779   1.32335  216.152
 4530.00    1.32893   1.33854  212.843
 4531.00    1.37476   1.35872   -1.000
 4532.00    1.38793   1.36503   -1.000
 4533.00    1.35751   1.35262  225.377
 4534.00    1.33339   1.33696  219.563
 4535.00    1.33564   1.34159  206.460
 4536.00    1.37042   1.37944  195.770
 4537.00    1.44196   1.43726  192.418
 4538.00    1.50231   1.48552   -1.000
 4539.00    1.50892   1.50161  199.030
 4540.00    1.47995   1.49205   -1.000
 4541.00    1.46744   1.47953   -1.000
 4542.00    1.48214   1.47846  210.880
 4543.00    1.38258   1.48253   -1.000
 4544.00    0.56361   1.47875   -1.000
 4545.00   -0.04819   1.46731    0.000
 4546.00    0.12279   1.45694   -1.000
 4547.00    0.79921   1.44667   -1.000
 4548.00    0.74633   1.43122   -1.000
 4549.00    0.73342   1.41726   -1.000
 4550.00    1.45216   1.41957   -1.000
 4551.00    1.42316   1.43770  206.730
 4552.00    1.45349   1.45002  209.767
 4553.00    1.42824   1.44508   -1.000
 4554.00    1.41348   1.43363   -1.000
 4555.00    1.42349   1.43278  198.037
 4556.00    1.46688   1.45571  191.066
 4557.00    1.50783   1.49591  188.934
 4558.00    1.52824   1.53222  189.926
 4559.00    1.53425   1.55442   -1.000
 4560.00    1.55213   1.56434  190.865
 4561.00    1.55874   1.56399  195.618
 4562.00    1.54344   1.55201  200.167
 4563.00    1.51202   1.52861   -1.000
 4564.00    1.47107   1.50415   -1.000
 4565.00    1.47773   1.49465   -1.000
 4566.00    1.50235   1.50881  189.378
 4567.00    1.55106   1.53804  188.548
 4568.00    1.57219   1.56026  191.443
 4569.00    1.55858   1.56107  196.497
 4570.00    1.52332   1.54149   -1.000
 4571.00    1.48794   1.51683   -1.000
 4572.00    1.47979   1.50802   -1.000
 4573.00    1.52182   1.52428  189.902
 4574.00    1.53849   1.54954  190.320
 4575.00    1.54898   1.56412  191.286
 4576.00    1.56051   1.56569  192.914
 4577.00    1.54782   1.55781  196.908
 4578.00    1.53145   1.53863  202.528
 4579.00    1.49792   1.50892  205.497
 4580.00    1.46303   1.48026   -1.000
 4581.00    1.43464   1.46447   -1.000
 4582.00    1.45468   1.46525  200.555
 4583.00    1.48143   1.47509  201.410
 4584.00    1.47319   1.48239  201.738
 4585.00    1.47972   1.48411  198.146
 4586.00    1.48177   1.49104  193.062
 4587.00    1.50677   1.51010  189.913
 4588.00    1.55464   1.53603   -1.000
 4589.00    1.55846   1.55432  193.650
 4590.00    1.54342   1.55449  197.255
 4591.00    1.51383   1.53864   -1.000
 4592.00    1.49200   1.51903   -1.000
 4593.00    1.49176   1.50981   -1.000
 4594.00    1.49900   1.51311   -1.000
 4595.00    1.50961   1.52121  196.002
 4596.00    1.51812   1.52987  195.586
 4597.00    1.52404   1.53813  195.663
 4598.00    1.52737   1.54235   -1.000
 4599.00    1.52919   1.53887  198.985
 4600.00    1.51617   1.53003  198.835
 4601.00    1.50146   1.52219   -1.000
 4602.00    1.50276   1.52111   -1.000
 4603.00    1.51473   1.52554  195.255
 4604.00    1.53271   1.53192  194.452
 4605.00    1.53560   1.53968  191.823
 4606.00    1.52724   1.55163   -1.000
 4607.00    1.54385   1.57025   -1.000
 4608.00    1.59743   1.59407  182.910
 4609.00    1.61532   1.61618  184.280
 4610.00    1.61144   1.62280  186.784
 4611.00    1.60183   1.61186  188.623
 4612.00    1.58012   1.59804   -1.000
 4613.00    1.57941   1.59027  188.055
 4614.00    1.59397   1.59132  186.571
 4615.00    1.59736   1.59679  186.357
 4616.00    1.59845   1.59941  187.736
 4617.00    1.59621   1.59712  188.747
 4618.00    1.57898   1.59321  188.090
 4619.00    1.58423   1.59294  185.915
 4620.00    1.59275   1.60085  183.616
 4621.00    1.60187   1.61568  183.827
 4622.00    1.62919   1.62720  184.286
 4623.00    1.63313   1.62792  184.974
 4624.00    1.62941   1.62296  186.435
 4625.00    1.62464   1.61759  186.690
 4626.00    1.59596   1.61178  186.894
 4627.00    1.58445   1.60911   -1.000
 4628.00    1.60170   1.60953  187.991
 4629.00    1.59382   1.61071  186.674
 4630.00    1.60516   1.61388  185.201
 4631.00    1.63794   1.62143   -1.000
 4632.00    1.63052   1.62556  189.303
 4633.00    1.60669   1.61782  190.789
 4634.00    1.59854   1.60491  190.941
 4635.00    1.60015   1.59552  192.828
 4636.00    1.58862   1.58842  194.994
 4637.00    1.58195   1.57983  195.435
 4638.00    1.55833   1.57221  194.330
 4639.00    1.54697   1.57121   -1.000
 4640.00    1.56890   1.58166  186.294
 4641.00    1.59451   1.60117  184.671
 4642.00    1.62383   1.61957  186.255
 4643.00    1.63464   1.62280  190.311
 4644.00    1.60940   1.60684  195.754
 4645.00    1.57457   1.57868  200.010
 4646.00    1.53872   1.54603  199.507
 4647.00    1.51088   1.52500   -1.000
 4648.00    1.52551   1.52962  191.337
 4649.00    1.56181   1.55513  189.389
 4650.00    1.60380   1.58518   -1.000
 4651.00    1.60806   1.60417  189.420
 4652.00    1.61023   1.60911  192.355
 4653.00    1.60296   1.60393  196.364
 4654.00    1.56980   1.59119   -1.000
 4655.00    1.54178   1.57964   -1.000
 4656.00    1.55453   1.58235   -1.000
 4657.00    1.59048   1.60682  181.178
 4658.00    1.63892   1.64788  178.250
 4659.00    1.67963   1.68732  178.862
 4660.00    1.69362   1.70451  181.761
 4661.00    1.68295   1.69599  186.119
 4662.00    1.65746   1.67223  188.904
 4663.00    1.63040   1.64486  189.876
 4664.00    1.61049   1.61780  194.425
 4665.00    1.58465   1.58681  203.006
 4666.00    1.54018   1.54730  209.300
 4667.00    1.47560   1.51027   -1.000
 4668.00    1.46213   1.49780   -1.000
 4669.00    1.49904   1.51960   -1.000
 4670.00    1.54467   1.56148  188.353
 4671.00    1.59511   1.60039  187.749
 4672.00    1.62808   1.62222  187.859
 4673.00    1.63142   1.62974  187.045
 4674.00    1.63711   1.63490  184.396
 4675.00    1.65513   1.64654  182.572
 4676.00    1.66546   1.65756  184.468
 4677.00    1.66496   1.65272  188.542
 4678.00    1.64397   1.63103  192.094
 4679.00    1.61592   1.60401  194.895
 4680.00    1.59006   1.58459  195.563
 4681.00    1.57298   1.57712  192.243
 4682.00    1.58892   1.58085  187.893
 4683.00    1.61225   1.59462   -1.000
 4684.00    1.64116   1.61054   -1.000
 4685.00    1.65659   1.62044   -1.000
 4686.00    1.63778   1.62363  188.143
 4687.00    1.63119   1.62421  188.101
 4688.00    1.63855   1.62469  188.479
 4689.00    1.64076   1.62578  189.650
 4690.00    1.62945   1.62657  189.278
 4691.00    1.61779   1.62586  186.750
 4692.00    1.62829   1.62924  183.561
 4693.00    1.66575   1.64023   -1.000
 4694.00    1.68456   1.65292   -1.000
 4695.00    1.70996   1.66173   -1.000
 4696.00    1.71723   1.66375   -1.000
 4697.00    1.68444   1.65238   -1.000
 4698.00    1.63929   1.62878  191.937
 4699.00    1.61009   1.60432  191.021
 4700.00    1.61737   1.58587   -1.000
 4701.00    1.62177   1.57226   -1.000
 4702.00    1.59751   1.56020   -1.000
 4703.00    1.57827   1.55749   -1.000
 4704.00    1.59009   1.57127   -1.000
 4705.00    1.62696   1.59062   -1.000
 4706.00    1.63787   1.59612   -1.000
 4707.00    1.61050   1.58478   -1.000
 4708.00    1.57612   1.57315  195.718
 4709.00    1.55791   1.57722   -1.000
 4710.00    1.58934   1.59555  185.570
 4711.00    1.63577   1.61844   -1.000
 4712.00    1.65712   1.63574   -1.000
 4713.00    1.65530   1.63702   -1.000
 4714.00    1.64626   1.62900   -1.000
 4715.00    1.64270   1.62984  184.837
 4716.00    1.66383   1.64755   -1.000
 4717.00    1.68085   1.67471  181.078
 4718.00    1.69618   1.69681  180.461
 4719.00    1.71421   1.70864  180.437
 4720.00    1.72221   1.71184  182.013
 4721.00    1.71674   1.71014  182.635
 4722.00    1.70308   1.70760  181.196
 4723.00    1.68741   1.70890   -1.000
 4724.00    1.68588   1.71284   -1.000
 4725.00    1.68609   1.71041   -1.000
 4726.00    1.66277   1.69226   -1.000
 4727.00    1.61554   1.65793   -1.000
 4728.00    1.58279   1.62358   -1.000
 4729.00    1.58781   1.60750   -1.000
 4730.00    1.61405   1.60982  190.883
 4731.00    1.62337   1.62157  188.722
 4732.00    1.62693   1.63820  187.274
 4733.00    1.64438   1.65418  186.240
 4734.00    1.65684   1.66240  186.051
 4735.00    1.67609   1.66281   -1.000
 4736.00    1.67931   1.66062   -1.000
 4737.00    1.66245   1.66027  185.254
 4738.00    1.66061   1.66694  185.739
 4739.00    1.67264   1.67929  186.631
 4740.00    1.68003   1.68698  186.340
 4741.00    1.66436   1.68785   -1.000
 4742.00    1.67128   1.69111   -1.000
 4743.00    1.69605   1.69849  183.667
 4744.00    1.71218   1.70575  183.376
 4745.00    1.70667   1.71100  181.793
 4746.00    1.69890   1.71604  180.343
 4747.00    1.72051   1.72531  180.219
 4748.00    1.72640   1.73728  180.479
 4749.00    1.71347   1.74675   -1.000
 4750.00    1.71260   1.75211   -1.000
 4751.00    1.70576   1.74938   -1.000
 4752.00    1.71028   1.73648   -1.000
 4753.00    1.68316   1.71647   -1.000
 4754.00    1.65887   1.69853   -1.000
 4755.00    1.66874   1.69178   -1.000
 4756.00    1.66391   1.69561   -1.000
 4757.00    1.65490   1.70519   -1.000
 4758.00    1.65978   1.71683   -1.000
 4759.00    1.65314   1.72718   -1.000
 4760.00    1.63951   1.72842   -1.000
 4761.00    1.62249   1.71390   -1.000
 4762.00    1.58582   1.68448   -1.000
 4763.00    1.58349   1.65305   -1.000
 4764.00    1.58285   1.63470   -1.000
 4765.00    1.57755   1.62819   -1.000
 4766.00    1.60064   1.63040   -1.000
 4767.00    1.62238   1.64556   -1.000
 4768.00    1.64844   1.67569   -1.000
 4769.00    1.67630   1.70764   -1.000
 4770.00    1.70430   1.72411   -1.000
 4771.00    1.70273   1.72286   -1.000
 4772.00    1.68783   1.71814   -1.000
 4773.00    1.69291   1.72406   -1.000
 4774.00    1.70875   1.74253   -1.000
 4775.00    1.73388   1.76052   -1.000
 4776.00    1.74131   1.76899   -1.000
 4777.00    1.72030   1.76813   -1.000
 4778.00    1.71120   1.76147   -1.000
 4779.00    1.70159   1.75209   -1.000
 4780.00    1.68927   1.74236   -1.000
 4781.00    1.69176   1.73381   -1.000
 4782.00    1.69319   1.72299   -1.000
 4783.00    1.68632   1.71117   -1.000
 4784.00    1.67915   1.70330   -1.000
 4785.00    1.67908   1.69918   -1.000
 4786.00    1.67534   1.69664   -1.000
 4787.00    1.65818   1.69563   -1.000
 4788.00    1.65214   1.69847   -1.000
 4789.00    1.65770   1.70601   -1.000
 4790.00    1.66264   1.71914   -1.000
 4791.00    1.68363   1.73841   -1.000
 4792.00    1.70986   1.76262   -1.000
 4793.00    1.73327   1.78920   -1.000
 4794.00    1.76298   1.81444   -1.000
 4795.00    1.78303   1.83143   -1.000
 4796.00    1.77223   1.83124   -1.000
 4797.00    1.74252   1.81497   -1.000
 4798.00    1.71441   1.79136   -1.000
 4799.00    1.70274   1.77132   -1.000
 4800.00    1.70707   1.76682   -1.000
 4801.00    1.72101   1.78165   -1.000
 4802.00    1.74441   1.80409   -1.000
 4803.00    1.76416   1.81677   -1.000
 4804.00    1.76231   1.81277   -1.000
 4805.00    1.74002   1.79835   -1.000
 4806.00    1.71646   1.78481   -1.000
 4807.00    1.70813   1.77637   -1.000
 4808.00    1.70638   1.77451   -1.000
 4809.00    1.72450   1.78174   -1.000
 4810.00    1.73061   1.79404   -1.000
 4811.00    1.74023   1.80365   -1.000
 4812.00    1.75009   1.80872   -1.000
 4813.00    1.75056   1.81279   -1.000
 4814.00    1.75071   1.81916   -1.000
 4815.00    1.75492   1.83021   -1.000
 4816.00    1.77099   1.84438   -1.000
 4817.00    1.77562   1.85606   -1.000
 4818.00    1.78533   1.86158   -1.000
 4819.00    1.79497   1.86301   -1.000
 4820.00    1.79098   1.86094   -1.000
 4821.00    1.78038   1.84841   -1.000
 4822.00    1.74888   1.82094   -1.000
 4823.00    1.71636   1.78617   -1.000
 4824.00    1.70465   1.76451   -1.000
 4825.00    1.72948   1.77191   -1.000
 4826.00    1.76006   1.79579   -1.000
 4827.00    1.76216   1.81296   -1.000
 4828.00    1.74619   1.81451   -1.000
 4829.00    1.74195   1.80839   -1.000
 4830.00    1.73858   1.80245   -1.000
 4831.00    1.72690   1.79144   -1.000
 4832.00    1.73354   1.77905   -1.000
 4833.00    1.74809   1.77790   -1.000
 4834.00    1.75139   1.78980   -1.000
 4835.00    1.75646   1.80685   -1.000
 4836.00    1.77052   1.81745   -1.000
 4837.00    1.77719   1.81661   -1.000
 4838.00    1.75680   1.80607   -1.000
 4839.00    1.73145   1.78894   -1.000
 4840.00    1.71744   1.77271   -1.000
 4841.00    1.71049   1.76477   -1.000
 4842.00    1.72984   1.76642   -1.000
 4843.00    1.74745   1.77228   -1.000
 4844.00    1.75833   1.78205   -1.000
 4845.00    1.78414   1.79984  181.233
 4846.00    1.79046   1.81624   -1.000
 4847.00    1.77632   1.81532   -1.000
 4848.00    1.75043   1.80162   -1.000
 4849.00    1.74631   1.79346   -1.000
 4850.00    1.76557   1.79793   -1.000
 4851.00    1.76240   1.80474   -1.000
 4852.00    1.75290   1.80107   -1.000
 4853.00    1.74550   1.78154   -1.000
 4854.00    1.70159   1.74472   -1.000
 4855.00    1.65932   1.70239   -1.000
 4856.00    1.64804   1.67173   -1.000
 4857.00    1.66373   1.65413  205.371
 4858.00    1.63782   1.62066   -1.000
 4859.00    1.54149   1.53553  247.745
 4860.00    1.39470   1.41606   -1.000
 4861.00    1.29898   1.32546   -1.000
 4862.00    1.32343   1.31990  213.177
 4863.00    1.44183   1.39857   -1.000
 4864.00    1.56301   1.50579   -1.000
 4865.00    1.61601   1.59928   -1.000
 4866.00    1.66343   1.66558  191.604
 4867.00    1.69086   1.70858  191.588
 4868.00    1.69349   1.73100   -1.000
 4869.00    1.67709   1.72964   -1.000
 4870.00    1.64572   1.70151   -1.000
 4871.00    1.59326   1.65842   -1.000
 4872.00    1.57874   1.63558   -1.000
 4873.00    1.62730   1.65937   -1.000
 4874.00    1.67140   1.71011   -1.000
 4875.00    1.67954   1.75161   -1.000
 4876.00    1.68182   1.76812   -1.000
 4877.00    1.68034   1.77490   -1.000
 4878.00    1.69965   1.79110   -1.000
 4879.00    1.73881   1.81595   -1.000
 4880.00    1.73963   1.83445   -1.000
 4881.00    1.70383   1.83393   -1.000
 4882.00    1.68972   1.82035   -1.000
 4883.00    1.68990   1.80932   -1.000
 4884.00    1.68751   1.79810   -1.000
 4885.00    1.68225   1.78029   -1.000
 4886.00    1.66858   1.76222   -1.000
 4887.00    1.66588   1.75336   -1.000
 4888.00    1.67400   1.75030   -1.000
 4889.00    1.66702   1.73648   -1.000
 4890.00    1.63493   1.70840   -1.000
 4891.00    1.63115   1.69092   -1.000
 4892.00    1.68295   1.71497   -1.000
 4893.00    1.75816   1.78662   -1.000
 4894.00    1.83494   1.87180   -1.000
 4895.00    1.87200   1.93044   -1.000
 4896.00    1.88354   1.95648   -1.000
 4897.00    1.88728   1.95914   -1.000
 4898.00    1.86826   1.94669   -1.000
 4899.00    1.82856   1.92549   -1.000
 4900.00    1.81066   1.90603   -1.000
 4901.00    1.81435   1.89358   -1.000
 4902.00    1.80442   1.88326   -1.000
 4903.00    1.77642   1.87013   -1.000
 4904.00    1.78282   1.86656   -1.000
 4905.00    1.82678   1.88709   -1.000
 4906.00    1.86009   1.91664   -1.000
 4907.00    1.85666   1.92702   -1.000
 4908.00    1.82153   1.90838   -1.000
 4909.00    1.77546   1.87007   -1.000
 4910.00    1.74147   1.83471   -1.000
 4911.00    1.75350   1.82192   -1.000
 4912.00    1.78938   1.83803   -1.000
 4913.00    1.82608   1.86856   -1.000
 4914.00    1.85115   1.89791   -1.000
 4915.00    1.86525   1.91830   -1.000
 4916.00    1.86538   1.91657   -1.000
 4917.00    1.82215   1.87572   -1.000
 4918.00    1.74192   1.79761   -1.000
 4919.00    1.66247   1.70868   -1.000
 4920.00    1.62167   1.65090   -1.000
 4921.00    1.64331   1.65005  192.532
 4922.00    1.71170   1.69508   -1.000
 4923.00    1.76939   1.74867   -1.000
 4924.00    1.77349   1.78551  186.464
 4925.00    1.78474   1.81438   -1.000
 4926.00    1.81525   1.85024   -1.000
 4927.00    1.84479   1.89278   -1.000
 4928.00    1.88387   1.93162   -1.000
 4929.00    1.90205   1.95770   -1.000
 4930.00    1.90869   1.96889   -1.000
 4931.00    1.90666   1.96043   -1.000
 4932.00    1.87043   1.92746   -1.000
 4933.00    1.81879   1.88197   -1.000
 4934.00    1.77696   1.85063   -1.000
 4935.00    1.77977   1.84659   -1.000
 4936.00    1.79924   1.85313   -1.000
 4937.00    1.77158   1.83704   -1.000
 4938.00    1.73339   1.80063   -1.000
 4939.00    1.73247   1.78283   -1.000
 4940.00    1.77204   1.80766   -1.000
 4941.00    1.83929   1.86551  178.562
 4942.00    1.89024   1.92215   -1.000
 4943.00    1.90675   1.95411   -1.000
 4944.00    1.91205   1.96154   -1.000
 4945.00    1.89860   1.95439   -1.000
 4946.00    1.88847   1.94692   -1.000
 4947.00    1.91203   1.95200   -1.000
 4948.00    1.92695   1.97168   -1.000
 4949.00    1.94088   1.99261   -1.000
 4950.00    1.94442   2.00175   -1.000
 4951.00    1.94516   1.99863   -1.000
 4952.00    1.93480   1.98923   -1.000
 4953.00    1.92216   1.97651   -1.000
 4954.00    1.89981   1.95671   -1.000
 4955.00    1.85377   1.91455   -1.000
 4956.00    1.77739   1.83796   -1.000
 4957.00    1.71538   1.75717   -1.000
 4958.00    1.72444   1.72944  185.136
 4959.00    1.78110   1.77596  180.509
 4960.00    1.84613   1.86042  179.969
 4961.00    1.88936   1.92554   -1.000
 4962.00    1.90467   1.95209   -1.000
 4963.00    1.89963   1.95121   -1.000
 4964.00    1.87247   1.93345   -1.000
 4965.00    1.84391   1.90619   -1.000
 4966.00    1.82158   1.88105   -1.000
 4967.00    1.81650   1.86667   -1.000
 4968.00    1.83678   1.86348   -1.000
 4969.00    1.84240   1.87032   -1.000
 4970.00    1.84472   1.88652   -1.000
 4971.00    1.86546   1.90854   -1.000
 4972.00    1.88439   1.93228   -1.000
 4973.00    1.90984   1.95326   -1.000
 4974.00    1.93262   1.96666   -1.000
 4975.00    1.93196   1.96877   -1.000
 4976.00    1.90533   1.96054   -1.000
 4977.00    1.88455   1.94286   -1.000
 4978.00    1.85414   1.91980   -1.000
 4979.00    1.81893   1.89507   -1.000
 4980.00    1.79839   1.86507   -1.000
 4981.00    1.75452   1.81870   -1.000
 4982.00    1.70797   1.75830   -1.000
 4983.00    1.68414   1.71212   -1.000
 4984.00    1.69363   1.70900  194.708
 4985.00    1.73805   1.75118  188.969
 4986.00    1.79635   1.81314  185.960
 4987.00    1.84618   1.86880  187.100
 4988.00    1.85788   1.90187   -1.000
 4989.00    1.85221   1.90456   -1.000
 4990.00    1.83790   1.88810   -1.000
 4991.00    1.83828   1.87430   -1.000
 4992.00    1.86389   1.87554  188.400
 4993.00    1.86402   1.88652  188.021
 4994.00    1.86462   1.89763   -1.000
 4995.00    1.86911   1.90744   -1.000
 4996.00    1.87554   1.91773   -1.000
 4997.00    1.88458   1.92135   -1.000
 4998.00    1.86627   1.90614   -1.000
 4999.00    1.83296   1.87066   -1.000
 5000.00    1.81337   1.83020  195.891
 5001.00    1.80639   1.80507  194.184
 5002.00    1.80918   1.80461  194.307
 5003.00    1.81598   1.81640  197.935
 5004.00    1.80952   1.81710  201.694
 5005.00    1.78560   1.79405  200.604
 5006.00    1.76790   1.76426  195.132
 5007.00    1.79192   1.76343   -1.000
 5008.00    1.83699   1.79997   -1.000
 5009.00    1.86452   1.84690   -1.000
 5010.00    1.86005   1.86960  200.202
 5011.00    1.81674   1.85140   -1.000
 5012.00    1.76195   1.80379   -1.000
 5013.00    1.71908   1.75433   -1.000
 5014.00    1.70811   1.72925   -1.000
 5015.00    1.73130   1.73227  199.479
 5016.00    1.77301   1.75028   -1.000
 5017.00    1.78789   1.76776   -1.000
 5018.00    1.78817   1.78257  196.177
 5019.00    1.80891   1.80238   -1.000
 5020.00    1.83086   1.82231   -1.000
 5021.00    1.84032   1.83123   -1.000
 5022.00    1.83791   1.82975   -1.000
 5023.00    1.83825   1.83235  192.782
 5024.00    1.85810   1.85354  192.282
 5025.00    1.86679   1.87936  193.252
 5026.00    1.85834   1.88475  193.224
 5027.00    1.85145   1.87396  190.725
 5028.00    1.84838   1.86800  187.396
 5029.00    1.86933   1.87860  184.606
 5030.00    1.90340   1.90518  181.903
 5031.00    1.93185   1.93842  180.672
 5032.00    1.95976   1.96754  182.935
 5033.00    1.97688   1.98094  189.446
 5034.00    1.94403   1.96479  195.487
 5035.00    1.87080   1.92144   -1.000
 5036.00    1.82367   1.87684   -1.000
 5037.00    1.81003   1.85124   -1.000
 5038.00    1.81075   1.83591  211.622
 5039.00    1.77497   1.79947  217.231
 5040.00    1.70823   1.74126   -1.000
 5041.00    1.68179   1.70547   -1.000
 5042.00    1.72680   1.72854  190.620
 5043.00    1.84045   1.80634   -1.000
 5044.00    1.89464   1.89807  179.314
 5045.00    1.32562   1.96595   -1.000
 5046.00    0.25355   1.99819   -1.000
 5047.00    0.06963   1.99344   -1.000
 5048.00    0.49969   1.95655   -1.000
 5049.00    1.47978   1.90456   -1.000
 5050.00    1.84579   1.86299  193.387
 5051.00    1.86791   1.84935   -1.000
 5052.00    1.88671   1.86707   -1.000
 5053.00    1.92666   1.90773   -1.000
 5054.00    1.97222   1.95062   -1.000
 5055.00    2.00335   1.97685   -1.000
 5056.00    2.01372   1.99132   -1.000
 5057.00    2.01920   2.00274   -1.000
 5058.00    2.02209   2.01371   -1.000
 5059.00    2.01944   2.02408  179.459
 5060.00    2.02575   2.03186  180.433
 5061.00    2.03619   2.03596   -1.000
 5062.00    2.01848   2.02888  189.831
 5063.00    1.97217   1.99595  194.990
 5064.00    1.91547   1.94456   -1.000
 5065.00    1.88242   1.90372  192.714
 5066.00    1.89210   1.89041  190.622
 5067.00    1.90759   1.89924   -1.000
 5068.00    1.91575   1.91108   -1.000
 5069.00    1.93175   1.91993   -1.000
 5070.00    1.94840   1.92892   -1.000
 5071.00    1.94559   1.93142   -1.000
 5072.00    1.93263   1.92215   -1.000
 5073.00    1.93800   1.91418   -1.000
 5074.00    1.95016   1.92068   -1.000
 5075.00    1.95735   1.93531   -1.000
 5076.00    1.95621   1.94306   -1.000
 5077.00    1.94700   1.93325   -1.000
 5078.00    1.92074   1.89982   -1.000
 5079.00    1.86456   1.84968   -1.000
 5080.00    1.82619   1.81234   -1.000
 5081.00    1.83269   1.80714   -1.000
 5082.00    1.86157   1.82594   -1.000
 5083.00    1.88654   1.85287   -1.000
 5084.00    1.91779   1.88182   -1.000
 5085.00    1.95297   1.91616   -1.000
 5086.00    1.97962   1.94924   -1.000
 5087.00    1.99496   1.96978   -1.000
 5088.00    1.99565   1.97910   -1.000
 5089.00    1.99309   1.98531   -1.000
 5090.00    1.99310   1.99315  182.049
 5091.00    2.02139   2.00469   -1.000
 5092.00    2.09442   2.02118   -1.000
 5093.00    2.13711   2.03779   -1.000
 5094.00    2.06664   2.04104   -1.000
 5095.00    2.01889   2.01798   -1.000
 5096.00    1.98043   1.97195   -1.000
 5097.00    1.93350   1.92182   -1.000
 5098.00    1.89253   1.88431   -1.000
 5099.00    1.88992   1.87153   -1.000
 5100.00    1.90737   1.88886   -1.000
 5101.00    1.94976   1.92789   -1.000
 5102.00    1.99250   1.96257   -1.000
 5103.00    2.00161   1.97432   -1.000
 5104.00    1.99297   1.96693   -1.000
 5105.00    1.96611   1.94928   -1.000
 5106.00    1.92996   1.92605   -1.000
 5107.00    1.91027   1.90222   -1.000
 5108.00    1.91059   1.88632   -1.000
 5109.00    1.90791   1.88503   -1.000
 5110.00    1.91370   1.89961   -1.000
 5111.00    1.94252   1.92709   -1.000
 5112.00    1.97691   1.95839   -1.000
 5113.00    2.00342   1.98429   -1.000
 5114.00    2.02063   2.00588   -1.000
 5115.00    2.03422   2.02618   -1.000
 5116.00    2.04571   2.04426   -1.000
 5117.00    2.05830   2.05600   -1.000
 5118.00    2.06884   2.05857   -1.000
 5119.00    2.05870   2.04955   -1.000
 5120.00    2.02817   2.02800  190.607
 5121.00    2.00064   1.99797   -1.000
 5122.00    1.96692   1.96391   -1.000
 5123.00    1.92667   1.92800  200.131
 5124.00    1.89381   1.89619  198.568
 5125.00    1.89564   1.88068   -1.000
 5126.00    1.92019   1.88276   -1.000
 5127.00    1.92339   1.89098   -1.000
 5128.00    1.91965   1.89557   -1.000
 5129.00    1.91172   1.89953   -1.000
 5130.00    1.92335   1.90989   -1.000
 5131.00    1.96044   1.92946   -1.000
 5132.00    1.99829   1.95301   -1.000
 5133.00    2.01152   1.97242   -1.000
 5134.00    2.01248   1.98615   -1.000
 5135.00    2.02496   1.99379   -1.000
 5136.00    2.02733   1.98875   -1.000
 5137.00    1.98639   1.96572   -1.000
 5138.00    1.93703   1.93385   -1.000
 5139.00    1.90630   1.90964  195.624
 5140.00    1.93336   1.90325   -1.000
 5141.00    1.95019   1.90756   -1.000
 5142.00    1.92678   1.91210   -1.000
 5143.00    1.91994   1.91677   -1.000
 5144.00    1.93816   1.92547   -1.000
 5145.00    1.95459   1.93263   -1.000
 5146.00    1.94853   1.92687   -1.000
 5147.00    1.94136   1.91416   -1.000
 5148.00    1.94615   1.91579   -1.000
 5149.00    1.95907   1.93061   -1.000
 5150.00    1.95691   1.93485   -1.000
 5151.00    1.92219   1.92261  200.326
 5152.00    1.90803   1.90541  198.110
 5153.00    1.91930   1.89466   -1.000
 5154.00    1.92937   1.89965   -1.000
 5155.00    1.96029   1.92720   -1.000
 5156.00    2.02316   1.97274   -1.000
 5157.00    2.08532   2.01829   -1.000
 5158.00    2.10191   2.05055   -1.000
 5159.00    2.09294   2.06596   -1.000
 5160.00    2.09917   2.06791   -1.000
 5161.00    2.09297   2.05784   -1.000
 5162.00    2.06496   2.03433   -1.000
 5163.00    2.04200   1.99810   -1.000
 5164.00    1.99134   1.94353   -1.000
 5165.00    1.87689   1.85053   -1.000
 5166.00    1.71874   1.71995  247.456
 5167.00    1.60320   1.60019  237.940
 5168.00    1.59200   1.55357   -1.000
 5169.00    1.66752   1.59265   -1.000
 5170.00    1.70863   1.63585   -1.000
 5171.00    1.64049   1.61374   -1.000
 5172.00    1.54593   1.55419  235.456
 5173.00    1.55050   1.53959  211.999
 5174.00    1.68785   1.62514   -1.000
 5175.00    1.86755   1.76604   -1.000
 5176.00    1.97502   1.88326   -1.000
 5177.00    2.01958   1.94746   -1.000
 5178.00    2.04045   1.96846   -1.000
 5179.00    2.02727   1.96116   -1.000
 5180.00    1.97790   1.91628   -1.000
 5181.00    1.87363   1.81812   -1.000
 5182.00    1.71293   1.68132   -1.000
 5183.00    1.56183   1.56249  234.864
 5184.00    1.54769   1.53780  210.646
 5185.00    1.70196   1.62515   -1.000
 5186.00    1.89144   1.76986   -1.000
 5187.00    1.99501   1.89170   -1.000
 5188.00    2.02832   1.95291   -1.000
 5189.00    2.03150   1.97513   -1.000
 5190.00    2.00828   1.97326   -1.000
 5191.00    1.96937   1.94418   -1.000
 5192.00    1.92783   1.90445   -1.000
 5193.00    1.90721   1.88426   -1.000
 5194.00    1.93118   1.89323   -1.000
 5195.00    1.96926   1.91912   -1.000
 5196.00    1.99192   1.94786   -1.000
 5197.00    2.02370   1.98163   -1.000
 5198.00    2.06689   2.02165   -1.000
 5199.00    2.08954   2.05580   -1.000
 5200.00    2.09522   2.07304   -1.000
 5201.00    2.09443   2.06896   -1.000
 5202.00    2.07485   2.04040   -1.000
 5203.00    2.03838   1.98840   -1.000
 5204.00    1.99307   1.92063   -1.000
 5205.00    1.93820   1.85410   -1.000
 5206.00    1.88827   1.80859   -1.000
 5207.00    1.86956   1.78973   -1.000
 5208.00    1.87788   1.78942   -1.000
 5209.00    1.89634   1.80831   -1.000
 5210.00    1.94126   1.85637   -1.000
 5211.00    2.02086   1.93375   -1.000
 5212.00    2.10985   2.02069   -1.000
 5213.00    2.16313   2.08205   -1.000
 5214.00    2.14827   2.09606   -1.000
 5215.00    2.10872   2.06940   -1.000
 5216.00    2.07788   2.03780   -1.000
 5217.00    2.08817   2.03533   -1.000
 5218.00    2.12430   2.06874   -1.000
 5219.00    2.16756   2.11844   -1.000
 5220.00    2.18913   2.15968   -1.000
 5221.00    2.19665   2.18110   -1.000
 5222.00    2.19308   2.17598   -1.000
 5223.00    2.14085   2.14127   -1.000
 5224.00    2.06444   2.07513  206.807
 5225.00    1.98506   1.98389  208.071
 5226.00    1.92240   1.90156   -1.000
 5227.00    1.93335   1.87374   -1.000
 5228.00    2.01095   1.91793   -1.000
 5229.00    2.09794   2.00544   -1.000
 5230.00    2.16724   2.07652   -1.000
 5231.00    2.18753   2.09890   -1.000
 5232.00    2.14489   2.07858   -1.000
 5233.00    2.09719   2.04582   -1.000
 5234.00    2.08665   2.03672   -1.000
 5235.00    2.11119   2.06759   -1.000
 5236.00    2.16632   2.12285   -1.000
 5237.00    2.21966   2.17457   -1.000
 5238.00    2.23573   2.20466   -1.000
 5239.00    2.23454   2.21226   -1.000
 5240.00    2.23224   2.20832   -1.000
 5241.00    2.22550   2.20073   -1.000
 5242.00    2.21940   2.19538   -1.000
 5243.00    2.22435   2.19939   -1.000
 5244.00    2.23480   2.20967   -1.000
 5245.00    2.21376   2.20576   -1.000
 5246.00    2.16513   2.17532  190.752
 5247.00    2.13062   2.13195  191.025
 5248.00    2.11384   2.09916   -1.000
 5249.00    2.10500   2.08674   -1.000
 5250.00    2.09803   2.08539   -1.000
 5251.00    2.09522   2.08982   -1.000
 5252.00    2.11825   2.10153   -1.000
 5253.00    2.14485   2.11387   -1.000
 5254.00    2.14321   2.11923   -1.000
 5255.00    2.15718   2.12840   -1.000
 5256.00    2.19869   2.15711   -1.000
 5257.00    2.25017   2.20084   -1.000
 5258.00    2.28306   2.23733   -1.000
 5259.00    2.27937   2.24303   -1.000
 5260.00    2.24143   2.20927   -1.000
 5261.00    2.16789   2.14136   -1.000
 5262.00    2.08026   2.05403   -1.000
 5263.00    2.00653   1.96660   -1.000
 5264.00    1.94753   1.89777   -1.000
 5265.00    1.92689   1.86348   -1.000
 5266.00    1.95345   1.86753   -1.000
 5267.00    1.98857   1.88440   -1.000
 5268.00    1.97461   1.87766   -1.000
 5269.00    1.91032   1.83986   -1.000
 5270.00    1.90363   1.81496   -1.000
 5271.00    1.98690   1.85641   -1.000
 5272.00    2.08477   1.94551   -1.000
 5273.00    2.13647   2.02179   18.839
 5274.00    2.14500   2.06022   18.652
 5275.00    2.15697   2.07986   18.155
 5276.00    2.19030   2.11163   17.648
 5277.00    2.25472   2.16497   17.521
 5278.00    2.30346   2.21927   17.783
 5279.00    2.30637   2.24107   18.240
 5280.00    2.27674   2.21701   18.655
 5281.00    2.22256   2.16744   18.881
 5282.00    2.17810   2.11913   18.752
 5283.00    2.14335   2.09306   18.267
 5284.00    2.14208   2.10734   17.693
 5285.00    2.22195   2.16402   17.322
 5286.00    2.31397   2.23608   17.307
 5287.00    2.35516   2.28928   17.366
 5288.00    2.36022   2.31059   17.315
 5289.00    2.35334   2.31553   17.238
 5290.00    2.35986   2.31865   17.265
 5291.00    2.36789   2.31837   17.400
 5292.00    2.35925   2.31353   17.597
 5293.00    2.33884   2.30627   17.941
 5294.00    2.31431   2.29026   18.528
 5295.00    2.28040   2.25398   19.156
 5296.00    2.21697   2.19131   19.378
 5297.00    2.13421   2.12115   19.063
 5298.00    2.12106   2.08389   18.623
 5299.00    2.16368   2.09563   18.384
 5300.00    2.21016   2.13449   18.227
 5301.00    2.23762   2.17126   17.876
 5302.00    2.26308   2.19952   17.452
 5303.00    2.31428   2.23590   17.261
 5304.00    2.35679   2.28065   17.323
 5305.00    2.37966   2.31094   17.492
 5306.00    2.37077   2.31554   17.523
 5307.00    2.35567   2.30521   17.366
 5308.00    2.36278   2.30234   17.213
 5309.00    2.38356   2.31822   17.164
 5310.00    2.39903   2.34054   17.222
 5311.00    2.39772   2.35271   17.312
 5312.00    2.39795   2.34855   17.409
 5313.00    2.38854   2.33241   17.558
 5314.00    2.37500   2.31093   17.726
 5315.00    2.34628   2.28642   17.814
 5316.00    2.32151   2.26384   17.751
 5317.00    2.32773   2.25653   17.639
 5318.00    2.35189   2.27020   17.630
 5319.00    2.35373   2.29215   17.727
 5320.00    2.34356   2.30100   17.893
 5321.00    2.33909   2.28911   18.154
 5322.00    2.32124   2.25934   18.409
 5323.00    2.28682   2.21786   18.492
 5324.00    2.25651   2.17834   18.708
 5325.00    2.24776   2.14613   19.554
 5326.00    2.21908   2.10379   20.567
 5327.00    2.11958   2.03223   20.518
 5328.00    2.02951   1.96258   19.462
 5329.00    2.04837   1.95661   18.531
 5330.00    2.15510   2.02969   18.141
 5331.00    2.25793   2.13385   17.973
 5332.00    2.30783   2.20685   17.784
 5333.00    2.33829   2.24195   17.635
 5334.00    2.36584   2.26718   17.651
 5335.00    2.37757   2.29001   17.773
 5336.00    2.36493   2.29954   17.924
 5337.00    2.34846   2.29037   18.241
 5338.00    2.33190   2.26264   18.651
 5339.00    2.29133   2.21762   18.750
 5340.00    2.24471   2.17118   18.410
 5341.00    2.24776   2.15399   17.975
 5342.00    2.28888   2.18147   17.808
 5343.00    2.33091   2.23054   17.875
 5344.00    2.35805   2.26076   17.996
 5345.00    2.35156   2.25982   18.098
 5346.00    2.32691   2.24147   18.221
 5347.00    2.33416   2.22240   18.333
 5348.00    2.32793   2.21114   18.218
 5349.00    2.30277   2.21199   17.856
 5350.00    2.31900   2.23143   17.525
 5351.00    2.36626   2.26897   17.390
 5352.00    2.39855   2.30972   17.303
 5353.00    2.41722   2.33708   17.123
 5354.00    2.43319   2.35553   16.942
 5355.00    2.44476   2.37730   16.886
 5356.00    2.46209   2.39930   16.912
 5357.00    2.46735   2.41280   16.955
 5358.00    2.46674   2.41449   17.082
 5359.00    2.46495   2.40780   17.329
 5360.00    2.43630   2.39264   17.607
 5361.00    2.39856   2.36691   17.801
 5362.00    2.37925   2.33579   17.910
 5363.00    2.36760   2.30586   18.015
 5364.00    2.35318   2.28025   18.047
 5365.00    2.34017   2.26355   18.010
 5366.00    2.32938   2.25861   18.098
 5367.00    2.33500   2.25873   18.415
 5368.00    2.33418   2.24588   18.935
 5369.00    2.29271   2.20539   19.273
 5370.00    2.23328   2.14514   18.940
 5371.00    2.19879   2.10118   18.127
 5372.00    2.23659   2.11030   17.472
 5373.00    2.33871   2.17828   -1.000
 5374.00    2.42406   2.27002   -1.000
 5375.00    2.45877   2.33863   17.209
 5376.00    2.46600   2.36889   17.226
 5377.00    2.45802   2.37346   17.293
 5378.00    2.44513   2.37041   17.430
 5379.00    2.43366   2.36559   17.606
 5380.00    2.42450   2.35551   17.738
 5381.00    2.40698   2.33825   17.774
 5382.00    2.38905   2.31797   17.723
 5383.00    2.38400   2.30498   17.585
 5384.00    2.38919   2.31015   17.464
 5385.00    2.40295   2.33416   17.492
 5386.00    2.41723   2.36164   17.619
 5387.00    2.42970   2.37340   17.841
 5388.00    2.42880   2.36326   18.085
 5389.00    2.40233   2.33693   18.225
 5390.00    2.37547   2.30641   18.266
 5391.00    2.35034   2.28139   18.295
 5392.00    2.32865   2.26403   18.392
 5393.00    2.33248   2.25396   18.583
 5394.00    2.32864   2.24682   18.897
 5395.00    2.31659   2.22884   19.109
 5396.00    2.28663   2.19688   18.820
 5397.00    2.27148   2.16930   18.243
 5398.00    2.29995   2.17343   17.922
 5399.00    2.34482   2.21645   17.902
 5400.00    2.36887   2.26763   17.993
 5401.00    2.37485   2.29773   18.334
 5402.00    2.36161   2.29640   18.934
 5403.00    2.31978   2.25806   19.392
 5404.00    2.25900   2.19060   19.423
 5405.00    2.21458   2.12976   19.091
 5406.00    2.22565   2.11146   18.795
 5407.00    2.27558   2.13838   -1.000
 5408.00    2.30192   2.17580   18.860
 5409.00    2.29125   2.18864   18.553
 5410.00    2.29071   2.18871   18.072
 5411.00    2.32938   2.20918   17.769
 5412.00    2.39363   2.25384   -1.000
 5413.00    2.43109   2.29798   17.709
 5414.00    2.42444   2.32032   17.647
 5415.00    2.42161   2.33238   17.517
 5416.00    2.44172   2.35330   17.497
 5417.00    2.45799   2.37731   17.628
 5418.00    2.44468   2.39070   17.774
 5419.00    2.41319   2.38893   17.789
 5420.00    2.40171   2.37883   17.709
 5421.00    2.41817   2.36930   17.795
 5422.00    2.42556   2.35795   18.018
 5423.00    2.40828   2.33971   18.001
 5424.00    2.39360   2.32460   17.735
 5425.00    2.41313   2.33183   17.606
 5426.00    2.44452   2.36354   17.891
 5427.00    2.44925   2.38151   18.447
 5428.00    2.40304   2.35095   18.767
 5429.00    2.33407   2.28952   18.587
 5430.00    2.32138   2.24479   18.397
 5431.00    2.34642   2.24475   18.540
 5432.00    2.36003   2.26298   18.794
 5433.00    2.34643   2.26088   18.865
 5434.00    2.32584   2.24086   18.628
 5435.00    2.31793   2.23241   18.171
 5436.00    2.34614   2.26009   17.723
 5437.00    2.39904   2.32015   17.420
 5438.00    2.45448   2.38526   17.232
 5439.00    2.49755   2.43198   17.150
 5440.00    2.52097   2.45694   17.140
 5441.00    2.53667   2.47139   17.231
 5442.00    2.53518   2.47631   17.560
 5443.00    2.50571   2.46129   18.171
 5444.00    2.45528   2.41423   18.863
 5445.00    2.36758   2.33788   19.095
 5446.00    2.29104   2.26151   18.676
 5447.00    2.28441   2.22303   18.093
 5448.00    2.33856   2.24379   17.760
 5449.00    2.41602   2.30454   17.693
 5450.00    2.45650   2.36235   17.778
 5451.00    2.47296   2.39233   18.069
 5452.00    2.47203   2.38951   18.554
 5453.00    2.43877   2.35592   19.028
 5454.00    2.38120   2.29949   19.085
 5455.00    2.33038   2.24508   18.577
 5456.00    2.34065   2.23316   17.985
 5457.00    2.39916   2.28022   17.699
 5458.00    2.46318   2.35108   17.773
 5459.00    2.49915   2.39912   18.061
 5460.00    2.49118   2.40341   18.359
 5461.00    2.46797   2.37396   18.527
 5462.00    2.42803   2.33466   18.452
 5463.00    2.40447   2.31043   18.214
 5464.00    2.42544   2.31444   18.068
 5465.00    2.44728   2.34051   17.929
 5466.00    2.47038   2.37106   17.786
 5467.00    2.48428   2.39352   17.841
 5468.00    2.48243   2.40748   18.031
 5469.00    2.48311   2.41203   18.156
 5470.00    2.48815   2.40495   18.229
 5471.00    2.48805   2.39164   18.372
 5472.00    2.47918   2.37743   18.603
 5473.00    2.46134   2.35986   18.939
 5474.00    2.43037   2.33228   19.297
 5475.00    2.38012   2.29147   19.347
 5476.00    2.32985   2.25089   18.930
 5477.00    2.31973   2.23801   18.444
 5478.00    2.37545   2.26581   18.357
 5479.00    2.43999   2.31356   18.567
 5480.00    2.44309   2.34155   18.664
 5481.00    2.40779   2.33958   18.463
 5482.00    2.38535   2.33582   18.097
 5483.00    2.39306   2.35451   17.835
 5484.00    2.42769   2.39188   17.859
 5485.00    2.46509   2.42133   18.092
 5486.00    2.46078   2.42306   18.277
 5487.00    2.44299   2.40265   18.321
 5488.00    2.44108   2.38210   18.251
 5489.00    2.44764   2.37974   18.114
 5490.00    2.46279   2.39372   18.016
 5491.00    2.48224   2.40966   18.008
 5492.00    2.49210   2.41885   18.036
 5493.00    2.49368   2.42153   18.035
 5494.00    2.49808   2.42174   18.102
 5495.00    2.50586   2.41727   18.240
 5496.00    2.49401   2.40426   18.249
 5497.00    2.47864   2.38907   18.082
 5498.00    2.48291   2.38386   18.053
 5499.00    2.50564   2.39019   18.294
 5500.00    2.51757   2.39067   -1.000
 5501.00    2.49536   2.37226   18.379
 5502.00    2.46854   2.35266   18.278
 5503.00    2.46428   2.35100   18.395
 5504.00    2.47367   2.35675   18.626
 5505.00    2.45826   2.35174   18.619
 5506.00    2.43058   2.33425   18.361
 5507.00    2.43913   2.32623   18.173
 5508.00    2.47221   2.34445   18.211
 5509.00    2.48911   2.37300   18.465
 5510.00    2.48444   2.38522   18.811
 5511.00    2.46278   2.36810   19.043
 5512.00    2.43676   2.33290   18.997
 5513.00    2.42580   2.30452   18.693
 5514.00    2.44193   2.30178   -1.000
 5515.00    2.48142   2.32451   -1.000
 5516.00    2.52220   2.36034   -1.000
 5517.00    2.55166   2.39980   -1.000
 5518.00    2.57581   2.43640   -1.000
 5519.00    2.60091   2.46318   -1.000
 5520.00    2.59326   2.47489   17.680
 5521.00    2.57265   2.47505   17.727
 5522.00    2.57056   2.47287   17.795
 5523.00    2.56659   2.47196   17.978
 5524.00    2.55380   2.46384   18.319
 5525.00    2.53060   2.43780   18.779
 5526.00    2.49280   2.39192   19.068
 5527.00    2.43740   2.33905   18.877
 5528.00    2.39935   2.30653   18.394
 5529.00    2.43275   2.31778   18.036
 5530.00    2.49178   2.36867   17.958
 5531.00    2.52579   2.42174   18.078
 5532.00    2.52677   2.44619   18.211
 5533.00    2.51273   2.44241   18.215
 5534.00    2.50469   2.42715   18.098
 5535.00    2.50791   2.41679   18.001
 5536.00    2.52496   2.41980   17.944
 5537.00    2.55062   2.43302   17.811
 5538.00    2.57547   2.44601   17.650
 5539.00    2.58523   2.45808   17.591
 5540.00    2.59645   2.47392   17.699
 5541.00    2.60636   2.48532   17.890
 5542.00    2.58951   2.48078   17.998
 5543.00    2.56372   2.46486   17.985
 5544.00    2.54689   2.45229   17.936
 5545.00    2.55075   2.45260   17.857
 5546.00    2.57871   2.46194   17.705
 5547.00    2.60610   2.47556   17.541
 5548.00    2.63198   2.49542   -1.000
 5549.00    2.65594   2.51618   -1.000
 5550.00    2.66058   2.52728   -1.000
 5551.00    2.64774   2.52654   17.805
 5552.00    2.64110   2.51539   17.949
 5553.00    2.63088   2.49784   -1.000
 5554.00    2.60118   2.48327   17.919
 5555.00    2.60316   2.47960   17.875
 5556.00    2.62429   2.48422   -1.000
 5557.00    2.61872   2.48915   17.830
 5558.00    2.60783   2.49360   17.842
 5559.00    2.61410   2.49907   17.913
 5560.00    2.62518   2.49982   18.057
 5561.00    2.62202   2.48907   -1.000
 5562.00    2.60432   2.47027   -1.000
 5563.00    2.57746   2.45431   18.338
 5564.00    2.55256   2.44517   18.365
 5565.00    2.54728   2.43878   18.352
 5566.00    2.55728   2.43241   18.310
 5567.00    2.55680   2.42737   -1.000
 5568.00    2.54575   2.42489   18.344
 5569.00    2.54433   2.42441   18.335
 5570.00    2.54276   2.42437   18.366
 5571.00    2.52764   2.42205   18.351
 5572.00    2.47883   2.41589   18.200
 5573.00    2.29180   2.41189   18.022
 5574.00    2.16485   2.42110   -1.000
 5575.00    2.27131   2.43949   17.524
 5576.00    2.52985   2.45415   17.551
 5577.00    2.95009   2.46665   -1.000
 5578.00    3.15313   2.48241   -1.000
 5579.00    2.94129   2.49615   -1.000
 5580.00    2.70798   2.50101   -1.000
 5581.00    2.62997   2.49817   -1.000
 5582.00    2.61609   2.49262   18.121
 5583.00    2.62345   2.48689   -1.000
 5584.00    2.61589   2.47619   -1.000
 5585.00    2.56333   2.44610   -1.000
 5586.00    2.49218   2.38795   19.580
 5587.00    2.44271   2.32220   19.503
 5588.00    2.42729   2.28151   -1.000
 5589.00    2.44852   2.27969   -1.000
 5590.00    2.48343   2.31081   -1.000
 5591.00    2.50359   2.35455   -1.000
 5592.00    2.52223   2.38810   -1.000
 5593.00    2.53201   2.40224   -1.000
 5594.00    2.53565   2.40993   -1.000
 5595.00    2.56056   2.42601   -1.000
 5596.00    2.58686   2.44637   -1.000
 5597.00    2.58195   2.45013   -1.000
 5598.00    2.55586   2.42763   -1.000
 5599.00    2.53496   2.39865   -1.000
 5600.00    2.52488   2.37904   -1.000
 5601.00    2.51444   2.36356   -1.000
 5602.00    2.49384   2.35770   -1.000
 5603.00    2.51054   2.37936   18.050
 5604.00    2.57342   2.43111   -1.000
 5605.00    2.63339   2.49484   -1.000
 5606.00    2.67981   2.54602   -1.000
 5607.00    2.69439   2.57346   17.688
 5608.00    2.68888   2.58230   17.695
 5609.00    2.69159   2.58293   17.653
 5610.00    2.70477   2.58456   17.673
 5611.00    2.71272   2.58845   17.922
 5612.00    2.69454   2.58160   18.450
 5613.00    2.64756   2.54466   18.990
 5614.00    2.58581   2.47572   19.083
 5615.00    2.52093   2.40207   18.724
 5616.00    2.51071   2.36874   -1.000
 5617.00    2.56814   2.39340   -1.000
 5618.00    2.61035   2.44174   -1.000
 5619.00    2.62803   2.47978   -1.000
 5620.00    2.64435   2.50300   -1.000
 5621.00    2.65707   2.51727   -1.000
 5622.00    2.65324   2.51828   -1.000
 5623.00    2.62256   2.49751   -1.000
 5624.00    2.57825   2.46450   18.579
 5625.00    2.55888   2.44618   18.279
 5626.00    2.58528   2.45812   18.048
 5627.00    2.64008   2.49142   -1.000
 5628.00    2.67182   2.52645   -1.000
 5629.00    2.67595   2.55216   17.744
 5630.00    2.69001   2.56838   17.722
 5631.00    2.70204   2.57442   17.814
 5632.00    2.70390   2.56946   -1.000
 5633.00    2.69749   2.55821   -1.000
 5634.00    2.67844   2.54455   -1.000
 5635.00    2.65750   2.52864   -1.000
 5636.00    2.64017   2.51342   -1.000
 5637.00    2.62199   2.50280   18.363
 5638.00    2.61611   2.49989   18.390
 5639.00    2.62366   2.50324   18.427
 5640.00    2.61897   2.50393   18.386
 5641.00    2.62101   2.49926   18.301
 5642.00    2.62806   2.49883   -1.000
 5643.00    2.62915   2.50608   18.165
 5644.00    2.63827   2.51567   18.075
 5645.00    2.64813   2.52564   18.032
 5646.00    2.65840   2.53527   17.996
 5647.00    2.66917   2.54088   -1.000
 5648.00    2.68577   2.54049   -1.000
 5649.00    2.69016   2.53694   -1.000
 5650.00    2.69392   2.53776   -1.000
 5651.00    2.70841   2.54664   -1.000
 5652.00    2.72082   2.55552   -1.000
 5653.00    2.70818   2.55462   -1.000
 5654.00    2.68163   2.54272   -1.000
 5655.00    2.66088   2.52421   -1.000
 5656.00    2.61573   2.49738   -1.000
 5657.00    2.56063   2.45768   19.317
 5658.00    2.51401   2.41912   18.922
 5659.00    2.50451   2.40840   18.700
 5660.00    2.55405   2.42802   -1.000
 5661.00    2.59749   2.45388   -1.000
 5662.00    2.60345   2.46955   -1.000
 5663.00    2.60498   2.48184   18.193
 5664.00    2.63224   2.50426   -1.000
 5665.00    2.66162   2.53035   -1.000
 5666.00    2.65586   2.54171   18.402
 5667.00    2.63709   2.53670   18.379
 5668.00    2.62632   2.52877   18.286
 5669.00    2.63003   2.52853   18.140
 5670.00    2.65489   2.53736   17.966
 5671.00    2.68074   2.55232   -1.000
 5672.00    2.70070   2.57014   -1.000
 5673.00    2.71788   2.58616   -1.000
 5674.00    2.73091   2.59556   -1.000
 5675.00    2.74320   2.59741   -1.000
 5676.00    2.74179   2.59780   -1.000
 5677.00    2.73763   2.60067   -1.000
 5678.00    2.74035   2.60157   -1.000
 5679.00    2.73807   2.59423   -1.000
 5680.00    2.72921   2.57720   -1.000
 5681.00    2.70751   2.55118   -1.000
 5682.00    2.67431   2.52191   -1.000
 5683.00    2.65718   2.50282   -1.000
 5684.00    2.66171   2.50396   -1.000
 5685.00    2.66522   2.51852   -1.000
 5686.00    2.65906   2.52580   -1.000
 5687.00    2.65294   2.51751   -1.000
 5688.00    2.65467   2.50675   -1.000
 5689.00    2.67295   2.51042   -1.000
 5690.00    2.70152   2.53420   -1.000
 5691.00    2.72224   2.56727   -1.000
 5692.00    2.74946   2.59441   -1.000
 5693.00    2.76277   2.60907   -1.000
 5694.00    2.74363   2.61388   -1.000
 5695.00    2.73497   2.61337   -1.000
 5696.00    2.72989   2.60862   -1.000
 5697.00    2.71486   2.59888   18.333
 5698.00    2.69662   2.58212   18.513
 5699.00    2.67027   2.56094   18.647
 5700.00    2.64400   2.54100   18.591
 5701.00    2.60783   2.52725   18.406
 5702.00    2.58888   2.52531   18.299
 5703.00    2.60594   2.53481   18.364
 5704.00    2.62966   2.54606   18.578
 5705.00    2.64327   2.54532   18.900
 5706.00    2.63301   2.52779   19.223
 5707.00    2.59006   2.49891   19.406
 5708.00    2.53989   2.46574   19.413
 5709.00    2.51573   2.43786   19.266
 5710.00    2.51846   2.42784   18.939
 5711.00    2.54435   2.43992   18.490
 5712.00    2.60334   2.47254   -1.000
 5713.00    2.66487   2.52002   -1.000
 5714.00    2.69487   2.56621   -1.000
 5715.00    2.71118   2.59638   17.907
 5716.00    2.72892   2.61094   17.830
 5717.00    2.74942   2.61942   -1.000
 5718.00    2.77211   2.62764   -1.000
 5719.00    2.78893   2.63866   -1.000
 5720.00    2.80306   2.65347   -1.000
 5721.00    2.81524   2.66900   -1.000
 5722.00    2.82127   2.68063   -1.000
 5723.00    2.82363   2.68686   -1.000
 5724.00    2.81190   2.68657   -1.000
 5725.00    2.78619   2.67557   17.985
 5726.00    2.75786   2.65474   17.979
 5727.00    2.73407   2.63710   17.862
 5728.00    2.73748   2.63379   17.850
 5729.00    2.76498   2.64168   -1.000
 5730.00    2.77943   2.64764   -1.000
 5731.00    2.77779   2.64498   -1.000
 5732.00    2.78493   2.64368   -1.000
 5733.00    2.79776   2.65460   -1.000
 5734.00    2.80568   2.67359   -1.000
 5735.00    2.80363   2.68670   17.683
 5736.00    2.79419   2.68702   17.714
 5737.00    2.79209   2.68025   17.740
 5738.00    2.79153   2.67514   17.773
 5739.00    2.78742   2.67531   17.807
 5740.00    2.77894   2.67720   17.797
 5741.00    2.77754   2.67592   17.766
 5742.00    2.78414   2.67262   17.681
 5743.00    2.79194   2.67392   17.564
 5744.00    2.79289   2.68271   17.590
 5745.00    2.79750   2.69229   17.746
 5746.00    2.80525   2.69122   17.860
 5747.00    2.78407   2.67966   17.814
 5748.00    2.77678   2.67192   17.730
 5749.00    2.79928   2.67742   -1.000
 5750.00    2.81544   2.68493   -1.000
 5751.00    2.81131   2.67582   -1.000
 5752.00    2.77718   2.64779   -1.000
 5753.00    2.72197   2.61836   18.106
 5754.00    2.71930   2.61033   17.797
 5755.00    2.77207   2.63285   -1.000
 5756.00    2.81669   2.67230   -1.000
 5757.00    2.84166   2.70606   -1.000
 5758.00    2.84689   2.71910   -1.000
 5759.00    2.82822   2.70989   -1.000
 5760.00    2.78530   2.68440   18.273
 5761.00    2.74385   2.65157   18.176
 5762.00    2.72966   2.62579   17.884
 5763.00    2.73946   2.62488   17.621
 5764.00    2.76796   2.65243   17.512
 5765.00    2.80570   2.69234   17.488
 5766.00    2.83319   2.72226   17.464
 5767.00    2.83601   2.73443   17.474
 5768.00    2.82389   2.73508   17.527
 5769.00    2.81055   2.73165   17.611
 5770.00    2.79699   2.72682   17.718
 5771.00    2.77937   2.71886   17.788
 5772.00    2.76624   2.70636   17.815
 5773.00    2.74558   2.69358   17.799
 5774.00    2.71849   2.68634   17.726
 5775.00    2.70005   2.68679   17.679
 5776.00    2.65423   2.69430   17.712
 5777.00    2.57670   2.70015   17.896
 5778.00    2.52035   2.69088   18.259
 5779.00    2.50861   2.66220   18.571
 5780.00    2.53128   2.62222   18.631
 5781.00    2.57939   2.58669   18.560
 5782.00    2.62582   2.57003   18.491
 5783.00    2.64882   2.57213   18.424
 5784.00    2.65922   2.58064   18.270
 5785.00    2.67940   2.58888   18.034
 5786.00    2.71075   2.60526   17.856
 5787.00    2.75075   2.63438   17.822
 5788.00    2.78612   2.66245   -1.000
 5789.00    2.78931   2.67469   17.904
 5790.00    2.77544   2.67122   17.795
 5791.00    2.77093   2.66646   17.658
 5792.00    2.76879   2.67603   17.548
 5793.00    2.75630   2.70002   17.501
 5794.00    2.74551   2.72618   17.567
 5795.00    2.75804   2.74218   17.682
 5796.00    2.78045   2.74135   17.672
 5797.00    2.79279   2.72796   17.489
 5798.00    2.79972   2.71948   17.248
 5799.00    2.82400   2.72924   17.134
 5800.00    2.87017   2.75135   -1.000
 5801.00    2.89311   2.77024   -1.000
 5802.00    2.88621   2.77507   -1.000
 5803.00    2.86224   2.76446   17.607
 5804.00    2.84872   2.74566   17.607
 5805.00    2.83600   2.73123   17.545
 5806.00    2.82825   2.72869   17.487
 5807.00    2.84496   2.73515   17.467
 5808.00    2.85583   2.74327   17.459
 5809.00    2.86561   2.74994   -1.000
 5810.00    2.88721   2.75605   -1.000
 5811.00    2.89033   2.75981   -1.000
 5812.00    2.88605   2.75840   -1.000
 5813.00    2.89580   2.75123   -1.000
 5814.00    2.89177   2.73792   -1.000
 5815.00    2.86914   2.72074   -1.000
 5816.00    2.86227   2.71130   -1.000
 5817.00    2.88593   2.72170   -1.000
 5818.00    2.90790   2.74658   -1.000
 5819.00    2.91606   2.76809   -1.000
 5820.00    2.92173   2.77680   -1.000
 5821.00    2.91517   2.77601   -1.000
 5822.00    2.90935   2.77259   -1.000
 5823.00    2.91965   2.77047   -1.000
 5824.00    2.92863   2.77000   -1.000
 5825.00    2.91797   2.77142   -1.000
 5826.00    2.91946   2.77576   -1.000
 5827.00    2.94269   2.78166   -1.000
 5828.00    2.94166   2.78627   -1.000
 5829.00    2.93245   2.78814   -1.000
 5830.00    2.94039   2.78845   -1.000
 5831.00    2.93259   2.78807   -1.000
 5832.00    2.91994   2.78603   -1.000
 5833.00    2.92779   2.78055   -1.000
 5834.00    2.93231   2.77320   -1.000
 5835.00    2.93296   2.76994   -1.000
 5836.00    2.93484   2.77391   -1.000
 5837.00    2.93456   2.77985   -1.000
 5838.00    2.92693   2.78229   -1.000
 5839.00    2.92091   2.78438   -1.000
 5840.00    2.92887   2.79067   -1.000
 5841.00    2.92802   2.79919   -1.000
 5842.00    2.92686   2.80376   -1.000
 5843.00    2.93138   2.80163   -1.000
 5844.00    2.93573   2.79422   -1.000
 5845.00    2.92732   2.78235   -1.000
 5846.00    2.90075   2.76783   -1.000
 5847.00    2.87930   2.75632   -1.000
 5848.00    2.86693   2.75270   17.517
 5849.00    2.87486   2.75322   -1.000
 5850.00    2.87580   2.74865   -1.000
 5851.00    2.86923   2.73382   -1.000
 5852.00    2.85148   2.71284   -1.000
 5853.00    2.82456   2.69571   -1.000
 5854.00    2.81401   2.68588   -1.000
 5855.00    2.81953   2.67520   -1.000
 5856.00    2.80316   2.64972   -1.000
 5857.00    2.78335   2.61462   -1.000
 5858.00    2.79263   2.60029   -1.000
 5859.00    2.83665   2.62120   -1.000
 5860.00    2.85546   2.65924   -1.000
 5861.00    2.85503   2.69036   -1.000
 5862.00    2.85855   2.70653   -1.000
 5863.00    2.87080   2.71571   -1.000
 5864.00    2.88526   2.72208   -1.000
 5865.00    2.88338   2.71875   -1.000
 5866.00    2.86203   2.70668   -1.000
 5867.00    2.85170   2.69954   -1.000
 5868.00    2.87986   2.70926   -1.000
 5869.00    2.90961   2.73316   -1.000
 5870.00    2.92511   2.75637   -1.000
 5871.00    2.93729   2.76670   -1.000
 5872.00    2.94373   2.76293   -1.000
 5873.00    2.93229   2.75294   -1.000
 5874.00    2.91737   2.74434   -1.000
 5875.00    2.92341   2.73889   -1.000
 5876.00    2.92687   2.73389   -1.000
 5877.00    2.91241   2.72704   -1.000
 5878.00    2.88385   2.71730   -1.000
 5879.00    2.86243   2.70551   -1.000
 5880.00    2.83610   2.69511   -1.000
 5881.00    2.77646   2.68774   17.876
 5882.00    2.69633   2.67969   17.917
 5883.00    2.61625   2.66705   17.960
 5884.00    2.52140   2.65201   18.127
 5885.00    2.35027   2.63583   -1.000
 5886.00    2.05533   2.60041   -1.000
 5887.00    1.74589   2.50986   -1.000
 5888.00    1.63138   2.35293   -1.000
 5889.00    1.75582   2.17847   -1.000
 5890.00    1.97950   2.08129   20.594
 5891.00    2.10544   2.10989   20.038
 5892.00    2.05664   2.20199   20.080
 5893.00    1.94839   2.26450   -1.000
 5894.00    1.94083   2.25426   -1.000
 5895.00    2.10082   2.20021   20.282
 5896.00    2.33835   2.17327   -1.000
 5897.00    2.53915   2.22398   -1.000
 5898.00    2.68525   2.33256   -1.000
 5899.00    2.76875   2.44010   -1.000
 5900.00    2.80439   2.52416   -1.000
 5901.00    2.83703   2.59024   -1.000
 5902.00    2.86234   2.63825   -1.000
 5903.00    2.86960   2.66664   -1.000
 5904.00    2.87027   2.67977   -1.000
 5905.00    2.87111   2.68580   -1.000
 5906.00    2.87655   2.69213   -1.000
 5907.00    2.88286   2.70078   -1.000
 5908.00    2.88491   2.71030   -1.000
 5909.00    2.88513   2.71942   -1.000
 5910.00    2.88917   2.72655   -1.000
 5911.00    2.89357   2.72763   -1.000
 5912.00    2.87025   2.71701   -1.000
 5913.00    2.84041   2.69391   -1.000
 5914.00    2.82123   2.67006   -1.000
 5915.00    2.81987   2.65910   -1.000
 5916.00    2.82181   2.66449   -1.000
 5917.00    2.82793   2.68242   -1.000
 5918.00    2.86220   2.70574   -1.000
 5919.00    2.89074   2.72455   -1.000
 5920.00    2.87650   2.73295   -1.000
 5921.00    2.85053   2.73279   -1.000
 5922.00    2.84717   2.72932   17.977
 5923.00    2.86454   2.72900   -1.000
 5924.00    2.89833   2.73534   -1.000
 5925.00    2.92789   2.74671   -1.000
 5926.00    2.92656   2.75592   -1.000
 5927.00    2.90331   2.75364   -1.000
 5928.00    2.88246   2.73744   -1.000
 5929.00    2.85990   2.71784   -1.000
 5930.00    2.85364   2.70998   -1.000
 5931.00    2.88866   2.71960   -1.000
 5932.00    2.90505   2.73485   -1.000
 5933.00    2.89756   2.73930   -1.000
 5934.00    2.88715   2.73559   -1.000
 5935.00    2.87258   2.73833   -1.000
 5936.00    2.90032   2.75167   -1.000
 5937.00    2.93028   2.76684   -1.000
 5938.00    2.92259   2.77344   -1.000
 5939.00    2.91581   2.76765   -1.000
 5940.00    2.90938   2.75287   -1.000
 5941.00    2.89288   2.73833   -1.000
 5942.00    2.88793   2.73428   -1.000
 5943.00    2.89599   2.74274   -1.000
 5944.00    2.90560   2.75706   -1.000
 5945.00    2.91292   2.76768   -1.000
 5946.00    2.90879   2.76796   -1.000
 5947.00    2.88846   2.75684   -1.000
 5948.00    2.86993   2.74236   -1.000
 5949.00    2.87680   2.73623   -1.000
 5950.00    2.88271   2.74024   -1.000
 5951.00    2.87506   2.74370   -1.000
 5952.00    2.87916   2.73849   -1.000
 5953.00    2.89057   2.73329   -1.000
 5954.00    2.89910   2.73660   -1.000
 5955.00    2.90556   2.73913   -1.000
 5956.00    2.88488   2.73375   -1.000
 5957.00    2.87249   2.72930   -1.000
 5958.00    2.89485   2.73623   -1.000
 5959.00    2.92250   2.75559   -1.000
 5960.00    2.94497   2.77846   -1.000
 5961.00    2.95438   2.79488   -1.000
 5962.00    2.95002   2.80191   -1.000
 5963.00    2.95590   2.80081   -1.000
 5964.00    2.94738   2.79320   -1.000
 5965.00    2.91611   2.78332   -1.000
 5966.00    2.89184   2.77805   17.917
 5967.00    2.90455   2.78139   -1.000
 5968.00    2.92244   2.79038   -1.000
 5969.00    2.94226   2.80102   -1.000
 5970.00    2.95713   2.81197   -1.000
 5971.00    2.93924   2.81978   -1.000
 5972.00    2.93732   2.82128   -1.000
 5973.00    2.94994   2.81547   -1.000
 5974.00    2.93849   2.80077   -1.000
 5975.00    2.90487   2.77813   -1.000
 5976.00    2.89675   2.75555   -1.000
 5977.00    2.90283   2.74449   -1.000
 5978.00    2.90691   2.75080   -1.000
 5979.00    2.92121   2.77002   -1.000
 5980.00    2.92913   2.78983   -1.000
 5981.00    2.93390   2.79607   -1.000
 5982.00    2.91758   2.78213   -1.000
 5983.00    2.88277   2.75534   -1.000
 5984.00    2.86905   2.73463   -1.000
 5985.00    2.88206   2.73459   -1.000
 5986.00    2.89176   2.75168   -1.000
 5987.00    2.91364   2.77209   -1.000
 5988.00    2.92797   2.78792   -1.000
 5989.00    2.93909   2.79806   -1.000
 5990.00    2.94821   2.80259   -1.000
 5991.00    2.93906   2.80548   -1.000
 5992.00    2.93310   2.81515   -1.000
 5993.00    2.93906   2.83332   17.843
 5994.00    2.95396   2.84634   -1.000
 5995.00    2.95570   2.84264   -1.000
 5996.00    2.94376   2.82631   -1.000
 5997.00    2.92937   2.80962   -1.000
 5998.00    2.92821   2.80269   -1.000
 5999.00    2.93601   2.80547   -1.000
 6000.00    2.93314   2.80978   -1.000
 6001.00    2.92242   2.80746   -1.000
 6002.00    2.90758   2.79822   -1.000
 6003.00    2.89145   2.79110   18.226
 6004.00    2.88403   2.79254   18.326
 6005.00    2.87884   2.79310   18.502
 6006.00    2.86416   2.77901   18.557
 6007.00    2.83894   2.75563   18.395
 6008.00    2.82838   2.74472   18.190
 6009.00    2.86197   2.75930   18.143
 6010.00    2.90536   2.78767   -1.000
 6011.00    2.92424   2.80473   -1.000
 6012.00    2.92822   2.80240   -1.000
 6013.00    2.91071   2.79256   -1.000
 6014.00    2.90197   2.78610   -1.000
 6015.00    2.91945   2.78440   -1.000
 6016.00    2.91582   2.78292   -1.000
 6017.00    2.90431   2.78078   -1.000
 6018.00    2.90731   2.77761   -1.000
 6019.00    2.90129   2.76969   -1.000
 6020.00    2.87913   2.75923   -1.000
 6021.00    2.88083   2.75591   -1.000
 6022.00    2.88742   2.76285   -1.000
 6023.00    2.88680   2.77325   -1.000
 6024.00    2.89898   2.78617   -1.000
 6025.00    2.92830   2.80606   -1.000
 6026.00    2.96682   2.82764   -1.000
 6027.00    2.97133   2.84373   -1.000
 6028.00    2.97530   2.85746   -1.000
 6029.00    2.99725   2.87050   -1.000
 6030.00    2.99531   2.87881   -1.000
 6031.00    2.98580   2.88291   17.852
 6032.00    2.97502   2.88789   17.795
 6033.00    2.97755   2.89630   17.779
 6034.00    2.98377   2.90522   17.754
 6035.00    2.98398   2.90893   17.757
 6036.00    2.97937   2.90619   17.839
 6037.00    2.97863   2.90001   17.897
 6038.00    2.99974   2.89192   -1.000
 6039.00    2.98211   2.88276   17.934
 6040.00    2.95338   2.87557   17.901
 6041.00    2.95887   2.87396   17.830
 6042.00    2.99288   2.87890   -1.000
 6043.00    3.00963   2.88887   -1.000
 6044.00    3.01772   2.90069   -1.000
 6045.00    3.01405   2.91039   -1.000
 6046.00    3.00645   2.91721   17.659
 6047.00    3.02531   2.92351   -1.000
 6048.00    3.03852   2.92917   -1.000
 6049.00    3.03797   2.93222   -1.000
 6050.00    3.01981   2.93223   17.808
 6051.00    3.01760   2.92936   17.871
 6052.00    3.02448   2.92176   -1.000
 6053.00    3.01174   2.90842   -1.000
 6054.00    2.98969   2.89186   18.089
 6055.00    2.97991   2.87690   -1.000
 6056.00    2.98863   2.87015   -1.000
 6057.00    2.98986   2.87518   -1.000
 6058.00    2.98952   2.88845   17.892
 6059.00    3.02017   2.90244   -1.000
 6060.00    3.02603   2.91145   -1.000
 6061.00    3.01577   2.91103   -1.000
 6062.00    3.02935   2.89721   -1.000
 6063.00    2.46145   2.86982   -1.000
 6064.00    1.63724   2.83717   -1.000
 6065.00    2.03602   2.81933   -1.000
 6066.00    2.80597   2.83268   18.962
 6067.00    2.93290   2.86790   17.929
 6068.00    3.04394   2.90369   -1.000
 6069.00    1.79576   2.92897   -1.000
 6070.00    1.49474   2.94298   -1.000
 6071.00    2.69399   2.94935   -1.000
 6072.00    3.10844   2.95209   -1.000
 6073.00    3.04282   2.95380   17.789
 6074.00    3.04986   2.95363   -1.000
 6075.00    3.04115   2.94815   -1.000
 6076.00    3.03218   2.93527   -1.000
 6077.00    3.01900   2.91609   -1.000
 6078.00    2.99552   2.89672   -1.000
 6079.00    2.99020   2.88447   -1.000
 6080.00    2.99967   2.87806   -1.000
 6081.00    2.99611   2.87147   -1.000
 6082.00    2.97096   2.86586   -1.000
 6083.00    2.95663   2.86451   18.302
 6084.00    2.96626   2.86641   -1.000
 6085.00    2.96756   2.87219   18.189
 6086.00    2.97152   2.88305   18.193
 6087.00    2.99072   2.89390   -1.000
 6088.00    2.98988   2.89645   -1.000
 6089.00    2.97068   2.88920   18.391
 6090.00    2.95197   2.87840   18.299
 6091.00    2.94038   2.87257   18.196
 6092.00    2.96074   2.87664   18.098
 6093.00    2.99746   2.88944   -1.000
 6094.00    3.01039   2.90543   -1.000
 6095.00    3.01368   2.91869   18.035
 6096.00    3.02889   2.92740   -1.000
 6097.00    3.02804   2.93318   -1.000
 6098.00    3.02604   2.93603   18.216
 6099.00    3.01637   2.92732   -1.000
 6100.00    2.98538   2.89423   -1.000
 6101.00    2.92724   2.83652   18.939
 6102.00    2.86609   2.77946   18.620
 6103.00    2.85818   2.76174   18.312
 6104.00    2.91243   2.79252   -1.000
 6105.00    2.95529   2.84180   -1.000
 6106.00    2.98337   2.88133   -1.000
 6107.00    2.98018   2.90542   18.297
 6108.00    2.97754   2.92115   18.264
 6109.00    2.99411   2.93249   18.193
 6110.00    2.99744   2.93676   18.167
 6111.00    2.99427   2.93670   18.099
 6112.00    2.99475   2.94004   18.037
 6113.00    3.00117   2.94855   18.079
 6114.00    3.00086   2.95659   18.189
 6115.00    2.99364   2.95739   18.242
 6116.00    2.99282   2.95230   18.309
 6117.00    2.99472   2.94599   18.531
 6118.00    2.98941   2.93308   18.786
 6119.00    2.96034   2.90317   18.981
 6120.00    2.92996   2.85311   19.039
 6121.00    2.88590   2.79787   18.810
 6122.00    2.87670   2.76716   -1.000
 6123.00    2.90439   2.77554   -1.000
 6124.00    2.95082   2.81081   -1.000
 6125.00    2.97983   2.84996   -1.000
 6126.00    2.96175   2.87706   18.534
 6127.00    2.94101   2.89118   18.412
 6128.00    2.95497   2.90206   18.240
 6129.00    2.96372   2.91947   18.166
 6130.00    2.97927   2.94228   18.187
 6131.00    3.00352   2.96222   18.324
 6132.00    2.99495   2.97093   18.680
 6133.00    2.96574   2.95806   19.209
 6134.00    2.91547   2.91234   19.721
 6135.00    2.85174   2.83706   19.893
 6136.00    2.78075   2.76223   19.523
 6137.00    2.77256   2.73098   18.968
 6138.00    2.82449   2.75443   18.671
 6139.00    2.89278   2.79764   -1.000
 6140.00    2.92155   2.83014   -1.000
 6141.00    2.91454   2.85401   18.559
 6142.00    2.91900   2.88284   18.336
 6143.00    2.94857   2.91788   18.258
 6144.00    2.97013   2.94558   18.320
 6145.00    2.99736   2.95624   18.432
 6146.00    2.99965   2.95203   18.562
 6147.00    2.98751   2.93869   18.678
 6148.00    2.96349   2.92159   18.707
 6149.00    2.93769   2.90483   18.652
 6150.00    2.93403   2.89433   18.535
 6151.00    2.94676   2.89766   18.482
 6152.00    2.95284   2.91009   18.597
 6153.00    2.94844   2.91468   18.716
 6154.00    2.93630   2.90523   18.747
 6155.00    2.92089   2.89223   18.806
 6156.00    2.90947   2.88485   18.978
 6157.00    2.90720   2.87953   19.303
 6158.00    2.88605   2.86238   19.840
 6159.00    2.83564   2.81582   20.432
 6160.00    2.77039   2.73526   20.730
 6161.00    2.68569   2.64418   20.536
 6162.00    2.63594   2.58431   20.016
 6163.00    2.66125   2.58240   19.639
 6164.00    2.71305   2.62600   19.510
 6165.00    2.75095   2.68303   19.534
 6166.00    2.77546   2.72668   19.742
 6167.00    2.77730   2.73909   19.964
 6168.00    2.75502   2.71937   19.902
 6169.00    2.71982   2.69688   19.561
 6170.00    2.71894   2.70522   19.254
 6171.00    2.76362   2.74256   19.206
 6172.00    2.80547   2.78530   19.232
 6173.00    2.82927   2.81829   19.198
 6174.00    2.82566   2.83864   19.157
 6175.00    2.81069   2.84841   19.110
 6176.00    2.81742   2.85422   19.025
 6177.00    2.84290   2.86277   18.948
 6178.00    2.86022   2.87296   18.887
 6179.00    2.86403   2.88146   18.806
 6180.00    2.87577   2.89082   18.747
 6181.00    2.89773   2.90373   18.766
 6182.00    2.90875   2.91504   18.828
 6183.00    2.90070   2.91718   18.959
 6184.00    2.88254   2.90823   19.157
 6185.00    2.88005   2.89089   19.360
 6186.00    2.87075   2.86939   19.547
 6187.00    2.83956   2.84911   19.699
 6188.00    2.81467   2.83017   19.928
 6189.00    2.79374   2.80397   20.093
 6190.00    2.77471   2.76892   19.946
 6191.00    2.74862   2.74719   19.501
 6192.00    2.75185   2.76092   19.135
 6193.00    2.80342   2.79972   18.979
 6194.00    2.84379   2.83981   18.936
 6195.00    2.87091   2.87026   19.026
 6196.00    2.88963   2.88799   19.231
 6197.00    2.88936   2.89051   19.406
 6198.00    2.85055   2.87845   19.427
 6199.00    2.79658   2.86181   19.265
 6200.00    2.76387   2.85661   19.027
 6201.00    2.78043   2.86817   18.929
 6202.00    2.81781   2.88873   18.926
 6203.00    2.86782   2.90926   18.902
 6204.00    2.89381   2.92483   18.893
 6205.00    2.90179   2.93466   18.951
 6206.00    2.91289   2.94072   18.969
 6207.00    2.90835   2.94474   19.030
 6208.00    2.90116   2.94477   19.188
 6209.00    2.90281   2.93685   19.347
 6210.00    2.89369   2.91847   19.526
 6211.00    2.87265   2.88844   19.802
 6212.00    2.85344   2.84954   20.030
 6213.00    2.81341   2.81250   20.112
 6214.00    2.77806   2.78971   19.915
 6215.00    2.77320   2.78451   19.770
 6216.00    2.80782   2.78981   19.873
 6217.00    2.82575   2.79357   19.859
 6218.00    2.81549   2.78960   19.718
 6219.00    2.82255   2.78454   19.778
 6220.00    2.77260   2.78950   20.944
 6221.00    2.48152   2.80519   -1.000
 6222.00    2.65298   2.82053   19.815
 6223.00    2.84765   2.82962   19.568
 6224.00    2.87308   2.83507   19.598
 6225.00    2.87455   2.83893   19.684
 6226.00    2.85763   2.83929   19.921
 6227.00    2.84775   2.82872   20.245
 6228.00    2.84567   2.79970   20.523
 6229.00    2.80867   2.75663   20.512
 6230.00    2.76237   2.71975   20.251
 6231.00    2.74521   2.71041   19.882
 6232.00    2.76844   2.73310   19.544
 6233.00    2.83347   2.77554   19.404
 6234.00    2.87304   2.81815   19.493
 6235.00    2.90185   2.84467   19.682
 6236.00    2.88713   2.84921   19.883
 6237.00    2.86036   2.83714   20.094
 6238.00    2.83120   2.81937   20.207
 6239.00    2.81764   2.80382   20.215
 6240.00    2.81581   2.79285   20.326
 6241.00    2.80120   2.78358   20.470
 6242.00    2.78649   2.77097   20.489
 6243.00    2.77928   2.75464   20.379
 6244.00    2.76167   2.74030   20.190
 6245.00    2.76154   2.73559   19.943
 6246.00    2.78667   2.74922   19.723
 6247.00    2.81133   2.78204   19.662
 6248.00    2.86083   2.82084   19.805
 6249.00    2.88316   2.84541   20.138
 6250.00    2.85431   2.84203   20.420
 6251.00    2.81200   2.81299   20.580
 6252.00    2.77587   2.77526   20.653
 6253.00    2.76957   2.74825   20.657
 6254.00    2.75955   2.73765   20.799
 6255.00    2.74469   2.73544   20.993
 6256.00    2.74960   2.73159   20.965
 6257.00    2.74756   2.72663   20.690
 6258.00    2.74551   2.73008   20.373
 6259.00    2.76256   2.74839   20.090
 6260.00    2.78580   2.78003   19.788
 6261.00    2.82296   2.81788   19.641
 6262.00    2.85608   2.85126   19.747
 6263.00    2.87105   2.86956   19.892
 6264.00    2.85695   2.87329   19.851
 6265.00    2.82821   2.87416   19.711
 6266.00    2.81538   2.88064   19.731
 6267.00    2.81894   2.88885   19.832
 6268.00    2.81575   2.89002   19.835
 6269.00    2.82181   2.88488   19.772
 6270.00    2.83310   2.88297   19.719
 6271.00    2.84432   2.88916   19.750
 6272.00    2.85097   2.89770   19.876
 6273.00    2.82706   2.89626   20.036
 6274.00    2.77335   2.87800   20.322
 6275.00    2.70550   2.84731   20.800
 6276.00    2.65251   2.81439   21.218
 6277.00    2.62196   2.78830   21.402
 6278.00    2.59473   2.77091   21.362
 6279.00    2.55838   2.76258   -1.000
 6280.00    2.51231   2.76813   -1.000
 6281.00    2.47175   2.78963   -1.000
 6282.00    2.50148   2.82271   -1.000
 6283.00    2.59659   2.85845   -1.000
 6284.00    2.67705   2.88820   19.766
 6285.00    2.74085   2.90918   19.618
 6286.00    2.82011   2.92337   19.558
 6287.00    2.88119   2.93287   19.633
 6288.00    2.89851   2.93486   19.791
 6289.00    2.89462   2.92667   19.945
 6290.00    2.89252   2.91326   20.007
 6291.00    2.89190   2.90176   20.029
 6292.00    2.88575   2.89533   20.062
 6293.00    2.88375   2.89340   20.191
 6294.00    2.87314   2.89108   20.334
 6295.00    2.84980   2.88044   20.387
 6296.00    2.83249   2.86123   20.367
 6297.00    2.80304   2.84522   20.292
 6298.00    2.78373   2.84037   20.201
 6299.00    2.80500   2.83975   20.314
 6300.00    2.82330   2.83305   20.541
 6301.00    2.82000   2.82426   20.461
 6302.00    2.82523   2.82951   20.158
 6303.00    2.84183   2.85464   19.891
 6304.00    2.86657   2.88776   19.707
 6305.00    2.89756   2.91673   19.532
 6306.00    2.92091   2.93873   19.467
 6307.00    2.92333   2.95326   19.532
 6308.00    2.91608   2.95916   19.657
 6309.00    2.92997   2.95817   19.747
 6310.00    2.93281   2.95339   19.825
 6311.00    2.92332   2.94696   19.858
 6312.00    2.90945   2.93843   20.004
 6313.00    2.88467   2.92462   20.106
 6314.00    2.86681   2.90689   20.107
 6315.00    2.84865   2.89056   20.087
 6316.00    2.83190   2.87737   20.105
 6317.00    2.82571   2.86847   20.055
 6318.00    2.84051   2.87113   19.846
 6319.00    2.87676   2.89112   19.637
 6320.00    2.91152   2.91915   19.538
 6321.00    2.93383   2.94105   19.473
 6322.00    2.94948   2.95718   19.376
 6323.00    2.97733   2.97514   19.304
 6324.00    3.00209   2.99287   19.284
 6325.00    3.01078   3.00397   19.207
 6326.00    3.01039   3.00759   19.198
 6327.00    3.00137   3.00775   19.216
 6328.00    3.00787   3.00830   19.229
 6329.00    3.01432   3.00997   19.177
 6330.00    3.02236   3.01416   19.135
 6331.00    3.02974   3.02108   19.170
 6332.00    2.98863   3.02212   19.221
 6333.00    2.94791   3.00603   19.581
 6334.00    2.96306   2.97329   19.730
 6335.00    2.94272   2.93913   19.597
 6336.00    2.93125   2.92266   19.401
 6337.00    2.95037   2.92982   19.190
 6338.00    2.97905   2.95212   19.070
 6339.00    3.01566   2.98023   18.980
 6340.00    3.04659   3.00545   18.970
 6341.00    3.05055   3.01725   19.111
 6342.00    3.02344   3.01198   19.175
 6343.00    3.00149   2.99791   19.135
 6344.00    2.99997   2.98877   19.040
 6345.00    2.99813   2.99229   18.912
 6346.00    3.01756   3.00742   18.826
 6347.00    3.04314   3.03003   18.815
 6348.00    3.05720   3.05352   18.786
 6349.00    3.06169   3.07024   18.789
 6350.00    3.07111   3.07712   18.858
 6351.00    3.06475   3.07481   18.945
 6352.00    3.05653   3.06322   19.135
 6353.00    3.04213   3.04334   19.316
 6354.00    3.01335   3.02201   19.358
 6355.00    2.99911   3.00750   19.400
 6356.00    3.00027   2.99735   19.587
 6357.00    2.98083   2.98317   19.707
 6358.00    2.95097   2.96612   19.659
 6359.00    2.93430   2.95240   19.588
 6360.00    2.94317   2.94175   19.561
 6361.00    2.96199   2.93280   19.505
 6362.00    2.96554   2.92992   19.388
 6363.00    2.96824   2.93742   19.262
 6364.00    2.98428   2.95394   19.154
 6365.00    3.01204   2.97525   19.037
 6366.00    3.02508   2.99825   18.910
 6367.00    3.04307   3.01921   18.844
 6368.00    3.06823   3.03232   18.847
 6369.00    3.08017   3.03675   18.801
 6370.00    3.09725   3.03980   18.727
 6371.00    3.09508   3.04860   18.749
 6372.00    3.07491   3.06216   18.775
 6373.00    3.05329   3.07346   18.809
 6374.00    3.05193   3.07775   18.873
 6375.00    3.06408   3.07516   18.964
 6376.00    3.04183   3.06674   19.087
 6377.00    3.02705   3.05436   19.174
 6378.00    3.03355   3.04159   19.198
 6379.00    3.03262   3.03047   19.229
 6380.00    3.03503   3.02180   19.233
 6381.00    3.05442   3.01694   19.191
 6382.00    3.05761   3.01617   19.248
 6383.00    3.04795   3.01892   19.306
 6384.00    3.04169   3.02602   19.302
 6385.00    3.03919   3.03732   19.343
 6386.00    3.01966   3.04765   19.406
 6387.00    3.03014   3.05220   19.546
 6388.00    3.03615   3.05239   19.704
 6389.00    3.00483   3.04998   19.914
 6390.00    2.98444   3.04009   20.204
 6391.00    2.95004   3.01731   20.408
 6392.00    2.89720   2.98905   20.393
 6393.00    2.86367   2.97408   20.134
 6394.00    2.86338   2.98519   20.036
 6395.00    2.88354   3.01481   20.132
 6396.00    2.91135   3.04032   20.402
 6397.00    2.91058   3.04122   20.842
 6398.00    2.88640   3.01432   21.073
 6399.00    2.82886   2.98105   20.927
 6400.00    2.77724   2.97068   20.609
 6401.00    2.78171   2.99311   20.455
 6402.00    2.81522   3.03387   20.483
 6403.00    2.83771   3.07120   20.586
 6404.00    2.84279   3.09017   -1.000
 6405.00    2.83075   3.08571   -1.000
 6406.00    2.78554   3.06581   -1.000
 6407.00    2.74514   3.04835   -1.000
 6408.00    2.72057   3.04467   -1.000
 6409.00    2.71039   3.04713   -1.000
 6410.00    2.68576   3.04364   -1.000
 6411.00    2.67580   3.03756   -1.000
 6412.00    2.67110   3.03950   -1.000
 6413.00    2.64152   3.05012   -1.000
 6414.00    2.62399   3.06249   -1.000
 6415.00    2.62508   3.07224   -1.000
 6416.00    2.62878   3.07712   -1.000
 6417.00    2.60996   3.07262   -1.000
 6418.00    2.58304   3.05484   -1.000
 6419.00    2.53430   3.02886   -1.000
 6420.00    2.48967   3.00954   -1.000
 6421.00    2.44914   3.01356   -1.000
 6422.00    2.44982   3.04272   -1.000
 6423.00    2.46154   3.07901   -1.000
 6424.00    2.47186   3.10771   -1.000
 6425.00    2.46257   3.12773   -1.000
 6426.00    2.43498   3.13934   -1.000
 6427.00    2.41682   3.13675   -1.000
 6428.00    2.37768   3.11367   -1.000
