###################################################################
## OUTPUT of StarlightChains_v04.for    [Cid@UFSC - 01/Apr/2007] ##
###################################################################

## Some input info
NGC6304_a_1.cxt                          [arq_obs]
Base.BC03.N                              [arq_base]
NGC6304_a_1.msk                          [arq_masks]
StCv04.C11.config                        [arq_config]
   45                                    [N_base]
    0                                    [N_YAV_components = # of components with extra extinction!]
    0                                    [i_FitPowerLaw (1/0 = Yes/No)]
-9.99                                    [alpha_PowerLaw]
CCM                                      [red_law_option]
 1.458241                                [q_norm = A(l_norm)/A(V)]

## (Re)Sampling Parameters
 3359.00                                 [l_ini (A)]
 6428.00                                 [l_fin (A)]
    1.00                                 [dl    (A)]     (OBS: dl_cushion =    50.00 A)

## Normalization info
 4020.00                                 [l_norm (A) - for base]
 4010.00                                 [llow_norm (A) - window for f_obs]
 4060.00                                 [lupp_norm (A) - window for f_obs]
6.037552E-15                             [fobs_norm (in input units)]

## S/N
 4730.00                                 [llow_SN (A) - window for S/N]
 4780.00                                 [lupp_SN (A) - window for S/N]
  34.026                                 [S/N in S/N window]
  19.978                                 [S/N in norm. window]
 118.990                                 [S/N_err in S/N window]
  69.864                                 [S/N_err in norm. window]
  1.0000                                 [fscale_chi2]

## etc...
  2147483619                             [idum_orig]
  3066                                   [NOl_eff]
  1241                                   [Nl_eff]
  1825    NSIGMA                         [Ntot_cliped & clip_method]
   841820                                [Nglobal_steps]
   7                                     [N_chains]
  10                                     [NEX0s_base = N_base in EX0s-fits]
 0   0   1      178   2.0   5.094E+02    [Clip-Bug, RC-Crash & Burn-In warning-flags, n_censored_weights, wei_nsig_threshold & wei_limit]
    10      9.813      9.813      0.000  [idt_all, wdt_TotTime, wdt_UsrTime & wdt_SysTime (sec)]

## Synthesis Results - Best model ##

 2.49965E+00                             [chi2/Nl_eff]
     2.28312                             [adev (%)]

   100.02791                             [sum-of-x (%)]
 3.34342E-14                             [Flux_tot (units of input spectrum!)]
 1.79415E-09                             [Mini_tot (???)]
 9.20177E-10                             [Mcor_tot (???)]

  11.67                                  [v0_min  (km/s)]
  49.92                                  [vd_min  (km/s)]
 1.2742                                  [AV_min  (mag)]
 0.0000                                  [YAV_min (mag)]

# j     x_j(%)      Mini_j(%)     Mcor_j(%)     age_j(yr)     Z_j      (L/M)_j    YAV?  Mstars   component_j        a/Fe...       SSP_chi2r SSP_adev(%)   SSP_AV   SSP_x(%)
  1      4.7592     7.9590E-03    1.5518E-02    1.000000E+06  0.00400  1.114E-02    0   1.0000   age020_m42            0.0000     2.0404E+03    35.8476   4.0000    87.7913
  2      6.8462     3.1314E-03    6.1050E-03    3.160000E+06  0.00400  4.073E-02    0   0.9999   age045_m42            0.0000     5.7397E+02    13.7211   4.0000    97.3113
  3      4.3801     3.2203E-03    5.9573E-03    5.010000E+06  0.00400  2.534E-02    0   0.9488   age055_m42            0.0000     1.0600E+03    23.1633   4.0000    94.0524
  4      2.6518     3.8869E-03    6.7163E-03    1.000000E+07  0.00400  1.271E-02    0   0.8862   age070_m42            0.0000     4.7091E+02     9.5184   4.0000    92.7820
  5      0.0000     0.0000E+00    0.0000E+00    2.512000E+07  0.00400  5.070E-03    0   0.8174   age090_m42            0.0000     3.9991E+02     9.3960   4.0000    93.0450
  6      0.0000     0.0000E+00    0.0000E+00    4.000000E+07  0.00400  3.505E-03    0   0.7851   age104_m42            0.0000     3.4149E+02     9.3814   3.8123    93.8418
  7      0.0000     0.0000E+00    0.0000E+00    1.015200E+08  0.00400  2.268E-03    0   0.7207   age116_m42            0.0000     7.9014E+02     8.1681   3.6624   101.1214
  8      0.0000     0.0000E+00    0.0000E+00    2.861200E+08  0.00400  1.079E-03    0   0.6613   age125_m42            0.0000     8.0367E+02     8.7582   3.1065   103.2693
  9      0.0000     0.0000E+00    0.0000E+00    6.405400E+08  0.00400  5.077E-04    0   0.6197   age132_m42            0.0000     8.1806E+02     8.6532   2.7635   107.2574
 10      0.0000     0.0000E+00    0.0000E+00    9.047900E+08  0.00400  3.535E-04    0   0.6024   age135_m42            0.0000     6.0720E+02     7.5580   2.5210   106.9220
 11      0.0000     0.0000E+00    0.0000E+00    1.434000E+09  0.00400  1.910E-04    0   0.5716   age139_m42            0.0000     3.3285E+02     6.5513   1.9239   106.3841
 12      0.0000     0.0000E+00    0.0000E+00    2.500000E+09  0.00400  9.818E-05    0   0.5463   age150_m42            0.0000     1.2452E+02     4.7671   1.6393   102.4985
 13      4.6818     1.8487E+00    1.8845E+00    5.000000E+09  0.00400  4.718E-05    0   0.5228   age161_m42            0.0000     5.3310E+01     3.7607   1.4753    99.5768
 14      6.2111     5.2477E+00    5.0955E+00    1.100000E+10  0.00400  2.205E-05    0   0.4980   age185_m42            0.0000     3.3065E+01     4.6247   1.1473    97.9301
 15      0.0000     0.0000E+00    0.0000E+00    1.300000E+10  0.00400  1.883E-05    0   0.4927   age193_m42            0.0000     3.3488E+01     4.7705   1.1241    97.8463
 16      1.3049     1.2223E-03    2.3832E-03    1.000000E+06  0.02000  1.989E-02    0   1.0000   age020_m62            0.0000     1.9804E+03    34.9143   4.0000    88.4909
 17      0.0000     0.0000E+00    0.0000E+00    3.160000E+06  0.02000  3.772E-02    0   0.9858   age045_m62            0.0000     1.7542E+03    31.9659   4.0000    90.5474
 18      0.0000     0.0000E+00    0.0000E+00    5.010000E+06  0.02000  3.227E-02    0   0.9342   age055_m62            0.0000     8.9085E+02    19.5106   4.0000    96.1093
 19      0.0000     0.0000E+00    0.0000E+00    1.000000E+07  0.02000  1.011E-02    0   0.8751   age070_m62            0.0000     6.3169E+02    12.7148   4.0000    90.7137
 20      0.0000     0.0000E+00    0.0000E+00    2.512000E+07  0.02000  4.206E-03    0   0.8099   age090_m62            0.0000     5.0671E+02    10.7746   4.0000    90.6696
 21      0.0000     0.0000E+00    0.0000E+00    4.000000E+07  0.02000  3.373E-03    0   0.7799   age104_m62            0.0000     4.4346E+02     9.1332   4.0000    95.1423
 22      0.0000     0.0000E+00    0.0000E+00    1.015200E+08  0.02000  1.878E-03    0   0.7221   age116_m62            0.0000     7.7015E+02     8.0749   3.7236   101.5363
 23      0.0000     0.0000E+00    0.0000E+00    2.861200E+08  0.02000  8.869E-04    0   0.6700   age125_m62            0.0000     1.1249E+03    10.2543   3.1006   107.7417
 24      0.0000     0.0000E+00    0.0000E+00    6.405400E+08  0.02000  3.657E-04    0   0.6322   age132_m62            0.0000     7.7583E+02    10.5358   2.3200   111.9019
 25      0.0000     0.0000E+00    0.0000E+00    9.047900E+08  0.02000  2.312E-04    0   0.6152   age135_m62            0.0000     4.7759E+02     8.9613   1.9408   111.5021
 26      0.0000     0.0000E+00    0.0000E+00    1.434000E+09  0.02000  1.168E-04    0   0.5865   age139_m62            0.0000     1.6625E+02     6.1927   1.5292   106.5925
 27      0.0000     0.0000E+00    0.0000E+00    2.500000E+09  0.02000  5.505E-05    0   0.5610   age150_m62            0.0000     5.9861E+01     5.7199   1.1267   104.3987
 28     25.9850     1.8648E+01    1.9463E+01    5.000000E+09  0.02000  2.596E-05    0   0.5353   age161_m62            0.0000     6.2570E+01     7.6948   0.7043   105.0633
 29     26.8492     4.2789E+01    4.2574E+01    1.100000E+10  0.02000  1.169E-05    0   0.5103   age185_m62            0.0000     1.2368E+02    10.5612   0.2265   107.3637
 30     16.3587     3.1448E+01    3.0946E+01    1.300000E+10  0.02000  9.691E-06    0   0.5047   age193_m62            0.0000     1.3928E+02    11.1030   0.1597   107.7563
 31      0.0000     0.0000E+00    0.0000E+00    1.000000E+06  0.05000  2.651E-02    0   0.9998   age020_m72            0.0000     1.9534E+03    34.4995   4.0000    89.4620
 32      0.0000     0.0000E+00    0.0000E+00    3.160000E+06  0.05000  4.817E-02    0   0.9577   age045_m72            0.0000     1.4397E+03    27.9681   4.0000    93.7319
 33      0.0000     0.0000E+00    0.0000E+00    5.010000E+06  0.05000  3.101E-02    0   0.9147   age055_m72            0.0000     1.0017E+03    20.1548   4.0000    95.0309
 34      0.0000     0.0000E+00    0.0000E+00    1.000000E+07  0.05000  8.954E-03    0   0.8524   age070_m72            0.0000     1.2382E+03    24.9393   4.0000    94.5686
 35      0.0000     0.0000E+00    0.0000E+00    2.512000E+07  0.05000  4.207E-03    0   0.7902   age090_m72            0.0000     6.7372E+02    14.8259   4.0000    97.4627
 36      0.0000     0.0000E+00    0.0000E+00    4.000000E+07  0.05000  3.198E-03    0   0.7618   age104_m72            0.0000     6.0592E+02     7.3908   4.0000    99.2233
 37      0.0000     0.0000E+00    0.0000E+00    1.015200E+08  0.05000  1.716E-03    0   0.7092   age116_m72            0.0000     8.4904E+02     8.2896   3.7894   101.5927
 38      0.0000     0.0000E+00    0.0000E+00    2.861200E+08  0.05000  7.047E-04    0   0.6618   age125_m72            0.0000     1.0490E+03    10.6709   2.8411   108.6138
 39      0.0000     0.0000E+00    0.0000E+00    6.405400E+08  0.05000  2.633E-04    0   0.6253   age132_m72            0.0000     5.7013E+02    10.4517   1.8906   111.9109
 40      0.0000     0.0000E+00    0.0000E+00    9.047900E+08  0.05000  1.484E-04    0   0.6088   age135_m72            0.0000     2.2450E+02     8.4413   1.3886   107.5987
 41      0.0000     0.0000E+00    0.0000E+00    1.434000E+09  0.05000  7.827E-05    0   0.5847   age139_m72            0.0000     9.0974E+01     7.6862   0.9601   104.9994
 42      0.0000     0.0000E+00    0.0000E+00    2.500000E+09  0.05000  3.759E-05    0   0.5583   age150_m72            0.0000     7.7744E+01     8.4382   0.6019   104.7485
 43      0.0000     0.0000E+00    0.0000E+00    5.000000E+09  0.05000  1.548E-05    0   0.5320   age161_m72            0.0000     1.3116E+02    11.1381   0.0826   104.9893
 44      0.0000     0.0000E+00    0.0000E+00    1.100000E+10  0.05000  6.532E-06    0   0.5070   age185_m72            0.0000     2.3489E+02    15.4646  -0.5080   106.5948
 45      0.0000     0.0000E+00    0.0000E+00    1.300000E+10  0.05000  5.316E-06    0   0.5018   age193_m72            0.0000     2.8480E+02    17.1834  -0.7144   107.5126


## Synthesis Results - Average & Chains ##

# j      x_j: min, <> & last-chain-values for 1 ...  7 chains
  1      4.7592      4.6125      4.5278      4.6302      4.6904      4.6472      4.6539      4.5511      4.6179
  2      6.8462      5.8736      5.8883      5.8116      6.0853      5.9643      5.9396      6.4658      5.8999
  3      4.3801      4.0868      4.1019      4.2897      4.0607      3.8544      4.2247      3.9169      4.1157
  4      2.6518      3.6203      3.3934      3.7338      3.6601      3.5552      3.4623      3.5595      3.7632
  5      0.0000      0.0272      0.0000      0.0000      0.0000      0.0000      0.1589      0.0000      0.0000
  6      0.0000      0.0203      0.0000      0.0000      0.0000      0.0000      0.0000      0.0000      0.0107
  7      0.0000      0.0147      0.0000      0.0000      0.0000      0.0000      0.0000      0.0000      0.0000
  8      0.0000      0.0099      0.0089      0.0000      0.0000      0.0000      0.0000      0.0000      0.0000
  9      0.0000      0.0718      0.2693      0.0079      0.0000      0.0000      0.0000      0.0167      0.1930
 10      0.0000      0.2458      0.1705      0.2120      0.4512      0.0000      0.0000      0.3559      0.3006
 11      0.0000      0.0985      0.0000      0.1019      0.0212      0.0104      0.0000      0.0000      0.0000
 12      0.0000      0.3659      0.2396      0.5653      0.2836      0.4371      0.1119      0.0348      0.1805
 13      4.6818      2.2913      2.4720      2.4029      2.7749      4.3655      4.0484      3.1813      3.2131
 14      6.2111      6.4249      6.6856      6.9623      6.6840      4.8654      5.8251      6.1135      6.1324
 15      0.0000      0.4456      1.1238      0.6790      0.1036      1.0661      0.6610      0.3816      0.0000
 16      1.3049      1.1921      1.3297      1.1766      1.1644      1.3833      1.2459      1.2247      1.1707
 17      0.0000      0.1129      0.1464      0.0000      0.0000      0.0037      0.1559      0.0000      0.2316
 18      0.0000      0.2718      0.2240      0.2537      0.2914      0.4831      0.1435      0.4259      0.1965
 19      0.0000      0.0575      0.0000      0.0160      0.0000      0.0000      0.0000      0.0048      0.0000
 20      0.0000      0.0254      0.0000      0.0000      0.0152      0.0000      0.0000      0.0000      0.0000
 21      0.0000      0.0188      0.0000      0.0000      0.0000      0.0105      0.0000      0.0000      0.0000
 22      0.0000      0.0160      0.0000      0.0000      0.0000      0.0000      0.0000      0.0000      0.0000
 23      0.0000      0.0109      0.0000      0.0000      0.0000      0.0000      0.0000      0.0000      0.0000
 24      0.0000      0.0168      0.0000      0.0000      0.0000      0.0000      0.0000      0.0000      0.0000
 25      0.0000      0.0300      0.0000      0.0000      0.0000      0.0000      0.0000      0.0000      0.0149
 26      0.0000      0.0498      0.0000      0.0760      0.0000      0.0000      0.0000      0.0000      0.0000
 27      0.0000      0.1628      0.3590      0.0000      0.0000      0.0938      0.0000      0.0000      0.0000
 28     25.9850     24.3086     24.4206     24.2330     24.6503     24.5001     24.4754     24.5749     24.5682
 29     26.8492     27.5448     27.2808     27.4733     27.9178     27.4562     27.0926     27.7474     27.2927
 30     16.3587     17.4734     17.0583     17.2793     17.1275     16.8712     17.5720     17.4085     17.6672
 31      0.0000      0.0198      0.0318      0.0000      0.1027      0.0000      0.0324      0.0000      0.0000
 32      0.0000      0.0235      0.0000      0.1206      0.0491      0.0000      0.0000      0.0000      0.0000
 33      0.0000      0.0963      0.2606      0.0542      0.0000      0.0212      0.0000      0.1107      0.1187
 34      0.0000      0.0244      0.0000      0.0000      0.0000      0.0000      0.0000      0.0561      0.0000
 35      0.0000      0.0238      0.0000      0.0000      0.0000      0.0121      0.0000      0.0000      0.0000
 36      0.0000      0.0175      0.0000      0.0000      0.0000      0.0000      0.0000      0.0000      0.0000
 37      0.0000      0.0064      0.0000      0.0000      0.0000      0.0000      0.0000      0.0000      0.0000
 38      0.0000      0.0071      0.0000      0.0000      0.0000      0.0000      0.0548      0.0000      0.0000
 39      0.0000      0.0156      0.0000      0.0000      0.0000      0.0000      0.2450      0.0000      0.0000
 40      0.0000      0.0377      0.0899      0.0000      0.0000      0.0000      0.0000      0.0000      0.0000
 41      0.0000      0.0554      0.0000      0.0000      0.0000      0.1144      0.0000      0.0000      0.0000
 42      0.0000      0.1438      0.0000      0.0000      0.0000      0.3413      0.0000      0.0000      0.4840
 43      0.0000      0.0754      0.0173      0.0000      0.0000      0.0000      0.0000      0.0000      0.0000
 44      0.0000      0.0885      0.0000      0.0000      0.0000      0.0000      0.0000      0.0000      0.0000
 45      0.0000      0.0360      0.0000      0.0000      0.0000      0.0312      0.0000      0.0000      0.0000

# j      m_j: min, <> & last-chain-values for 1 ...  7 chains
  1  1.5518E-02  1.4696E-02  1.4525E-02  1.4814E-02  1.5001E-02  1.4996E-02  1.4928E-02  1.4540E-02  1.4793E-02
  2  6.1050E-03  5.1181E-03  5.1660E-03  5.0850E-03  5.3223E-03  5.2634E-03  5.2104E-03  5.6492E-03  5.1687E-03
  3  5.9573E-03  5.4313E-03  5.4887E-03  5.7246E-03  5.4168E-03  5.1879E-03  5.6524E-03  5.2196E-03  5.4994E-03
  4  6.7163E-03  8.9595E-03  8.4554E-03  9.2786E-03  9.0920E-03  8.9107E-03  8.6263E-03  8.8328E-03  9.3636E-03
  5  0.0000E+00  1.5570E-04  0.0000E+00  0.0000E+00  0.0000E+00  0.0000E+00  9.1539E-04  0.0000E+00  0.0000E+00
  6  0.0000E+00  1.6158E-04  0.0000E+00  0.0000E+00  0.0000E+00  0.0000E+00  0.0000E+00  0.0000E+00  8.5736E-05
  7  0.0000E+00  1.6574E-04  0.0000E+00  0.0000E+00  0.0000E+00  0.0000E+00  0.0000E+00  0.0000E+00  0.0000E+00
  8  0.0000E+00  2.1505E-04  1.9550E-04  0.0000E+00  0.0000E+00  0.0000E+00  0.0000E+00  0.0000E+00  0.0000E+00
  9  0.0000E+00  3.1094E-03  1.1746E-02  3.4260E-04  0.0000E+00  0.0000E+00  0.0000E+00  7.2419E-04  8.4060E-03
 10  0.0000E+00  1.4868E-02  1.0383E-02  1.2878E-02  2.7396E-02  0.0000E+00  0.0000E+00  2.1586E-02  1.8281E-02
 11  0.0000E+00  1.0463E-02  0.0000E+00  1.0873E-02  2.2587E-03  1.1216E-03  0.0000E+00  0.0000E+00  0.0000E+00
 12  0.0000E+00  7.2274E-02  4.7653E-02  1.1211E-01  5.6223E-02  8.7423E-02  2.2253E-02  6.8821E-03  3.5839E-02
 13  1.8845E+00  9.0120E-01  9.7893E-01  9.4900E-01  1.0955E+00  1.7389E+00  1.6030E+00  1.2546E+00  1.2706E+00
 14  5.0955E+00  5.1504E+00  5.3961E+00  5.6043E+00  5.3782E+00  3.9500E+00  4.7010E+00  4.9140E+00  4.9425E+00
 15  0.0000E+00  4.1385E-01  1.0508E+00  6.3321E-01  9.6595E-02  1.0027E+00  6.1806E-01  3.5534E-01  0.0000E+00
 16  2.3832E-03  2.1273E-03  2.3891E-03  2.1084E-03  2.0857E-03  2.5000E-03  2.2384E-03  2.1914E-03  2.1004E-03
 17  0.0000E+00  1.0471E-04  1.3675E-04  0.0000E+00  0.0000E+00  3.4362E-06  1.4555E-04  0.0000E+00  2.1603E-04
 18  0.0000E+00  2.7927E-04  2.3173E-04  2.6174E-04  3.0051E-04  5.0271E-04  1.4843E-04  4.3884E-04  2.0299E-04
 19  0.0000E+00  1.7655E-04  0.0000E+00  4.9400E-05  0.0000E+00  0.0000E+00  0.0000E+00  1.4867E-05  0.0000E+00
 20  0.0000E+00  1.7332E-04  0.0000E+00  0.0000E+00  1.0398E-04  0.0000E+00  0.0000E+00  0.0000E+00  0.0000E+00
 21  0.0000E+00  1.5428E-04  0.0000E+00  0.0000E+00  0.0000E+00  8.7584E-05  0.0000E+00  0.0000E+00  0.0000E+00
 22  0.0000E+00  2.1858E-04  0.0000E+00  0.0000E+00  0.0000E+00  0.0000E+00  0.0000E+00  0.0000E+00  0.0000E+00
 23  0.0000E+00  2.9131E-04  0.0000E+00  0.0000E+00  0.0000E+00  0.0000E+00  0.0000E+00  0.0000E+00  0.0000E+00
 24  0.0000E+00  1.0289E-03  0.0000E+00  0.0000E+00  0.0000E+00  0.0000E+00  0.0000E+00  0.0000E+00  0.0000E+00
 25  0.0000E+00  2.8313E-03  0.0000E+00  0.0000E+00  0.0000E+00  0.0000E+00  0.0000E+00  0.0000E+00  1.4166E-03
 26  0.0000E+00  8.8692E-03  0.0000E+00  1.3609E-02  0.0000E+00  0.0000E+00  0.0000E+00  0.0000E+00  0.0000E+00
 27  0.0000E+00  5.8872E-02  1.3074E-01  0.0000E+00  0.0000E+00  3.4370E-02  0.0000E+00  0.0000E+00  0.0000E+00
 28  1.9463E+01  1.7791E+01  1.7996E+01  1.7809E+01  1.8109E+01  1.8160E+01  1.8034E+01  1.8035E+01  1.8078E+01
 29  4.2574E+01  4.2678E+01  4.2558E+01  4.2744E+01  4.3418E+01  4.3084E+01  4.2260E+01  4.3108E+01  4.2516E+01
 30  3.0946E+01  3.2300E+01  3.1748E+01  3.2073E+01  3.1779E+01  3.1585E+01  3.2701E+01  3.2267E+01  3.2834E+01
 31  0.0000E+00  2.6538E-05  4.2901E-05  0.0000E+00  1.3793E-04  0.0000E+00  4.3695E-05  0.0000E+00  0.0000E+00
 32  0.0000E+00  1.6570E-05  0.0000E+00  8.5454E-05  3.4783E-05  0.0000E+00  0.0000E+00  0.0000E+00  0.0000E+00
 33  0.0000E+00  1.0086E-04  2.7473E-04  5.7003E-05  0.0000E+00  2.2506E-05  0.0000E+00  1.1618E-04  1.2491E-04
 34  0.0000E+00  8.2331E-05  0.0000E+00  0.0000E+00  0.0000E+00  0.0000E+00  0.0000E+00  1.9018E-04  0.0000E+00
 35  0.0000E+00  1.5842E-04  0.0000E+00  0.0000E+00  0.0000E+00  8.1885E-05  0.0000E+00  0.0000E+00  0.0000E+00
 36  0.0000E+00  1.4765E-04  0.0000E+00  0.0000E+00  0.0000E+00  0.0000E+00  0.0000E+00  0.0000E+00  0.0000E+00
 37  0.0000E+00  9.4414E-05  0.0000E+00  0.0000E+00  0.0000E+00  0.0000E+00  0.0000E+00  0.0000E+00  0.0000E+00
 38  0.0000E+00  2.3551E-04  0.0000E+00  0.0000E+00  0.0000E+00  0.0000E+00  1.8400E-03  0.0000E+00  0.0000E+00
 39  0.0000E+00  1.3165E-03  0.0000E+00  0.0000E+00  0.0000E+00  0.0000E+00  2.0791E-02  0.0000E+00  0.0000E+00
 40  0.0000E+00  5.4849E-03  1.3186E-02  0.0000E+00  0.0000E+00  0.0000E+00  0.0000E+00  0.0000E+00  0.0000E+00
 41  0.0000E+00  1.4699E-02  0.0000E+00  0.0000E+00  0.0000E+00  3.0710E-02  0.0000E+00  0.0000E+00  0.0000E+00
 42  0.0000E+00  7.5785E-02  0.0000E+00  0.0000E+00  0.0000E+00  1.8220E-01  0.0000E+00  0.0000E+00  2.5651E-01
 43  0.0000E+00  9.2027E-02  2.1215E-02  0.0000E+00  0.0000E+00  0.0000E+00  0.0000E+00  0.0000E+00  0.0000E+00
 44  0.0000E+00  2.4387E-01  0.0000E+00  0.0000E+00  0.0000E+00  0.0000E+00  0.0000E+00  0.0000E+00  0.0000E+00
 45  0.0000E+00  1.2071E-01  0.0000E+00  0.0000E+00  0.0000E+00  1.0578E-01  0.0000E+00  0.0000E+00  0.0000E+00

# AV, chi2 & Mass for <> & i_chain = 1 ...  7 solutions
AV       1.2742      1.2601      1.2656      1.2666      1.2645      1.2662      1.2663      1.2664      1.2638
chi2 2.4996E+00  2.5377E+00  2.5218E+00  2.5204E+00  2.5197E+00  2.5184E+00  2.5211E+00  2.5190E+00  2.5248E+00
Mass 9.2018E-10  9.2411E-10  9.2459E-10  9.2838E-10  9.2614E-10  9.1993E-10  9.2559E-10  9.2949E-10  9.2370E-10
  11.67                                  [v0_min (km/s) before EX0s...]
  49.92                                  [vd_min (km/s) before EX0s...]


## Synthetic spectrum (Best Model) ##l_obs f_obs f_syn wei
 3070    [Nl_obs]
 3359.00    0.00000   0.43685   -2.000
 3360.00    0.00000   0.40913   -2.000
 3361.00    0.11146   0.40844   -1.000
 3362.00    0.24548   0.43489   -1.000
 3363.00    0.26030   0.47235   -1.000
 3364.00    0.28348   0.49972   -1.000
 3365.00    0.30812   0.50297   -1.000
 3366.00    0.29914   0.48286   -1.000
 3367.00    0.27284   0.45709   -1.000
 3368.00    0.25068   0.43527   -1.000
 3369.00    0.25452   0.42260   -1.000
 3370.00    0.26359   0.41752   -1.000
 3371.00    0.25439   0.41593   -1.000
 3372.00    0.24785   0.42083   -1.000
 3373.00    0.25042   0.43807   -1.000
 3374.00    0.27259   0.46566   -1.000
 3375.00    0.29779   0.49596   -1.000
 3376.00    0.30768   0.51615   -1.000
 3377.00    0.32791   0.51425   -1.000
 3378.00    0.35324   0.49168   -1.000
 3379.00    0.35345   0.46607   -1.000
 3380.00    0.32818   0.45314   -1.000
 3381.00    0.31826   0.45996   -1.000
 3382.00    0.32149   0.47665   -1.000
 3383.00    0.31359   0.49352   -1.000
 3384.00    0.31172   0.50602   -1.000
 3385.00    0.30912   0.51701   -1.000
 3386.00    0.31942   0.52378   -1.000
 3387.00    0.34197   0.52407   -1.000
 3388.00    0.35331   0.52108   -1.000
 3389.00    0.36959   0.51772   -1.000
 3390.00    0.36658   0.51066   -1.000
 3391.00    0.35933   0.49613   -1.000
 3392.00    0.36017   0.48066   -1.000
 3393.00    0.35575   0.47646   -1.000
 3394.00    0.37049   0.48762   -1.000
 3395.00    0.37382   0.50971   -1.000
 3396.00    0.37491   0.53006   -1.000
 3397.00    0.41248   0.54643   -1.000
 3398.00    0.44715   0.55890   -1.000
 3399.00    0.45640   0.56385   -1.000
 3400.00    0.46654   0.56086   -1.000
 3401.00    0.45553   0.55144   -1.000
 3402.00    0.42909   0.53652   -1.000
 3403.00    0.42083   0.52210   -1.000
 3404.00    0.42647   0.51238   -1.000
 3405.00    0.43072   0.50567   -1.000
 3406.00    0.40968   0.49866   -1.000
 3407.00    0.38940   0.49212   -1.000
 3408.00    0.38597   0.49127   -1.000
 3409.00    0.39738   0.49689   -1.000
 3410.00    0.40707   0.50563   -1.000
 3411.00    0.39915   0.50608   -1.000
 3412.00    0.40674   0.49301   -1.000
 3413.00    0.40999   0.47511   -1.000
 3414.00    0.40743   0.46328   -1.000
 3415.00    0.40683   0.46769   -1.000
 3416.00    0.39692   0.48510   -1.000
 3417.00    0.41079   0.50991   -1.000
 3418.00    0.44406   0.53311   -1.000
 3419.00    0.46476   0.55127   -1.000
 3420.00    0.49117   0.55797   -1.000
 3421.00    0.49696   0.55014   -1.000
 3422.00    0.47142   0.53164   -1.000
 3423.00    0.44539   0.51823   -1.000
 3424.00    0.44892   0.51460   -1.000
 3425.00    0.47094   0.51684   64.307
 3426.00    0.47563   0.52158   64.231
 3427.00    0.47668   0.53044   -1.000
 3428.00    0.47245   0.54735   -1.000
 3429.00    0.47245   0.56707   -1.000
 3430.00    0.49012   0.57070   -1.000
 3431.00    0.49830   0.55530   -1.000
 3432.00    0.47768   0.53185   -1.000
 3433.00    0.46945   0.51880   -1.000
 3434.00    0.48787   0.52349   -1.000
 3435.00    0.49013   0.53241   61.274
 3436.00    0.47843   0.53300   -1.000
 3437.00    0.47116   0.52026   -1.000
 3438.00    0.45353   0.49557   -1.000
 3439.00    0.42298   0.46144   62.262
 3440.00    0.40407   0.42880   65.560
 3441.00    0.38203   0.40563   70.065
 3442.00    0.38173   0.40132   74.462
 3443.00    0.39558   0.41333   76.164
 3444.00    0.39738   0.43185   76.070
 3445.00    0.41411   0.44912   74.520
 3446.00    0.43222   0.46693   71.029
 3447.00    0.43538   0.48647   -1.000
 3448.00    0.44855   0.50990   -1.000
 3449.00    0.48101   0.53106   -1.000
 3450.00    0.51142   0.53659   -1.000
 3451.00    0.52291   0.52404  509.366
 3452.00    0.51079   0.50875  509.366
 3453.00    0.49174   0.50374   -1.000
 3454.00    0.48470   0.51238   -1.000
 3455.00    0.50044   0.52151   -1.000
 3456.00    0.50818   0.51815   -1.000
 3457.00    0.49257   0.50243   -1.000
 3458.00    0.47009   0.47966   -1.000
 3459.00    0.47167   0.46236   -1.000
 3460.00    0.47071   0.45331  124.882
 3461.00    0.44549   0.45593   61.560
 3462.00    0.46666   0.47266   61.855
 3463.00    0.50710   0.49652  100.172
 3464.00    0.52268   0.50669   -1.000
 3465.00    0.53742   0.50437   -1.000
 3466.00    0.52353   0.50205   -1.000
 3467.00    0.49283   0.50753   -1.000
 3468.00    0.50527   0.52153   -1.000
 3469.00    0.55280   0.53502   -1.000
 3470.00    0.57043   0.54088   -1.000
 3471.00    0.54969   0.53334   -1.000
 3472.00    0.53241   0.51413   -1.000
 3473.00    0.53402   0.48683   -1.000
 3474.00    0.52471   0.46007   -1.000
 3475.00    0.47815   0.44145   -1.000
 3476.00    0.44726   0.44202  127.425
 3477.00    0.47218   0.45975   62.684
 3478.00    0.49826   0.48390   63.437
 3479.00    0.50903   0.50270  100.425
 3480.00    0.51242   0.51138  509.366
 3481.00    0.51245   0.50955  509.366
 3482.00    0.52249   0.49955   -1.000
 3483.00    0.52607   0.48896   -1.000
 3484.00    0.52816   0.48827   -1.000
 3485.00    0.53251   0.50339   -1.000
 3486.00    0.52785   0.52287  509.366
 3487.00    0.55125   0.53183   -1.000
 3488.00    0.55802   0.51990   -1.000
 3489.00    0.51504   0.49368   -1.000
 3490.00    0.47927   0.46978   -1.000
 3491.00    0.48630   0.46198   -1.000
 3492.00    0.49148   0.47064   -1.000
 3493.00    0.49999   0.48379   -1.000
 3494.00    0.50530   0.49115   -1.000
 3495.00    0.49491   0.48660   -1.000
 3496.00    0.48337   0.47817   -1.000
 3497.00    0.49095   0.48170   -1.000
 3498.00    0.52440   0.50444   -1.000
 3499.00    0.55166   0.53404   -1.000
 3500.00    0.56657   0.55047   -1.000
 3501.00    0.58408   0.55709   -1.000
 3502.00    0.59250   0.56426   -1.000
 3503.00    0.59840   0.56898   -1.000
 3504.00    0.60492   0.56408   -1.000
 3505.00    0.58543   0.55185   -1.000
 3506.00    0.55795   0.54173   -1.000
 3507.00    0.55540   0.53847   -1.000
 3508.00    0.56974   0.53596   -1.000
 3509.00    0.56397   0.52642   -1.000
 3510.00    0.55066   0.51371   -1.000
 3511.00    0.53387   0.50046   -1.000
 3512.00    0.52291   0.48708   -1.000
 3513.00    0.51521   0.47565   -1.000
 3514.00    0.51274   0.47387   -1.000
 3515.00    0.51226   0.49081   -1.000
 3516.00    0.53464   0.52351   -1.000
 3517.00    0.57720   0.55331   -1.000
 3518.00    0.60366   0.56604   -1.000
 3519.00    0.58520   0.55626   -1.000
 3520.00    0.55282   0.53255   -1.000
 3521.00    0.51952   0.50395   -1.000
 3522.00    0.49845   0.48059   -1.000
 3523.00    0.48704   0.46042   -1.000
 3524.00    0.47626   0.44309   -1.000
 3525.00    0.45723   0.43661   -1.000
 3526.00    0.45065   0.44945   62.049
 3527.00    0.47279   0.47832   63.221
 3528.00    0.50797   0.51313   97.939
 3529.00    0.55177   0.53784   -1.000
 3530.00    0.56384   0.54509   -1.000
 3531.00    0.55348   0.53901   -1.000
 3532.00    0.55229   0.53503   -1.000
 3533.00    0.55665   0.54064   -1.000
 3534.00    0.56102   0.55242   -1.000
 3535.00    0.56255   0.56241  509.366
 3536.00    0.57775   0.56582   -1.000
 3537.00    0.57146   0.56906  493.812
 3538.00    0.56570   0.57719   -1.000
 3539.00    0.57546   0.58253   -1.000
 3540.00    0.56981   0.57886   -1.000
 3541.00    0.56585   0.56913  482.128
 3542.00    0.56859   0.56558  488.402
 3543.00    0.56302   0.57339   -1.000
 3544.00    0.54143   0.58362   -1.000
 3545.00    0.54849   0.58724   -1.000
 3546.00    0.55359   0.58178   -1.000
 3547.00    0.54529   0.57521   -1.000
 3548.00    0.54494   0.57407   -1.000
 3549.00    0.54342   0.57634   -1.000
 3550.00    0.54815   0.57560   -1.000
 3551.00    0.54527   0.56677   -1.000
 3552.00    0.52692   0.55178   -1.000
 3553.00    0.49650   0.53768   -1.000
 3554.00    0.49074   0.53294   -1.000
 3555.00    0.49372   0.53788   -1.000
 3556.00    0.51976   0.54338   -1.000
 3557.00    0.51831   0.54387   -1.000
 3558.00    0.50714   0.53926   -1.000
 3559.00    0.51111   0.53733   -1.000
 3560.00    0.49453   0.54483   -1.000
 3561.00    0.49765   0.55780   -1.000
 3562.00    0.52355   0.56564   -1.000
 3563.00    0.51119   0.55205   -1.000
 3564.00    0.47428   0.51622   -1.000
 3565.00    0.45299   0.47595   -1.000
 3566.00    0.45010   0.45722  137.322
 3567.00    0.43173   0.45785   62.750
 3568.00    0.41651   0.45729   64.047
 3569.00    0.41116   0.44751   63.433
 3570.00    0.42512   0.43719   64.037
 3571.00    0.44924   0.43914   65.864
 3572.00    0.47552   0.45567   65.783
 3573.00    0.47647   0.47320   63.347
 3574.00    0.48651   0.48608   93.273
 3575.00    0.49334   0.49390  509.366
 3576.00    0.49504   0.49465  509.366
 3577.00    0.48572   0.48487  509.366
 3578.00    0.46318   0.46453  509.366
 3579.00    0.43606   0.43445  509.366
 3580.00    0.41742   0.40727  144.335
 3581.00    0.39591   0.39360   65.710
 3582.00    0.39328   0.39564   70.368
 3583.00    0.39543   0.40217   72.927
 3584.00    0.39077   0.40187   73.309
 3585.00    0.38806   0.39502   74.190
 3586.00    0.39207   0.39166   76.295
 3587.00    0.37743   0.40000   78.280
 3588.00    0.38116   0.41905   77.399
 3589.00    0.41555   0.44871   73.365
 3590.00    0.45177   0.48123   69.594
 3591.00    0.48113   0.50715   65.091
 3592.00    0.50640   0.51803   91.741
 3593.00    0.52063   0.52062  509.366
 3594.00    0.52076   0.52783   -1.000
 3595.00    0.53508   0.54431   -1.000
 3596.00    0.56460   0.56502  509.366
 3597.00    0.57787   0.58022  508.953
 3598.00    0.58218   0.59161   -1.000
 3599.00    0.58498   0.60116   -1.000
 3600.00    0.58121   0.60040   -1.000
 3601.00    0.56777   0.58156   -1.000
 3602.00    0.56355   0.55169   -1.000
 3603.00    0.55100   0.52220   -1.000
 3604.00    0.53518   0.50388   -1.000
 3605.00    0.50872   0.49780   -1.000
 3606.00    0.49835   0.49469  509.366
 3607.00    0.49512   0.48511   -1.000
 3608.00    0.47450   0.46983   -1.000
 3609.00    0.46873   0.46256   -1.000
 3610.00    0.48066   0.47252   -1.000
 3611.00    0.49213   0.49528  509.366
 3612.00    0.50978   0.51423  509.366
 3613.00    0.52532   0.52808  509.366
 3614.00    0.53728   0.54239   -1.000
 3615.00    0.54793   0.55320   -1.000
 3616.00    0.55487   0.54551   -1.000
 3617.00    0.52225   0.51326   -1.000
 3618.00    0.47437   0.47149  509.366
 3619.00    0.45193   0.45673  509.366
 3620.00    0.46600   0.47574  143.707
 3621.00    0.51415   0.51417   89.462
 3622.00    0.56138   0.54984   -1.000
 3623.00    0.57088   0.57417  509.366
 3624.00    0.57833   0.59470   -1.000
 3625.00    0.60256   0.62223   -1.000
 3626.00    0.61807   0.65180   -1.000
 3627.00    0.63520   0.66789   -1.000
 3628.00    0.64062   0.65572   -1.000
 3629.00    0.60109   0.61329   -1.000
 3630.00    0.54690   0.55231  448.422
 3631.00    0.49784   0.50665   -1.000
 3632.00    0.46955   0.49155   -1.000
 3633.00    0.47921   0.50461   -1.000
 3634.00    0.50608   0.52792   -1.000
 3635.00    0.53593   0.54858   -1.000
 3636.00    0.57116   0.56294   -1.000
 3637.00    0.59311   0.58049   -1.000
 3638.00    0.60509   0.60525  494.169
 3639.00    0.60759   0.62756   -1.000
 3640.00    0.62035   0.63776   -1.000
 3641.00    0.60750   0.63002   -1.000
 3642.00    0.59276   0.60834   -1.000
 3643.00    0.57587   0.58373   -1.000
 3644.00    0.55749   0.56180  477.267
 3645.00    0.53459   0.54311   -1.000
 3646.00    0.51057   0.52637   -1.000
 3647.00    0.50949   0.51103  509.366
 3648.00    0.52902   0.50679   -1.000
 3649.00    0.52646   0.51868   -1.000
 3650.00    0.53292   0.54676   -1.000
 3651.00    0.57004   0.58180   -1.000
 3652.00    0.60857   0.61594   -1.000
 3653.00    0.62748   0.63668   -1.000
 3654.00    0.62655   0.64656   -1.000
 3655.00    0.62939   0.65437   -1.000
 3656.00    0.65622   0.66625   -1.000
 3657.00    0.66130   0.68273   -1.000
 3658.00    0.65904   0.69511   -1.000
 3659.00    0.67348   0.70037   -1.000
 3660.00    0.67795   0.69763   -1.000
 3661.00    0.67522   0.68629   -1.000
 3662.00    0.66713   0.66866  421.563
 3663.00    0.64483   0.65473   -1.000
 3664.00    0.62835   0.64874   -1.000
 3665.00    0.63573   0.64949   -1.000
 3666.00    0.62922   0.64965   -1.000
 3667.00    0.61248   0.64143   -1.000
 3668.00    0.61447   0.62644   -1.000
 3669.00    0.62234   0.61554  445.855
 3670.00    0.61497   0.62177   -1.000
 3671.00    0.61545   0.64191   -1.000
 3672.00    0.64813   0.66063   -1.000
 3673.00    0.67123   0.66919  436.627
 3674.00    0.66941   0.66746  430.434
 3675.00    0.66137   0.65671  429.497
 3676.00    0.63656   0.63693  429.784
 3677.00    0.60945   0.61045  434.914
 3678.00    0.57898   0.58348  448.646
 3679.00    0.56516   0.56533  462.500
 3680.00    0.56905   0.56465  475.773
 3681.00    0.58114   0.58086  483.316
 3682.00    0.59765   0.60062  477.905
 3683.00    0.61299   0.61158  464.768
 3684.00    0.59887   0.60477   -1.000
 3685.00    0.57634   0.58081  455.361
 3686.00    0.54458   0.55035  469.214
 3687.00    0.54282   0.53672   -1.000
 3688.00    0.56648   0.55006   -1.000
 3689.00    0.60116   0.58681   -1.000
 3690.00    0.62353   0.62992   -1.000
 3691.00    0.65348   0.66025   -1.000
 3692.00    0.66327   0.66415  427.866
 3693.00    0.65320   0.64944  420.482
 3694.00    0.64321   0.63490  426.699
 3695.00    0.63397   0.62838  436.742
 3696.00    0.64540   0.63246   -1.000
 3697.00    0.66136   0.64789   -1.000
 3698.00    0.66779   0.67308   -1.000
 3699.00    0.68582   0.69520   -1.000
 3700.00    0.70505   0.70323  411.509
 3701.00    0.69547   0.68996  402.753
 3702.00    0.65300   0.65363  401.693
 3703.00    0.60433   0.59790  413.049
 3704.00    0.55658   0.54376   -1.000
 3705.00    0.52050   0.50581   -1.000
 3706.00    0.50589   0.49435   -1.000
 3707.00    0.51114   0.50060   -1.000
 3708.00    0.52852   0.51338   -1.000
 3709.00    0.55299   0.53211   -1.000
 3710.00    0.57385   0.56172   -1.000
 3711.00    0.60108   0.59798  489.722
 3712.00    0.65694   0.63740   -1.000
 3713.00    0.69755   0.67168   -1.000
 3714.00    0.70614   0.68914   -1.000
 3715.00    0.69324   0.68654  403.490
 3716.00    0.69050   0.66601   -1.000
 3717.00    0.67297   0.62607   -1.000
 3718.00    0.60856   0.56873   -1.000
 3719.00    0.52325   0.50405   -1.000
 3720.00    0.46965   0.44912   -1.000
 3721.00    0.45720   0.42991   -1.000
 3722.00    0.48043   0.45128   -1.000
 3723.00    0.52662   0.50006   86.032
 3724.00    0.58298   0.55498   -1.000
 3725.00    0.61005   0.59125   -1.000
 3726.00    0.62116   0.59582   -1.000
 3727.00    0.61131   0.58508   -1.000
 3728.00    0.60804   0.58319   -1.000
 3729.00    0.61828   0.58762   -1.000
 3730.00    0.61782   0.58125   -1.000
 3731.00    0.57483   0.55132   -1.000
 3732.00    0.53259   0.49680   -1.000
 3733.00    0.47029   0.43985   -1.000
 3734.00    0.41092   0.39562  158.214
 3735.00    0.39794   0.37762   63.063
 3736.00    0.40720   0.39131   69.138
 3737.00    0.43687   0.43288   69.758
 3738.00    0.48957   0.48869   65.212
 3739.00    0.53705   0.54789   83.420
 3740.00    0.58536   0.58845  509.366
 3741.00    0.59019   0.59767   -1.000
 3742.00    0.57537   0.57680  455.675
 3743.00    0.54492   0.54166  459.570
 3744.00    0.51437   0.50450   -1.000
 3745.00    0.48822   0.47745   -1.000
 3746.00    0.46554   0.45594   -1.000
 3747.00    0.44653   0.43114   -1.000
 3748.00    0.41914   0.40793  165.666
 3749.00    0.42483   0.40184   62.992
 3750.00    0.45903   0.42720   66.073
 3751.00    0.51006   0.48070   90.632
 3752.00    0.57231   0.54061   -1.000
 3753.00    0.61818   0.59399   -1.000
 3754.00    0.65600   0.63598   -1.000
 3755.00    0.67505   0.64804   -1.000
 3756.00    0.64168   0.62045   -1.000
 3757.00    0.57263   0.56833  412.496
 3758.00    0.52568   0.52346  445.129
 3759.00    0.52463   0.51128   -1.000
 3760.00    0.54244   0.52513   -1.000
 3761.00    0.56043   0.54374   -1.000
 3762.00    0.56135   0.55231   -1.000
 3763.00    0.55943   0.55276   -1.000
 3764.00    0.56257   0.55104   -1.000
 3765.00    0.56927   0.54606   -1.000
 3766.00    0.56213   0.53754   -1.000
 3767.00    0.55677   0.53219   -1.000
 3768.00    0.57300   0.53335   -1.000
 3769.00    0.58419   0.53782   -1.000
 3770.00    0.59528   0.54679   -1.000
 3771.00    0.61930   0.56625   -1.000
 3772.00    0.63913   0.59325   -1.000
 3773.00    0.65345   0.61850   -1.000
 3774.00    0.65884   0.63237   -1.000
 3775.00    0.64987   0.63817   -1.000
 3776.00    0.64291   0.64387  422.588
 3777.00    0.64848   0.65273  422.001
 3778.00    0.65426   0.66661   -1.000
 3779.00    0.67219   0.68274   -1.000
 3780.00    0.69683   0.69771  409.915
 3781.00    0.71182   0.70853  397.226
 3782.00    0.71122   0.71426  389.961
 3783.00    0.71009   0.71301  387.512
 3784.00    0.69957   0.69773  385.907
 3785.00    0.67504   0.66430   -1.000
 3786.00    0.62032   0.62296  401.124
 3787.00    0.58099   0.58693  425.259
 3788.00    0.56884   0.56455  454.552
 3789.00    0.54962   0.56071   -1.000
 3790.00    0.57257   0.57003  478.905
 3791.00    0.58728   0.57917   -1.000
 3792.00    0.58568   0.57731   -1.000
 3793.00    0.56994   0.55999   -1.000
 3794.00    0.53684   0.53646  477.445
 3795.00    0.52751   0.51303   -1.000
 3796.00    0.52344   0.48915   -1.000
 3797.00    0.49479   0.46458   -1.000
 3798.00    0.48879   0.45163   -1.000
 3799.00    0.50019   0.46747   -1.000
 3800.00    0.54048   0.51281   -1.000
 3801.00    0.58050   0.56567   -1.000
 3802.00    0.61205   0.61209  489.459
 3803.00    0.62235   0.64185   -1.000
 3804.00    0.62659   0.65144   -1.000
 3805.00    0.63747   0.64160  431.011
 3806.00    0.60777   0.62364   -1.000
 3807.00    0.56857   0.61526   -1.000
 3808.00    0.57554   0.62635   -1.000
 3809.00    0.59358   0.64792   -1.000
 3810.00    0.61255   0.66160   -1.000
 3811.00    0.62116   0.65357   -1.000
 3812.00    0.59525   0.62137   -1.000
 3813.00    0.56329   0.57948   -1.000
 3814.00    0.53386   0.54127  467.259
 3815.00    0.50047   0.52074   -1.000
 3816.00    0.48673   0.52139   -1.000
 3817.00    0.49677   0.52895   -1.000
 3818.00    0.49839   0.52282   -1.000
 3819.00    0.47289   0.49915   -1.000
 3820.00    0.45187   0.47872   -1.000
 3821.00    0.44038   0.47910   -1.000
 3822.00    0.46578   0.49343   -1.000
 3823.00    0.47966   0.49550   -1.000
 3824.00    0.45379   0.47433   -1.000
 3825.00    0.41417   0.44853   -1.000
 3826.00    0.40376   0.43462   -1.000
 3827.00    0.40953   0.43541   64.283
 3828.00    0.41750   0.44417   65.125
 3829.00    0.42420   0.45225   64.397
 3830.00    0.41497   0.45075   63.341
 3831.00    0.41380   0.43626   62.787
 3832.00    0.38673   0.41286   64.150
 3833.00    0.37755   0.39063   67.697
 3834.00    0.38412   0.37982   72.315
 3835.00    0.40105   0.38165   73.476
 3836.00    0.41230   0.39022   71.540
 3837.00    0.40392   0.39716   68.971
 3838.00    0.38538   0.40124   68.268
 3839.00    0.38281   0.41019   69.837
 3840.00    0.40251   0.43226   70.747
 3841.00    0.45120   0.47086   68.661
 3842.00    0.49183   0.51473   85.220
 3843.00    0.52237   0.55259   -1.000
 3844.00    0.53586   0.57582   -1.000
 3845.00    0.54740   0.58663   -1.000
 3846.00    0.54000   0.59271   -1.000
 3847.00    0.54050   0.59446   -1.000
 3848.00    0.53943   0.58648   -1.000
 3849.00    0.51554   0.57336   -1.000
 3850.00    0.49926   0.56775   -1.000
 3851.00    0.50343   0.57587   -1.000
 3852.00    0.51666   0.58667   -1.000
 3853.00    0.52556   0.58685   -1.000
 3854.00    0.51934   0.57410   -1.000
 3855.00    0.49461   0.55659   -1.000
 3856.00    0.47940   0.53949   -1.000
 3857.00    0.46888   0.52099   -1.000
 3858.00    0.44760   0.49964   -1.000
 3859.00    0.42039   0.48802   -1.000
 3860.00    0.41757   0.49910   -1.000
 3861.00    0.45201   0.53293   -1.000
 3862.00    0.49847   0.57026   -1.000
 3863.00    0.53313   0.59150   -1.000
 3864.00    0.54152   0.59205   -1.000
 3865.00    0.53059   0.58344   -1.000
 3866.00    0.52915   0.57746   -1.000
 3867.00    0.51671   0.57527   -1.000
 3868.00    0.50868   0.57007   -1.000
 3869.00    0.48796   0.55642   -1.000
 3870.00    0.45235   0.53357   -1.000
 3871.00    0.44477   0.51495   -1.000
 3872.00    0.46131   0.51505   -1.000
 3873.00    0.48856   0.53878   -1.000
 3874.00    0.53790   0.57335   -1.000
 3875.00    0.56573   0.59701   -1.000
 3876.00    0.56019   0.59125   -1.000
 3877.00    0.53068   0.56415   -1.000
 3878.00    0.50362   0.54185   -1.000
 3879.00    0.50191   0.53608   -1.000
 3880.00    0.49737   0.53967   -1.000
 3881.00    0.48844   0.54237   -1.000
 3882.00    0.48622   0.54588   -1.000
 3883.00    0.52610   0.55442   -1.000
 3884.00    0.57821   0.55536   -1.000
 3885.00    0.57948   0.53382   -1.000
 3886.00    0.55256   0.49861   -1.000
 3887.00    0.53146   0.46936   -1.000
 3888.00    0.53690   0.46321   -1.000
 3889.00    0.56696   0.48707   -1.000
 3890.00    0.59851   0.53468   -1.000
 3891.00    0.65835   0.58835   -1.000
 3892.00    0.69605   0.63001   -1.000
 3893.00    0.69763   0.64656   -1.000
 3894.00    0.68441   0.64511   -1.000
 3895.00    0.66837   0.64332   -1.000
 3896.00    0.67523   0.64868   -1.000
 3897.00    0.69533   0.65598   -1.000
 3898.00    0.70168   0.65640   -1.000
 3899.00    0.68831   0.65304   -1.000
 3900.00    0.67347   0.65543   -1.000
 3901.00    0.68780   0.66038   -1.000
 3902.00    0.70068   0.65781   -1.000
 3903.00    0.68218   0.64537   -1.000
 3904.00    0.65201   0.62802   -1.000
 3905.00    0.62667   0.61908   -1.000
 3906.00    0.62623   0.62801  435.445
 3907.00    0.65141   0.65616  444.790
 3908.00    0.68967   0.69220  435.232
 3909.00    0.72591   0.72213  408.273
 3910.00    0.74695   0.73873   -1.000
 3911.00    0.75392   0.74707  377.362
 3912.00    0.76311   0.74992   -1.000
 3913.00    0.75797   0.74660   -1.000
 3914.00    0.74593   0.73815  370.108
 3915.00    0.72545   0.72697  375.399
 3916.00    0.72283   0.71429   -1.000
 3917.00    0.72545   0.69966   -1.000
 3918.00    0.70590   0.67871   -1.000
 3919.00    0.67550   0.65023   -1.000
 3920.00    0.63586   0.62366   -1.000
 3921.00    0.60656   0.60786  435.639
 3922.00    0.60515   0.60757  453.909
 3923.00    0.60837   0.61545  459.893
 3924.00    0.61624   0.61762  454.445
 3925.00    0.60170   0.60462  448.625
 3926.00    0.57299   0.57259  456.562
 3927.00    0.51763   0.53017   -1.000
 3928.00    0.44565   0.48429   -1.000
 3929.00    0.39880   0.44150   -1.000
 3930.00    0.35302   0.40295   -1.000
 3931.00    0.31019   0.36477   -1.000
 3932.00    0.27192   0.32938   -1.000
 3933.00    0.24991   0.30448   -1.000
 3934.00    0.24490   0.30472   -1.000
 3935.00    0.26188   0.33313   -1.000
 3936.00    0.31324   0.37805   -1.000
 3937.00    0.37058   0.42740   -1.000
 3938.00    0.41521   0.47853   -1.000
 3939.00    0.46381   0.52291   -1.000
 3940.00    0.51532   0.55554   81.725
 3941.00    0.52114   0.57251   -1.000
 3942.00    0.53588   0.57515   -1.000
 3943.00    0.53762   0.57481   -1.000
 3944.00    0.54121   0.58665   -1.000
 3945.00    0.58623   0.61363   -1.000
 3946.00    0.64787   0.64266   -1.000
 3947.00    0.66223   0.66293  440.937
 3948.00    0.68536   0.67764   -1.000
 3949.00    0.70867   0.69495   -1.000
 3950.00    0.72915   0.71244   -1.000
 3951.00    0.74166   0.71842   -1.000
 3952.00    0.73063   0.71814   -1.000
 3953.00    0.72624   0.72319  388.627
 3954.00    0.74781   0.73050   -1.000
 3955.00    0.73852   0.72978   -1.000
 3956.00    0.72954   0.71923   -1.000
 3957.00    0.71773   0.70987   -1.000
 3958.00    0.71517   0.70553   -1.000
 3959.00    0.70327   0.68843   -1.000
 3960.00    0.64222   0.64339  395.664
 3961.00    0.56287   0.58671   -1.000
 3962.00    0.52565   0.53728   -1.000
 3963.00    0.50789   0.50508   -1.000
 3964.00    0.47692   0.47868  509.366
 3965.00    0.42019   0.43954   -1.000
 3966.00    0.36638   0.38714   65.637
 3967.00    0.31190   0.33157   77.770
 3968.00    0.26903   0.29390   95.900
 3969.00    0.26129   0.28914  115.168
 3970.00    0.29819   0.31740  122.695
 3971.00    0.35433   0.36723  110.696
 3972.00    0.42016   0.42840   91.062
 3973.00    0.49064   0.48957   75.128
 3974.00    0.55857   0.54904   79.105
 3975.00    0.61762   0.60443   -1.000
 3976.00    0.66152   0.65374   -1.000
 3977.00    0.72255   0.70013   -1.000
 3978.00    0.77210   0.74225   -1.000
 3979.00    0.80988   0.77886   -1.000
 3980.00    0.83471   0.79954   -1.000
 3981.00    0.82833   0.80151   -1.000
 3982.00    0.81859   0.79357   -1.000
 3983.00    0.81742   0.78968   -1.000
 3984.00    0.81942   0.79701   -1.000
 3985.00    0.84011   0.81192   -1.000
 3986.00    0.86797   0.83045   -1.000
 3987.00    0.88628   0.84956   -1.000
 3988.00    0.90826   0.86298   -1.000
 3989.00    0.91311   0.86749   -1.000
 3990.00    0.89663   0.86942   -1.000
 3991.00    0.90326   0.87707   -1.000
 3992.00    0.93051   0.88957   -1.000
 3993.00    0.93388   0.89670   -1.000
 3994.00    0.91836   0.89069   -1.000
 3995.00    0.90843   0.87437   -1.000
 3996.00    0.88748   0.85665   -1.000
 3997.00    0.87615   0.85178   -1.000
 3998.00    0.89101   0.86718   -1.000
 3999.00    0.91992   0.89683   -1.000
 4000.00    0.95520   0.92536   -1.000
 4001.00    0.97364   0.94464   -1.000
 4002.00    0.99954   0.94788   -1.000
 4003.00    0.99247   0.92686   -1.000
 4004.00    0.93287   0.88371   -1.000
 4005.00    0.87440   0.84426   -1.000
 4006.00    0.87280   0.83695   -1.000
 4007.00    0.91796   0.86491   -1.000
 4008.00    0.94911   0.90611   -1.000
 4009.00    0.97369   0.93559   -1.000
 4010.00    0.97664   0.94951   -1.000
 4011.00    0.97205   0.95568   -1.000
 4012.00    1.01263   0.95995   -1.000
 4013.00    1.01375   0.96597   -1.000
 4014.00    0.99196   0.97352   -1.000
 4015.00    0.99796   0.97722   -1.000
 4016.00    1.00000   0.97451   -1.000
 4017.00    0.99985   0.97266   -1.000
 4018.00    0.98967   0.97916  292.991
 4019.00    1.00089   0.98992  295.736
 4020.00    1.00718   0.99584  293.591
 4021.00    1.00053   0.99177  289.891
 4022.00    1.00365   0.98146   -1.000
 4023.00    0.99853   0.96948   -1.000
 4024.00    0.99275   0.96065   -1.000
 4025.00    0.99891   0.96301   -1.000
 4026.00    1.03060   0.98105   -1.000
 4027.00    1.06122   1.00392   -1.000
 4028.00    1.05988   1.00675   -1.000
 4029.00    1.01373   0.97327   -1.000
 4030.00    0.95539   0.91350   -1.000
 4031.00    0.92438   0.85978   -1.000
 4032.00    0.90802   0.83044   -1.000
 4033.00    0.90114   0.82853   -1.000
 4034.00    0.92149   0.85368   -1.000
 4035.00    0.97338   0.90404   -1.000
 4036.00    1.02464   0.96452   -1.000
 4037.00    1.06939   1.01690   -1.000
 4038.00    1.09179   1.04043   -1.000
 4039.00    1.07347   1.03298   -1.000
 4040.00    1.05663   1.01505   -1.000
 4041.00    1.03576   1.00285   -1.000
 4042.00    1.02583   0.98231   -1.000
 4043.00    1.00486   0.93133   -1.000
 4044.00    0.92386   0.85345   -1.000
 4045.00    0.83212   0.78920   -1.000
 4046.00    0.82238   0.78854   -1.000
 4047.00    0.89759   0.85183   -1.000
 4048.00    0.97064   0.93048   -1.000
 4049.00    1.00883   0.98954   -1.000
 4050.00    1.04768   1.01714   -1.000
 4051.00    1.04927   1.01832   -1.000
 4052.00    1.02293   1.00207   -1.000
 4053.00    1.01989   0.97827   -1.000
 4054.00    1.00662   0.95604   -1.000
 4055.00    0.96782   0.93794   -1.000
 4056.00    0.95332   0.92101   -1.000
 4057.00    0.96105   0.90906   -1.000
 4058.00    0.94577   0.91468   -1.000
 4059.00    0.97202   0.93796   -1.000
 4060.00    1.01465   0.95406   -1.000
 4061.00    1.00300   0.93464   -1.000
 4062.00    0.94785   0.88204   -1.000
 4063.00    0.88028   0.83537   -1.000
 4064.00    0.86026   0.82185   -1.000
 4065.00    0.89809   0.83905   -1.000
 4066.00    0.94016   0.87220   -1.000
 4067.00    0.99103   0.90725   -1.000
 4068.00    1.01854   0.93481   -1.000
 4069.00    1.03607   0.94203   -1.000
 4070.00    1.00534   0.91932   -1.000
 4071.00    0.96308   0.88624   -1.000
 4072.00    0.94255   0.87860   -1.000
 4073.00    0.98339   0.90000   -1.000
 4074.00    1.00277   0.91857   -1.000
 4075.00    0.96853   0.90180   -1.000
 4076.00    0.91340   0.85892   -1.000
 4077.00    0.86399   0.83162   -1.000
 4078.00    0.87522   0.84721   -1.000
 4079.00    0.94284   0.90241   -1.000
 4080.00    1.00419   0.96460   -1.000
 4081.00    1.05404   1.00358   -1.000
 4082.00    1.04151   1.00547   -1.000
 4083.00    1.00606   0.98302   -1.000
 4084.00    0.98950   0.96363   -1.000
 4085.00    0.99940   0.96786   -1.000
 4086.00    1.03152   0.99754   -1.000
 4087.00    1.09240   1.03567   -1.000
 4088.00    1.12428   1.06508   -1.000
 4089.00    1.13368   1.07205   -1.000
 4090.00    1.11217   1.05719   -1.000
 4091.00    1.08297   1.03531   -1.000
 4092.00    1.06111   1.02105   -1.000
 4093.00    1.06717   1.00910   -1.000
 4094.00    1.06278   0.98738   -1.000
 4095.00    1.01556   0.95313   -1.000
 4096.00    0.97931   0.91661   -1.000
 4097.00    0.96971   0.88953   -1.000
 4098.00    0.96008   0.86412   -1.000
 4099.00    0.92113   0.82559   -1.000
 4100.00    0.87433   0.77462   -1.000
 4101.00    0.81569   0.73566   -1.000
 4102.00    0.80924   0.73677   -1.000
 4103.00    0.86134   0.78341   -1.000
 4104.00    0.92447   0.85072   -1.000
 4105.00    0.96554   0.91306   -1.000
 4106.00    1.01450   0.95476   -1.000
 4107.00    1.03769   0.97374   -1.000
 4108.00    1.03350   0.97517   -1.000
 4109.00    1.01910   0.96605   -1.000
 4110.00    0.98829   0.95671   -1.000
 4111.00    0.97273   0.95724   -1.000
 4112.00    0.98137   0.97000  310.109
 4113.00    1.00383   0.99160  305.536
 4114.00    1.02141   1.01485  298.745
 4115.00    1.05241   1.03062   -1.000
 4116.00    1.04648   1.02981   -1.000
 4117.00    1.04649   1.01131   -1.000
 4118.00    1.01185   0.98640   -1.000
 4119.00    0.98892   0.97084   -1.000
 4120.00    1.00165   0.97076   -1.000
 4121.00    1.00499   0.97833   -1.000
 4122.00    0.99329   0.98510  303.968
 4123.00    0.99713   0.99197  301.306
 4124.00    1.01402   1.00219  301.247
 4125.00    1.03371   1.00989   -1.000
 4126.00    1.05056   1.00606   -1.000
 4127.00    1.04122   0.99190   -1.000
 4128.00    1.01304   0.97719   -1.000
 4129.00    0.98317   0.96438   -1.000
 4130.00    0.97460   0.94546   -1.000
 4131.00    0.95760   0.91849   -1.000
 4132.00    0.93562   0.89391   -1.000
 4133.00    0.89953   0.89230  321.888
 4134.00    0.92824   0.92188  330.881
 4135.00    0.98610   0.96730   -1.000
 4136.00    1.02593   1.00893   -1.000
 4137.00    1.05773   1.03755   -1.000
 4138.00    1.06791   1.05281   -1.000
 4139.00    1.07280   1.05690   -1.000
 4140.00    1.07220   1.04131   -1.000
 4141.00    1.03050   0.99499   -1.000
 4142.00    0.94112   0.92951   -1.000
 4143.00    0.86242   0.88278   -1.000
 4144.00    0.87945   0.88186  333.972
 4145.00    0.93320   0.92061   -1.000
 4146.00    0.99055   0.96727   -1.000
 4147.00    0.99867   0.99145  313.370
 4148.00    1.01461   0.98965   -1.000
 4149.00    0.99705   0.97710   -1.000
 4150.00    0.99274   0.96836   -1.000
 4151.00    0.97289   0.96468  315.689
 4152.00    0.96283   0.96010  318.695
 4153.00    0.95252   0.95170  316.224
 4154.00    0.94056   0.94215  314.993
 4155.00    0.95595   0.93878   -1.000
 4156.00    1.20425   0.94810   -1.000
 4157.00    1.21629   0.96904   -1.000
 4158.00    0.74746   0.99762   -1.000
 4159.00    0.79710   1.02633   -1.000
 4160.00    1.04755   1.04648  302.326
 4161.00    1.06666   1.06076  305.217
 4162.00    1.06169   1.07164   -1.000
 4163.00    1.06949   1.07574   -1.000
 4164.00    1.05100   1.06810   -1.000
 4165.00    1.01596   1.04746   -1.000
 4166.00    0.98512   1.02143   -1.000
 4167.00    0.97417   1.00652   -1.000
 4168.00    0.97806   1.00762   -1.000
 4169.00    1.00022   1.01270   -1.000
 4170.00    0.99739   1.00067  310.367
 4171.00    0.96173   0.96417  305.799
 4172.00    0.91256   0.92470   -1.000
 4173.00    0.88462   0.90677   -1.000
 4174.00    0.89634   0.91692   -1.000
 4175.00    0.92976   0.93958   -1.000
 4176.00    0.95590   0.95556  334.089
 4177.00    0.94014   0.96364   -1.000
 4178.00    0.93791   0.97373   -1.000
 4179.00    0.96394   0.98500   -1.000
 4180.00    0.97650   0.98862   -1.000
 4181.00    0.98125   0.98335  318.339
 4182.00    0.95997   0.98353   -1.000
 4183.00    0.97605   1.00162   -1.000
 4184.00    1.01481   1.02355   -1.000
 4185.00    1.04789   1.02714   -1.000
 4186.00    1.01848   1.00784  300.747
 4187.00    0.97717   0.98582  302.399
 4188.00    0.95987   0.98363   -1.000
 4189.00    0.99220   0.99979  320.603
 4190.00    1.00861   1.01901   -1.000
 4191.00    1.01717   1.03367   -1.000
 4192.00    1.03627   1.04674   -1.000
 4193.00    1.05156   1.05360  303.631
 4194.00    1.03127   1.03944   -1.000
 4195.00    0.99599   1.00026  294.600
 4196.00    0.94979   0.95559  304.407
 4197.00    0.92044   0.92273  320.255
 4198.00    0.91855   0.90758   -1.000
 4199.00    0.94518   0.90647   -1.000
 4200.00    0.93713   0.91330   -1.000
 4201.00    0.95238   0.92271   -1.000
 4202.00    0.96025   0.93684   -1.000
 4203.00    0.98778   0.96119   -1.000
 4204.00    1.00545   0.99520  323.035
 4205.00    1.01501   1.03121   -1.000
 4206.00    1.05096   1.06059   -1.000
 4207.00    1.09869   1.08002   -1.000
 4208.00    1.09648   1.08584  301.380
 4209.00    1.08143   1.08131  296.005
 4210.00    1.07546   1.07751  294.971
 4211.00    1.07090   1.08035   -1.000
 4212.00    1.06280   1.08001   -1.000
 4213.00    1.05742   1.05873  293.491
 4214.00    0.99817   1.01847   -1.000
 4215.00    0.95011   0.98917   -1.000
 4216.00    0.98410   1.00048   -1.000
 4217.00    1.05329   1.05240  327.107
 4218.00    1.12001   1.11045  314.257
 4219.00    1.16078   1.15035  294.371
 4220.00    1.18045   1.16184   -1.000
 4221.00    1.17903   1.14297   -1.000
 4222.00    1.14135   1.09486   -1.000
 4223.00    1.05496   1.01780   -1.000
 4224.00    0.95679   0.91504   -1.000
 4225.00    0.85302   0.81731   -1.000
 4226.00    0.76823   0.76405  341.859
 4227.00    0.76567   0.78534   -1.000
 4228.00    0.88175   0.87636  412.758
 4229.00    1.01500   0.99187   -1.000
 4230.00    1.11185   1.07062   -1.000
 4231.00    1.13184   1.09642   -1.000
 4232.00    1.11861   1.08402   -1.000
 4233.00    1.08961   1.05447   -1.000
 4234.00    1.06035   1.02592   -1.000
 4235.00    1.03375   1.00969   -1.000
 4236.00    1.01594   1.00574  300.892
 4237.00    1.01696   1.01293  308.065
 4238.00    1.04161   1.03195  312.932
 4239.00    1.07294   1.05777   -1.000
 4240.00    1.09663   1.08449   -1.000
 4241.00    1.10581   1.11081  298.290
 4242.00    1.13326   1.13535  292.583
 4243.00    1.16438   1.16124  288.940
 4244.00    1.18068   1.18384  287.505
 4245.00    1.17652   1.18484   -1.000
 4246.00    1.14370   1.15473   -1.000
 4247.00    1.08830   1.10489   -1.000
 4248.00    1.05411   1.05301  294.402
 4249.00    1.03227   1.01872   -1.000
 4250.00    1.01694   1.01094  312.451
 4251.00    1.03442   1.02502  314.822
 4252.00    1.06934   1.04027   -1.000
 4253.00    1.06197   1.03791   -1.000
 4254.00    1.04095   1.02684   -1.000
 4255.00    1.04328   1.03582  299.023
 4256.00    1.09193   1.06885   -1.000
 4257.00    1.12987   1.08844   -1.000
 4258.00    1.09174   1.06463   -1.000
 4259.00    1.02486   1.01489  288.976
 4260.00    0.98867   0.98523  301.133
 4261.00    0.99305   1.00858   -1.000
 4262.00    1.05253   1.07679   -1.000
 4263.00    1.13857   1.15426   -1.000
 4264.00    1.18267   1.20287   -1.000
 4265.00    1.19990   1.21559   -1.000
 4266.00    1.19960   1.20218  271.963
 4267.00    1.16889   1.16703  271.910
 4268.00    1.10580   1.11161  276.933
 4269.00    1.05951   1.04245   -1.000
 4270.00    1.00990   0.96692   -1.000
 4271.00    0.92374   0.90831   -1.000
 4272.00    0.88793   0.88433  327.936
 4273.00    0.91542   0.89504   -1.000
 4274.00    0.95283   0.93110   -1.000
 4275.00    0.99820   0.98732   -1.000
 4276.00    1.07354   1.05550   -1.000
 4277.00    1.13810   1.11754   -1.000
 4278.00    1.15265   1.14594  295.465
 4279.00    1.12231   1.13478   -1.000
 4280.00    1.07716   1.10744   -1.000
 4281.00    1.05176   1.09295   -1.000
 4282.00    1.06616   1.09600   -1.000
 4283.00    1.09051   1.10001   -1.000
 4284.00    1.07943   1.09273   -1.000
 4285.00    1.04422   1.07639   -1.000
 4286.00    1.02198   1.05860   -1.000
 4287.00    1.02566   1.03488  313.919
 4288.00    0.99704   0.99745  321.554
 4289.00    0.93794   0.95421   -1.000
 4290.00    0.90497   0.93381   -1.000
 4291.00    0.95134   0.95681  355.999
 4292.00    1.02591   1.00473   -1.000
 4293.00    1.07156   1.03781   -1.000
 4294.00    1.06419   1.04187   -1.000
 4295.00    1.02930   1.02668  310.119
 4296.00    1.01797   0.99920   -1.000
 4297.00    0.98035   0.95380   -1.000
 4298.00    0.90100   0.89321   -1.000
 4299.00    0.80919   0.83572   -1.000
 4300.00    0.78155   0.80611   -1.000
 4301.00    0.80903   0.80926  401.623
 4302.00    0.81395   0.82809   -1.000
 4303.00    0.84112   0.84448  391.946
 4304.00    0.86989   0.85245   -1.000
 4305.00    0.86775   0.84550   -1.000
 4306.00    0.83284   0.81638   -1.000
 4307.00    0.78385   0.77764   -1.000
 4308.00    0.75717   0.75655  392.920
 4309.00    0.76349   0.77136  414.134
 4310.00    0.80876   0.81850  422.919
 4311.00    0.87512   0.88240  412.810
 4312.00    0.93698   0.94720   -1.000
 4313.00    0.98428   1.01471   -1.000
 4314.00    1.04611   1.09583   -1.000
 4315.00    1.13753   1.18688   -1.000
 4316.00    1.25691   1.27625   -1.000
 4317.00    1.33749   1.33481  284.540
 4318.00    1.33733   1.34625   -1.000
 4319.00    1.31855   1.32455  255.465
 4320.00    1.26731   1.28932   -1.000
 4321.00    1.24510   1.24017  260.405
 4322.00    1.19219   1.16949   -1.000
 4323.00    1.10898   1.07368   -1.000
 4324.00    0.98773   0.97963   -1.000
 4325.00    0.92146   0.93857   -1.000
 4326.00    0.95054   0.97935   -1.000
 4327.00    1.07678   1.08276  351.452
 4328.00    1.20065   1.19643  326.324
 4329.00    1.25810   1.26602   -1.000
 4330.00    1.26015   1.28578   -1.000
 4331.00    1.26593   1.28660   -1.000
 4332.00    1.26557   1.29488   -1.000
 4333.00    1.28311   1.31124   -1.000
 4334.00    1.30863   1.31751   -1.000
 4335.00    1.30374   1.29191  259.759
 4336.00    1.26692   1.22092   -1.000
 4337.00    1.14575   1.11251   -1.000
 4338.00    1.04832   0.99664   -1.000
 4339.00    0.98140   0.92093   -1.000
 4340.00    0.94365   0.90926   -1.000
 4341.00    0.97730   0.95694   -1.000
 4342.00    1.07732   1.04066   -1.000
 4343.00    1.15058   1.12557   -1.000
 4344.00    1.19336   1.18578  309.627
 4345.00    1.23806   1.22760  291.546
 4346.00    1.26758   1.26253  282.884
 4347.00    1.27243   1.29421   -1.000
 4348.00    1.29708   1.31710   -1.000
 4349.00    1.31123   1.30849  268.099
 4350.00    1.25845   1.25333  263.713
 4351.00    1.15931   1.17912   -1.000
 4352.00    1.09411   1.13578   -1.000
 4353.00    1.13609   1.14840   -1.000
 4354.00    1.20538   1.19791  304.704
 4355.00    1.24197   1.25101   -1.000
 4356.00    1.27804   1.28390  278.050
 4357.00    1.30051   1.29168  269.823
 4358.00    1.28251   1.28257  264.504
 4359.00    1.24207   1.27590   -1.000
 4360.00    1.24393   1.28954   -1.000
 4361.00    1.30821   1.32058   -1.000
 4362.00    1.33540   1.35291   -1.000
 4363.00    1.33424   1.37609   -1.000
 4364.00    1.34558   1.39101   -1.000
 4365.00    1.37041   1.39059   -1.000
 4366.00    1.34492   1.36237   -1.000
 4367.00    1.28177   1.31660   -1.000
 4368.00    1.25313   1.28184   -1.000
 4369.00    1.26552   1.26961  271.734
 4370.00    1.27972   1.26944  274.169
 4371.00    1.28865   1.26232   -1.000
 4372.00    1.26921   1.23601   -1.000
 4373.00    1.21333   1.19365   -1.000
 4374.00    1.13482   1.15295   -1.000
 4375.00    1.12839   1.14216   -1.000
 4376.00    1.18806   1.17580   -1.000
 4377.00    1.24940   1.23291   -1.000
 4378.00    1.29075   1.27176   -1.000
 4379.00    1.28135   1.27117  267.429
 4380.00    1.27486   1.22700   -1.000
 4381.00    1.22184   1.13744   -1.000
 4382.00    1.11405   1.02035   -1.000
 4383.00    0.98437   0.92537   -1.000
 4384.00    0.91282   0.90167   -1.000
 4385.00    0.99376   0.96088   -1.000
 4386.00    1.11207   1.05917   -1.000
 4387.00    1.19008   1.13352   -1.000
 4388.00    1.21704   1.15969   -1.000
 4389.00    1.20679   1.15868   -1.000
 4390.00    1.18852   1.15915   -1.000
 4391.00    1.20531   1.17254   -1.000
 4392.00    1.23867   1.19184   -1.000
 4393.00    1.23435   1.20361   -1.000
 4394.00    1.21424   1.20953  273.235
 4395.00    1.21874   1.22826   -1.000
 4396.00    1.27102   1.26859  282.095
 4397.00    1.33662   1.30590   -1.000
 4398.00    1.32354   1.30758   -1.000
 4399.00    1.26999   1.27596  259.452
 4400.00    1.23550   1.24340  263.905
 4401.00    1.23417   1.22479  274.142
 4402.00    1.25869   1.20456   -1.000
 4403.00    1.21799   1.15799   -1.000
 4404.00    1.13425   1.09731   -1.000
 4405.00    1.09505   1.06714   -1.000
 4406.00    1.13113   1.08484   -1.000
 4407.00    1.18982   1.12778   -1.000
 4408.00    1.19945   1.17775   -1.000
 4409.00    1.21654   1.23484   -1.000
 4410.00    1.29257   1.30271   -1.000
 4411.00    1.36048   1.35950  273.319
 4412.00    1.39341   1.36796   -1.000
 4413.00    1.36179   1.32264   -1.000
 4414.00    1.28133   1.25467   -1.000
 4415.00    1.21195   1.20466  257.695
 4416.00    1.18979   1.20553   -1.000
 4417.00    1.24987   1.25818  282.637
 4418.00    1.30586   1.33015   -1.000
 4419.00    1.34338   1.37962   -1.000
 4420.00    1.37063   1.38587   -1.000
 4421.00    1.34123   1.35542   -1.000
 4422.00    1.28413   1.31617   -1.000
 4423.00    1.27237   1.29555   -1.000
 4424.00    1.28201   1.30012   -1.000
 4425.00    1.29632   1.31379   -1.000
 4426.00    1.27223   1.32309   -1.000
 4427.00    1.26796   1.33055   -1.000
 4428.00    1.28639   1.33534   -1.000
 4429.00    1.28354   1.33118   -1.000
 4430.00    1.26540   1.32078   -1.000
 4431.00    1.27281   1.31337   -1.000
 4432.00    1.27910   1.30811   -1.000
 4433.00    1.26062   1.28642   -1.000
 4434.00    1.21252   1.24845   -1.000
 4435.00    1.17561   1.23081   -1.000
 4436.00    1.21893   1.26329   -1.000
 4437.00    1.29754   1.33781   -1.000
 4438.00    1.35803   1.40654   -1.000
 4439.00    1.40555   1.42920   -1.000
 4440.00    1.37440   1.39817   -1.000
 4441.00    1.30113   1.33856   -1.000
 4442.00    1.26785   1.29114   -1.000
 4443.00    1.25235   1.28928   -1.000
 4444.00    1.27942   1.33710   -1.000
 4445.00    1.35423   1.39995   -1.000
 4446.00    1.41493   1.44266   -1.000
 4447.00    1.42380   1.45677   -1.000
 4448.00    1.40510   1.45489   -1.000
 4449.00    1.41029   1.44969   -1.000
 4450.00    1.38614   1.44149   -1.000
 4451.00    1.37497   1.42627   -1.000
 4452.00    1.37398   1.39776   -1.000
 4453.00    1.34399   1.34993  254.463
 4454.00    1.29991   1.28970  256.393
 4455.00    1.24786   1.24686  266.308
 4456.00    1.24395   1.23734  278.783
 4457.00    1.26101   1.24714   -1.000
 4458.00    1.27895   1.25339   -1.000
 4459.00    1.26272   1.24735   -1.000
 4460.00    1.24844   1.23927  274.334
 4461.00    1.23968   1.24446  275.812
 4462.00    1.26782   1.27262  278.785
 4463.00    1.31331   1.31816  281.251
 4464.00    1.35362   1.36003  275.318
 4465.00    1.37841   1.38107  264.197
 4466.00    1.37206   1.38089  258.178
 4467.00    1.36192   1.36965  258.050
 4468.00    1.35383   1.35711  258.243
 4469.00    1.33924   1.35155   -1.000
 4470.00    1.34067   1.36476   -1.000
 4471.00    1.38037   1.40213   -1.000
 4472.00    1.41514   1.44879   -1.000
 4473.00    1.45273   1.48867   -1.000
 4474.00    1.49417   1.51429   -1.000
 4475.00    1.50164   1.53099   -1.000
 4476.00    1.50877   1.54886   -1.000
 4477.00    1.53024   1.55833   -1.000
 4478.00    1.52800   1.53644  236.444
 4479.00    1.46244   1.47750   -1.000
 4480.00    1.38512   1.40633   -1.000
 4481.00    1.34242   1.36561   -1.000
 4482.00    1.35405   1.38030   -1.000
 4483.00    1.40932   1.44142   -1.000
 4484.00    1.47439   1.51322   -1.000
 4485.00    1.52244   1.56413   -1.000
 4486.00    1.53309   1.57416   -1.000
 4487.00    1.51219   1.54020   -1.000
 4488.00    1.46609   1.48032   -1.000
 4489.00    1.41731   1.43388   -1.000
 4490.00    1.39330   1.42741   -1.000
 4491.00    1.43588   1.45179   -1.000
 4492.00    1.48925   1.47325   -1.000
 4493.00    1.46496   1.46311  247.010
 4494.00    1.41412   1.43082   -1.000
 4495.00    1.38089   1.40865   -1.000
 4496.00    1.38446   1.42097   -1.000
 4497.00    1.43527   1.46258   -1.000
 4498.00    1.49930   1.50570  257.155
 4499.00    1.51438   1.52899   -1.000
 4500.00    1.50094   1.53121   -1.000
 4501.00    1.48180   1.53141   -1.000
 4502.00    1.48002   1.54936   -1.000
 4503.00    1.53208   1.58528   -1.000
 4504.00    1.58316   1.62609   -1.000
 4505.00    1.59801   1.65054   -1.000
 4506.00    1.58046   1.64661   -1.000
 4507.00    1.55838   1.62706   -1.000
 4508.00    1.55798   1.61266   -1.000
 4509.00    1.57880   1.61142   -1.000
 4510.00    1.58731   1.61606   -1.000
 4511.00    1.58387   1.61199   -1.000
 4512.00    1.55854   1.59113   -1.000
 4513.00    1.52992   1.56077   -1.000
 4514.00    1.50240   1.53494   -1.000
 4515.00    1.51600   1.52231  240.637
 4516.00    1.52700   1.52173  242.083
 4517.00    1.52381   1.52500  240.830
 4518.00    1.51634   1.52956   -1.000
 4519.00    1.52345   1.54259   -1.000
 4520.00    1.55547   1.56383  245.081
 4521.00    1.56362   1.57944   -1.000
 4522.00    1.54463   1.57469   -1.000
 4523.00    1.50434   1.54872   -1.000
 4524.00    1.48311   1.51267   -1.000
 4525.00    1.44558   1.47204   -1.000
 4526.00    1.40595   1.42307   -1.000
 4527.00    1.35853   1.37011  253.781
 4528.00    1.30511   1.32906   -1.000
 4529.00    1.32655   1.31440   -1.000
 4530.00    1.34508   1.32926   -1.000
 4531.00    1.38076   1.36054   -1.000
 4532.00    1.41375   1.38631   -1.000
 4533.00    1.38898   1.39219  260.515
 4534.00    1.34313   1.38442   -1.000
 4535.00    1.32342   1.38755   -1.000
 4536.00    1.37421   1.42305   -1.000
 4537.00    1.49383   1.48500  272.076
 4538.00    1.55096   1.54050  256.451
 4539.00    1.56124   1.56007  241.293
 4540.00    1.52235   1.54474   -1.000
 4541.00    1.50355   1.52187   -1.000
 4542.00    1.49778   1.51525   -1.000
 4543.00    1.53077   1.52200  242.669
 4544.00    1.54977   1.52544   -1.000
 4545.00    0.51385   1.51752   -1.000
 4546.00   -0.01097   1.50499    0.000
 4547.00   -0.02338   1.49449    0.000
 4548.00    0.97600   1.48238   -1.000
 4549.00    0.54347   1.46941   -1.000
 4550.00    0.84506   1.46670   -1.000
 4551.00    1.52586   1.47871   -1.000
 4552.00    1.47679   1.49021   -1.000
 4553.00    1.45005   1.48557   -1.000
 4554.00    1.45796   1.47219   -1.000
 4555.00    1.47842   1.47225  255.519
 4556.00    1.50090   1.50070  257.894
 4557.00    1.55138   1.55142  254.046
 4558.00    1.59985   1.60152  244.774
 4559.00    1.59894   1.63256   -1.000
 4560.00    1.60282   1.64431   -1.000
 4561.00    1.61109   1.64212   -1.000
 4562.00    1.58624   1.62565   -1.000
 4563.00    1.57156   1.59225   -1.000
 4564.00    1.53137   1.55278   -1.000
 4565.00    1.49139   1.52991   -1.000
 4566.00    1.51909   1.54026   -1.000
 4567.00    1.56905   1.57841  244.793
 4568.00    1.61015   1.61833  238.589
 4569.00    1.60782   1.63254   -1.000
 4570.00    1.55695   1.61669   -1.000
 4571.00    1.51870   1.58849   -1.000
 4572.00    1.53391   1.57342   -1.000
 4573.00    1.57091   1.58656   -1.000
 4574.00    1.60792   1.61547  242.889
 4575.00    1.60800   1.63545   -1.000
 4576.00    1.58553   1.63656   -1.000
 4577.00    1.58124   1.62285   -1.000
 4578.00    1.57244   1.59518   -1.000
 4579.00    1.52276   1.55455   -1.000
 4580.00    1.49451   1.51406   -1.000
 4581.00    1.48712   1.49305  245.765
 4582.00    1.50047   1.49632  250.897
 4583.00    1.51511   1.51017  250.322
 4584.00    1.51051   1.51840  246.824
 4585.00    1.49656   1.51826   -1.000
 4586.00    1.50806   1.52405   -1.000
 4587.00    1.54813   1.54902  247.177
 4588.00    1.58486   1.58632  243.876
 4589.00    1.61316   1.61594  237.515
 4590.00    1.60579   1.62189   -1.000
 4591.00    1.57885   1.60320   -1.000
 4592.00    1.53725   1.57341   -1.000
 4593.00    1.52469   1.54894   -1.000
 4594.00    1.51388   1.53579   -1.000
 4595.00    1.52506   1.53124  244.241
 4596.00    1.53987   1.53206  242.209
 4597.00    1.54815   1.53869  240.293
 4598.00    1.55955   1.54952  239.617
 4599.00    1.54887   1.55815  239.113
 4600.00    1.53900   1.56055   -1.000
 4601.00    1.52538   1.55961   -1.000
 4602.00    1.54164   1.56024   -1.000
 4603.00    1.54570   1.56244   -1.000
 4604.00    1.55557   1.56306  241.017
 4605.00    1.56813   1.56600  238.298
 4606.00    1.57866   1.58249  238.595
 4607.00    1.61132   1.61842  238.233
 4608.00    1.64212   1.66569   -1.000
 4609.00    1.68648   1.70444   -1.000
 4610.00    1.69795   1.71518   -1.000
 4611.00    1.65377   1.69893   -1.000
 4612.00    1.63564   1.67413   -1.000
 4613.00    1.63702   1.65884   -1.000
 4614.00    1.63714   1.65937   -1.000
 4615.00    1.64980   1.67088   -1.000
 4616.00    1.65336   1.68407   -1.000
 4617.00    1.65145   1.69195   -1.000
 4618.00    1.63886   1.69336   -1.000
 4619.00    1.63348   1.69169   -1.000
 4620.00    1.64183   1.69271   -1.000
 4621.00    1.66456   1.69965   -1.000
 4622.00    1.68179   1.70747   -1.000
 4623.00    1.66891   1.70829   -1.000
 4624.00    1.66676   1.70169   -1.000
 4625.00    1.66776   1.69355   -1.000
 4626.00    1.65844   1.68712   -1.000
 4627.00    1.65983   1.68299   -1.000
 4628.00    1.65748   1.68178   -1.000
 4629.00    1.65139   1.68419   -1.000
 4630.00    1.65086   1.69084   -1.000
 4631.00    1.66987   1.69889   -1.000
 4632.00    1.68223   1.69902   -1.000
 4633.00    1.65302   1.68422   -1.000
 4634.00    1.63517   1.66155   -1.000
 4635.00    1.63528   1.64358  230.330
 4636.00    1.62564   1.63044  232.920
 4637.00    1.60234   1.61439  232.834
 4638.00    1.57520   1.59549   -1.000
 4639.00    1.57325   1.58278  237.691
 4640.00    1.60243   1.58453   -1.000
 4641.00    1.64617   1.60105   -1.000
 4642.00    1.65665   1.62127   -1.000
 4643.00    1.66599   1.62742   -1.000
 4644.00    1.65338   1.60818   -1.000
 4645.00    1.60988   1.56876   -1.000
 4646.00    1.55214   1.52386   -1.000
 4647.00    1.53301   1.49234   -1.000
 4648.00    1.55025   1.49196   -1.000
 4649.00    1.59712   1.52461   -1.000
 4650.00    1.61746   1.57382   -1.000
 4651.00    1.63401   1.61870   -1.000
 4652.00    1.64602   1.64573  231.765
 4653.00    1.63863   1.64926  231.225
 4654.00    1.58952   1.63171   -1.000
 4655.00    1.57372   1.60876   -1.000
 4656.00    1.58501   1.60372   -1.000
 4657.00    1.61563   1.62965  241.559
 4658.00    1.66449   1.68151   -1.000
 4659.00    1.73151   1.73653  232.376
 4660.00    1.75761   1.76672  223.507
 4661.00    1.73516   1.75875   -1.000
 4662.00    1.69030   1.72143   -1.000
 4663.00    1.65439   1.67328   -1.000
 4664.00    1.63123   1.62703  225.665
 4665.00    1.61326   1.57958   -1.000
 4666.00    1.54893   1.52479   -1.000
 4667.00    1.47242   1.47411  234.551
 4668.00    1.45202   1.45362  244.301
 4669.00    1.49724   1.47930   -1.000
 4670.00    1.58412   1.53819   -1.000
 4671.00    1.63422   1.59795   -1.000
 4672.00    1.65265   1.63481   -1.000
 4673.00    1.64505   1.64693  231.093
 4674.00    1.63083   1.65131   -1.000
 4675.00    1.65160   1.66175  229.542
 4676.00    1.69773   1.67531   -1.000
 4677.00    1.70780   1.67645   -1.000
 4678.00    1.67727   1.65569   -1.000
 4679.00    1.61394   1.62163  223.941
 4680.00    1.58483   1.59047  228.604
 4681.00    1.58013   1.57447  233.179
 4682.00    1.58942   1.57841   -1.000
 4683.00    1.62748   1.59881   -1.000
 4684.00    1.66657   1.62332   -1.000
 4685.00    1.68459   1.63870   -1.000
 4686.00    1.66750   1.64129   -1.000
 4687.00    1.65459   1.63538   -1.000
 4688.00    1.65244   1.62807   -1.000
 4689.00    1.64952   1.62353   -1.000
 4690.00    1.65314   1.62187   -1.000
 4691.00    1.65146   1.62121   -1.000
 4692.00    1.65301   1.62317   -1.000
 4693.00    1.67552   1.63278   -1.000
 4694.00    1.70998   1.65081   -1.000
 4695.00    1.73584   1.67030   -1.000
 4696.00    1.75031   1.67919   -1.000
 4697.00    1.71065   1.66658   -1.000
 4698.00    1.65383   1.63358   -1.000
 4699.00    1.61538   1.59589   -1.000
 4700.00    1.61264   1.56887   -1.000
 4701.00    1.60562   1.55352   -1.000
 4702.00    1.59202   1.54624   -1.000
 4703.00    1.56641   1.54922   -1.000
 4704.00    1.60349   1.56553   -1.000
 4705.00    1.64334   1.58627   -1.000
 4706.00    1.64607   1.59443   -1.000
 4707.00    1.60396   1.58468   -1.000
 4708.00    1.58754   1.57088   -1.000
 4709.00    1.57984   1.57134   -1.000
 4710.00    1.59832   1.59101   -1.000
 4711.00    1.65586   1.61803   -1.000
 4712.00    1.69490   1.63540   -1.000
 4713.00    1.69728   1.63479   -1.000
 4714.00    1.66536   1.62509   -1.000
 4715.00    1.64699   1.62724   -1.000
 4716.00    1.67672   1.65308   -1.000
 4717.00    1.71007   1.69431   -1.000
 4718.00    1.73816   1.73402  227.629
 4719.00    1.74586   1.76206  223.206
 4720.00    1.76001   1.77680  221.586
 4721.00    1.75730   1.77837   -1.000
 4722.00    1.74723   1.77132   -1.000
 4723.00    1.73352   1.76704   -1.000
 4724.00    1.76346   1.77050  223.294
 4725.00    1.76928   1.76764  222.232
 4726.00    1.72927   1.73981  219.892
 4727.00    1.66570   1.68434  219.984
 4728.00    1.59424   1.62151   -1.000
 4729.00    1.55824   1.58041   -1.000
 4730.00    1.59014   1.57387   -1.000
 4731.00    1.62913   1.59550   -1.000
 4732.00    1.63177   1.62891  236.148
 4733.00    1.64620   1.66017  234.233
 4734.00    1.68528   1.68025  231.497
 4735.00    1.71387   1.68626   -1.000
 4736.00    1.70000   1.68564   -1.000
 4737.00    1.68023   1.68884  226.784
 4738.00    1.70204   1.70088  228.883
 4739.00    1.73345   1.71699   -1.000
 4740.00    1.72512   1.72667  226.715
 4741.00    1.70836   1.72755   -1.000
 4742.00    1.71273   1.72855  227.736
 4743.00    1.72414   1.73443  228.142
 4744.00    1.73627   1.74213  226.505
 4745.00    1.74676   1.75127  224.072
 4746.00    1.74860   1.76403  224.241
 4747.00    1.75351   1.77951   -1.000
 4748.00    1.76519   1.79384   -1.000
 4749.00    1.75199   1.80406   -1.000
 4750.00    1.75509   1.80887   -1.000
 4751.00    1.76392   1.80474   -1.000
 4752.00    1.73643   1.78825   -1.000
 4753.00    1.72234   1.76309   -1.000
 4754.00    1.69569   1.73879   -1.000
 4755.00    1.69433   1.72440   -1.000
 4756.00    1.69416   1.72261   -1.000
 4757.00    1.68678   1.73061   -1.000
 4758.00    1.70215   1.74590   -1.000
 4759.00    1.71659   1.76359   -1.000
 4760.00    1.72078   1.77270   -1.000
 4761.00    1.70125   1.76160   -1.000
 4762.00    1.64989   1.72884   -1.000
 4763.00    1.61673   1.68710   -1.000
 4764.00    1.60985   1.65296   -1.000
 4765.00    1.59204   1.63135   -1.000
 4766.00    1.59275   1.62097   -1.000
 4767.00    1.61810   1.62966  240.655
 4768.00    1.67392   1.66710   27.963
 4769.00    1.70827   1.72066   23.594
 4770.00    1.71948   1.76113   23.078
 4771.00    1.71434   1.77207   22.734
 4772.00    1.70159   1.76596   22.734
 4773.00    1.71845   1.76968   22.913
 4774.00    1.73249   1.79335   23.117
 4775.00    1.75799   1.82566   22.902
 4776.00    1.77648   1.84981   22.432
 4777.00    1.77488   1.86079   22.239
 4778.00    1.77074   1.86252   22.241
 4779.00    1.74421   1.85560   22.302
 4780.00    1.71538   1.83999   22.439
 4781.00    1.70558   1.82016   22.681
 4782.00    1.70493   1.79780   22.830
 4783.00    1.69281   1.77284   22.895
 4784.00    1.69564   1.75336   23.000
 4785.00    1.70293   1.74464   23.178
 4786.00    1.68924   1.74094   23.192
 4787.00    1.67330   1.73746   23.258
 4788.00    1.67229   1.73579   23.473
 4789.00    1.68403   1.73718   23.622
 4790.00    1.69555   1.74237   23.616
 4791.00    1.71457   1.75696   23.510
 4792.00    1.73744   1.78849   23.367
 4793.00    1.76303   1.83531   23.135
 4794.00    1.80798   1.88546   22.771
 4795.00    1.83437   1.92247   22.278
 4796.00    1.82525   1.93150   21.880
 4797.00    1.79319   1.90819   21.764
 4798.00    1.74281   1.86518   21.949
 4799.00    1.72116   1.82452   22.367
 4800.00    1.73028   1.80517   22.793
 4801.00    1.75402   1.81661   23.084
 4802.00    1.78437   1.85128   22.940
 4803.00    1.78499   1.88355   22.504
 4804.00    1.76813   1.88845   22.162
 4805.00    1.74301   1.86517   22.151
 4806.00    1.72986   1.83223   22.416
 4807.00    1.73290   1.80722   22.708
 4808.00    1.73065   1.79728   22.925
 4809.00    1.73567   1.80344   22.947
 4810.00    1.76271   1.82170   22.894
 4811.00    1.76707   1.84216   22.796
 4812.00    1.77090   1.85481   22.603
 4813.00    1.78640   1.85921   22.434
 4814.00    1.80548   1.86355   22.314
 4815.00    1.79829   1.87372   22.280
 4816.00    1.81289   1.89017   22.230
 4817.00    1.81788   1.91048   22.154
 4818.00    1.83153   1.93059   22.022
 4819.00    1.84875   1.94609   21.884
 4820.00    1.84069   1.95049   21.789
 4821.00    1.81593   1.93598   21.771
 4822.00    1.78326   1.89978   21.771
 4823.00    1.73991   1.85145   21.937
 4824.00    1.73784   1.81304   22.465
 4825.00    1.76376   1.80682   22.921
 4826.00    1.80670   1.83081   22.944
 4827.00    1.80818   1.85551   22.583
 4828.00    1.79163   1.85997   22.224
 4829.00    1.77436   1.85015   22.255
 4830.00    1.76047   1.83788   22.498
 4831.00    1.74673   1.82347   22.658
 4832.00    1.74706   1.80797   22.672
 4833.00    1.75569   1.80418   22.850
 4834.00    1.79118   1.82005   22.916
 4835.00    1.80912   1.84708   22.605
 4836.00    1.80536   1.86760   22.292
 4837.00    1.79291   1.87123   22.179
 4838.00    1.78120   1.85778   22.200
 4839.00    1.74384   1.83207   22.297
 4840.00    1.71183   1.80608   22.574
 4841.00    1.72683   1.79185   22.967
 4842.00    1.75603   1.79031   23.041
 4843.00    1.77290   1.79586   22.998
 4844.00    1.79906   1.80946   22.892
 4845.00    1.81706   1.83474   22.728
 4846.00    1.81937   1.86180   22.509
 4847.00    1.80880   1.87070   22.174
 4848.00    1.77831   1.85471   22.023
 4849.00    1.76488   1.83343   22.386
 4850.00    1.78702   1.82929   22.745
 4851.00    1.80527   1.84082   22.795
 4852.00    1.79682   1.84873   22.520
 4853.00    1.78004   1.83402   22.423
 4854.00    1.73265   1.79146   22.525
 4855.00    1.69328   1.73553   22.709
 4856.00    1.67446   1.69386   23.312
 4857.00    1.68160   1.67832   23.986
 4858.00    1.66367   1.66410   24.049
 4859.00    1.58146   1.60894   23.827
 4860.00    1.43638   1.50052   24.331
 4861.00    1.33310   1.39004   26.196
 4862.00    1.35573   1.34818   29.163
 4863.00    1.47397   1.39859   30.935
 4864.00    1.58704   1.50053   29.556
 4865.00    1.64040   1.60103   27.021
 4866.00    1.68109   1.67662   25.292
 4867.00    1.70044   1.72624   24.306
 4868.00    1.71851   1.75204   23.740
 4869.00    1.71183   1.75008   23.479
 4870.00    1.67399   1.71529   23.361
 4871.00    1.62216   1.65873   23.514
 4872.00    1.59948   1.61477   24.103
 4873.00    1.64154   1.62108   24.715
 4874.00    1.69298   1.67382   24.643
 4875.00    1.70547   1.73261   24.013
 4876.00    1.72913   1.77232   23.546
 4877.00    1.74627   1.79861   23.327
 4878.00    1.76016   1.82588   23.193
 4879.00    1.78305   1.85547   23.107
 4880.00    1.77517   1.87508   22.815
 4881.00    1.75141   1.87200   22.554
 4882.00    1.73392   1.85048   22.677
 4883.00    1.74752   1.82877   23.027
 4884.00    1.74157   1.81053   23.210
 4885.00    1.70945   1.78346   23.167
 4886.00    1.68440   1.75040   23.253
 4887.00    1.68511   1.73001   23.574
 4888.00    1.69510   1.72483   23.746
 4889.00    1.67909   1.71459   23.662
 4890.00    1.64817   1.68550   23.610
 4891.00    1.62153   1.65712   23.891
 4892.00    1.66982   1.67110   24.395
 4893.00    1.77735   1.74646   24.364
 4894.00    1.86278   1.86012   23.525
 4895.00    1.91289   1.96017   22.447
 4896.00    1.92587   2.01361   21.714
 4897.00    1.92190   2.02520   21.266
 4898.00    1.90443   2.01112   21.110
 4899.00    1.86377   1.98313   21.131
 4900.00    1.83281   1.95229   21.513
 4901.00    1.83087   1.92849   22.020
 4902.00    1.82340   1.91187   22.317
 4903.00    1.80747   1.89873   22.273
 4904.00    1.81382   1.89570   22.274
 4905.00    1.84769   1.91569   22.505
 4906.00    1.88616   1.95219   22.362
 4907.00    1.88931   1.97045   21.921
 4908.00    1.85654   1.94565   21.691
 4909.00    1.79014   1.88811   21.822
 4910.00    1.76138   1.82963   22.290
 4911.00    1.78038   1.80124   22.919
 4912.00    1.77834   1.81494   23.287
 4913.00    1.82162   1.85898   23.094
 4914.00    1.86108   1.91011   22.692
 4915.00    1.87947   1.94958   22.360
 4916.00    1.89060   1.96027   22.067
 4917.00    1.84316   1.92012   21.853
 4918.00    1.73406   1.82059   21.898
 4919.00    1.63050   1.69375   22.533
 4920.00    1.59082   1.59693   23.686
 4921.00    1.62627   1.57462   24.861
 4922.00    1.69713   1.62360   25.331
 4923.00    1.74652   1.69944   24.719
 4924.00    1.76711   1.75819   23.830
 4925.00    1.77492   1.79590   23.371
 4926.00    1.82103   1.83734   23.287
 4927.00    1.86017   1.89178   23.049
 4928.00    1.88670   1.94772   22.504
 4929.00    1.92001   1.99362   22.061
 4930.00    1.93459   2.02153   21.817
 4931.00    1.91480   2.02137   21.657
 4932.00    1.88372   1.98807   21.523
 4933.00    1.84056   1.93359   21.664
 4934.00    1.81485   1.88643   22.179
 4935.00    1.81462   1.86736   22.950
 4936.00    1.80996   1.86277   23.174
 4937.00    1.77986   1.83900   22.848
 4938.00    1.72551   1.78853   22.745
 4939.00    1.71162   1.74965   23.273
 4940.00    1.76541   1.76626   23.934
 4941.00    1.83896   1.83682   23.910
 4942.00    1.89939   1.92128   23.212
 4943.00    1.93691   1.98156   22.452
 4944.00    1.95175   2.00688   21.973
 4945.00    1.93858   2.00630   21.730
 4946.00    1.90849   1.99638   21.701
 4947.00    1.91119   1.99464   21.829
 4948.00    1.94538   2.00867   21.901
 4949.00    1.95037   2.03019   21.755
 4950.00    1.95036   2.04622   21.507
 4951.00    1.96702   2.05193   21.401
 4952.00    1.96139   2.04658   21.317
 4953.00    1.93997   2.03111   21.384
 4954.00    1.91217   2.00429   21.526
 4955.00    1.87193   1.95440   21.753
 4956.00    1.78275   1.86796   22.022
 4957.00    1.70056   1.76106   22.540
 4958.00    1.69626   1.69879   23.583
 4959.00    1.76809   1.73213   24.604
 4960.00    1.86109   1.83357   24.435
 4961.00    1.91518   1.93284   23.214
 4962.00    1.91246   1.98368   22.290
 4963.00    1.91080   1.98754   21.988
 4964.00    1.88675   1.96178   22.034
 4965.00    1.85768   1.91775   22.196
 4966.00    1.83018   1.87213   22.441
 4967.00    1.80191   1.84404   22.871
 4968.00    1.79949   1.83893   23.214
 4969.00    1.81454   1.85078   23.286
 4970.00    1.83608   1.87335   23.232
 4971.00    1.86594   1.90389   23.083
 4972.00    1.88409   1.94000   22.852
 4973.00    1.90051   1.97340   22.607
 4974.00    1.91666   1.99400   22.342
 4975.00    1.92463   1.99786   22.118
 4976.00    1.91090   1.98536   22.001
 4977.00    1.87729   1.95782   22.099
 4978.00    1.84328   1.92119   22.316
 4979.00    1.81357   1.88445   22.604
 4980.00    1.78572   1.84904   22.960
 4981.00    1.74699   1.80318   23.265
 4982.00    1.69428   1.73967   23.584
 4983.00    1.66319   1.67814   24.256
 4984.00    1.68509   1.65357   25.053
 4985.00    1.73233   1.68185   25.247
 4986.00    1.78605   1.75042   24.876
 4987.00    1.84689   1.82917   24.227
 4988.00    1.87757   1.88834   23.475
 4989.00    1.87265   1.90991   22.854
 4990.00    1.85038   1.90036   22.734
 4991.00    1.83238   1.88520   22.999
 4992.00    1.84200   1.88251   23.264
 4993.00    1.85667   1.89127   23.329
 4994.00    1.86246   1.90154   23.170
 4995.00    1.85659   1.91063   23.044
 4996.00    1.86524   1.92230   23.014
 4997.00    1.87744   1.92833   22.921
 4998.00    1.85600   1.91165   22.805
 4999.00    1.81425   1.86953   22.882
 5000.00    1.78911   1.81747   23.150
 5001.00    1.78103   1.77841   23.582
 5002.00    1.79009   1.76419   23.924
 5003.00    1.80585   1.76480   24.009
 5004.00    1.80090   1.75671   23.839
 5005.00    1.75788   1.72700   23.662
 5006.00    1.71785   1.69240   23.879
 5007.00    1.73896   1.68878   24.428
 5008.00    1.81224   1.73350   24.689
 5009.00    1.85787   1.79828   24.261
 5010.00    1.84866   1.83761   23.550
 5011.00    1.81649   1.82731   23.181
 5012.00    1.75545   1.77448   23.350
 5013.00    1.69240   1.70800   23.957
 5014.00    1.67279   1.66356   24.816
 5015.00    1.70246   1.66054   25.488
 5016.00    1.73614   1.68477   25.542
 5017.00    1.76186   1.70906   25.079
 5018.00    1.77144   1.72213   24.542
 5019.00    1.77811   1.73379   24.336
 5020.00    1.78745   1.75152   24.317
 5021.00    1.79628   1.76493   24.112
 5022.00    1.78720   1.76858   23.893
 5023.00    1.78796   1.77637   23.923
 5024.00    1.82845   1.80147   23.992
 5025.00    1.85863   1.83493   23.902
 5026.00    1.84343   1.85153   23.677
 5027.00    1.83091   1.84202   23.493
 5028.00    1.82932   1.82851   23.537
 5029.00    1.84746   1.83717   23.653
 5030.00    1.88511   1.87287   23.520
 5031.00    1.92005   1.92219   23.131
 5032.00    1.95365   1.96998   22.772
 5033.00    1.96413   2.00107   22.414
 5034.00    1.93053   1.99677   22.128
 5035.00    1.86825   1.95208   22.090
 5036.00    1.81955   1.89096   22.624
 5037.00    1.79235   1.84412   23.487
 5038.00    1.76706   1.81177   24.022
 5039.00    1.73475   1.76704   24.184
 5040.00    1.66553   1.69773   24.424
 5041.00    1.61508   1.63760   25.212
 5042.00    1.66841   1.64032   26.240
 5043.00    1.78782   1.72211   26.531
 5044.00    1.87105   1.84829   25.564
 5045.00    1.98151   1.96112   24.057
 5046.00    1.72768   2.02088   -1.000
 5047.00    0.60481   2.01849   -1.000
 5048.00    0.10101   1.96688   -1.000
 5049.00    0.19508   1.89434   -1.000
 5050.00    1.19281   1.83614   -1.000
 5051.00    1.76339   1.81299   15.919
 5052.00    1.85835   1.82264   27.043
 5053.00    1.89578   1.85818   23.687
 5054.00    1.94525   1.91045   23.428
 5055.00    1.97289   1.95958   22.848
 5056.00    1.99088   1.99153   22.389
 5057.00    1.98667   2.00892   22.125
 5058.00    1.97636   2.02131   22.019
 5059.00    1.99162   2.03786   22.031
 5060.00    2.00840   2.06029   22.073
 5061.00    2.01423   2.08085   22.077
 5062.00    2.00925   2.08304   21.964
 5063.00    1.96148   2.04875   21.931
 5064.00    1.90229   1.98026   22.152
 5065.00    1.86874   1.90831   22.707
 5066.00    1.85530   1.86592   23.482
 5067.00    1.87446   1.85889   23.910
 5068.00    1.88888   1.87187   23.765
 5069.00    1.90342   1.89141   23.418
 5070.00    1.92541   1.91103   23.266
 5071.00    1.92000   1.92089   23.169
 5072.00    1.90127   1.91443   23.027
 5073.00    1.90021   1.90262   23.120
 5074.00    1.91827   1.90285   23.309
 5075.00    1.93645   1.91537   23.149
 5076.00    1.93303   1.92688   22.934
 5077.00    1.92020   1.92339   22.864
 5078.00    1.87540   1.89094   22.844
 5079.00    1.80126   1.82683   23.001
 5080.00    1.76249   1.75892   23.645
 5081.00    1.76890   1.72919   24.697
 5082.00    1.80100   1.74631   25.236
 5083.00    1.83080   1.78652   24.917
 5084.00    1.86528   1.82931   24.377
 5085.00    1.91373   1.87013   23.997
 5086.00    1.94694   1.90801   23.581
 5087.00    1.94362   1.93767   23.164
 5088.00    1.94370   1.95649   22.935
 5089.00    1.96059   1.96888   22.869
 5090.00    1.97681   1.98064   22.779
 5091.00    1.99417   1.99693   22.627
 5092.00    2.02621   2.02107   22.490
 5093.00    2.03530   2.04752   22.372
 5094.00    2.03112   2.05871   22.153
 5095.00    1.99136   2.03788   21.937
 5096.00    1.94840   1.98595   22.026
 5097.00    1.89508   1.91772   22.418
 5098.00    1.85144   1.85227   22.902
 5099.00    1.83429   1.81357   23.441
 5100.00    1.86628   1.82282   23.956
 5101.00    1.92824   1.87425   24.152
 5102.00    1.96157   1.93395   23.739
 5103.00    1.96745   1.96580   23.071
 5104.00    1.95611   1.96234   22.735
 5105.00    1.93212   1.94009   22.780
 5106.00    1.88951   1.91248   23.038
 5107.00    1.86048   1.88388   23.335
 5108.00    1.86642   1.85762   23.624
 5109.00    1.86762   1.84100   23.918
 5110.00    1.88212   1.84371   23.978
 5111.00    1.91347   1.86929   23.853
 5112.00    1.94021   1.91057   23.685
 5113.00    1.96570   1.95114   23.392
 5114.00    1.99368   1.98121   23.089
 5115.00    2.01012   2.00578   22.808
 5116.00    2.02944   2.03159   22.582
 5117.00    2.04766   2.05656   22.438
 5118.00    2.04432   2.07142   22.236
 5119.00    2.02941   2.06728   22.034
 5120.00    2.00325   2.04190   22.027
 5121.00    1.96122   1.99923   22.255
 5122.00    1.92187   1.94442   22.581
 5123.00    1.88582   1.88512   22.945
 5124.00    1.85012   1.83534   23.474
 5125.00    1.84682   1.81076   24.156
 5126.00    1.86462   1.81348   24.491
 5127.00    1.86773   1.82724   24.377
 5128.00    1.86522   1.83680   24.224
 5129.00    1.85985   1.84393   24.089
 5130.00    1.87223   1.85915   24.071
 5131.00    1.91006   1.88621   24.068
 5132.00    1.93788   1.91711   23.838
 5133.00    1.95963   1.94295   23.455
 5134.00    1.98067   1.96368   23.201
 5135.00    1.99086   1.97953   22.993
 5136.00    1.99044   1.98012   22.785
 5137.00    1.94640   1.95136   22.684
 5138.00    1.90175   1.90165   22.956
 5139.00    1.88159   1.86341   23.480
 5140.00    1.88845   1.85388   23.916
 5141.00    1.89145   1.85958   24.050
 5142.00    1.88185   1.86170   23.902
 5143.00    1.86888   1.86061   23.958
 5144.00    1.88450   1.86818   24.292
 5145.00    1.90481   1.87794   24.314
 5146.00    1.89764   1.87095   23.975
 5147.00    1.89159   1.85218   23.791
 5148.00    1.90516   1.84464   23.928
 5149.00    1.91355   1.85564   24.042
 5150.00    1.91284   1.86883   23.849
 5151.00    1.89774   1.86712   23.661
 5152.00    1.87168   1.85326   23.828
 5153.00    1.85925   1.84158   24.229
 5154.00    1.88016   1.84492   24.477
 5155.00    1.91678   1.87121   24.434
 5156.00    1.97756   1.91905   24.064
 5157.00    2.03866   1.97362   23.492
 5158.00    2.06091   2.01629   22.892
 5159.00    2.06253   2.03879   22.418
 5160.00    2.06145   2.04239   22.178
 5161.00    2.04699   2.02882   22.130
 5162.00    2.02555   1.99675   22.183
 5163.00    1.99248   1.94437   22.295
 5164.00    1.93245   1.87363   22.510
 5165.00    1.81886   1.77874   22.832
 5166.00    1.65429   1.64649   23.544
 5167.00    1.51464   1.50327   25.164
 5168.00    1.47637   1.42211   27.644
 5169.00    1.54697   1.43767   -1.000
 5170.00    1.61386   1.49483   -1.000
 5171.00    1.58148   1.50143   28.580
 5172.00    1.46574   1.44083   27.792
 5173.00    1.42813   1.39758   28.910
 5174.00    1.57294   1.45362   -1.000
 5175.00    1.75529   1.60340   -1.000
 5176.00    1.88035   1.76096   -1.000
 5177.00    1.94108   1.85911   25.313
 5178.00    1.96388   1.89932   24.029
 5179.00    1.95277   1.90262   23.578
 5180.00    1.89607   1.86908   23.471
 5181.00    1.78594   1.77875   23.620
 5182.00    1.61685   1.62627   24.263
 5183.00    1.45324   1.46507   25.736
 5184.00    1.42638   1.38708   28.378
 5185.00    1.57689   1.44991   -1.000
 5186.00    1.77898   1.61304   -1.000
 5187.00    1.90566   1.77995   -1.000
 5188.00    1.96216   1.88766   25.142
 5189.00    1.97971   1.93319   23.937
 5190.00    1.97603   1.93291   23.579
 5191.00    1.92604   1.89206   23.456
 5192.00    1.86568   1.82782   23.600
 5193.00    1.85589   1.78387   24.198
 5194.00    1.89230   1.78671   -1.000
 5195.00    1.92206   1.81697   -1.000
 5196.00    1.95838   1.85269   -1.000
 5197.00    1.99666   1.89320   -1.000
 5198.00    2.01905   1.93988   23.884
 5199.00    2.04951   1.98477   23.444
 5200.00    2.07087   2.01466   23.020
 5201.00    2.06855   2.02051   22.768
 5202.00    2.04560   1.99991   22.698
 5203.00    1.99759   1.95223   22.818
 5204.00    1.94278   1.87763   23.163
 5205.00    1.88948   1.79132   23.663
 5206.00    1.85124   1.72062   -1.000
 5207.00    1.85070   1.68318   -1.000
 5208.00    1.84980   1.67750   -1.000
 5209.00    1.83881   1.69869   -1.000
 5210.00    1.88284   1.75198   -1.000
 5211.00    1.97570   1.83772   -1.000
 5212.00    2.06058   1.93351   -1.000
 5213.00    2.10891   2.00465   -1.000
 5214.00    2.10658   2.02459   22.879
 5215.00    2.07572   1.99663   22.271
 5216.00    2.03312   1.95541   22.295
 5217.00    2.02262   1.94300   22.747
 5218.00    2.06714   1.97534   23.116
 5219.00    2.11610   2.03273   23.072
 5220.00    2.13772   2.08472   22.661
 5221.00    2.14048   2.11175   22.264
 5222.00    2.13392   2.10514   22.042
 5223.00    2.09667   2.06081   21.931
 5224.00    2.01274   1.98030   22.094
 5225.00    1.91784   1.87543   22.649
 5226.00    1.85557   1.77663   23.512
 5227.00    1.86145   1.73151   -1.000
 5228.00    1.94063   1.77058   -1.000
 5229.00    2.04610   1.87416   -1.000
 5230.00    2.11773   1.98085   -1.000
 5231.00    2.13234   2.03096   22.996
 5232.00    2.10232   2.01473   22.422
 5233.00    2.06112   1.96915   22.277
 5234.00    2.03954   1.94326   22.574
 5235.00    2.07949   1.96479   -1.000
 5236.00    2.13596   2.02386   -1.000
 5237.00    2.17029   2.09056   22.723
 5238.00    2.19136   2.13767   22.177
 5239.00    2.18787   2.15589   21.835
 5240.00    2.19137   2.15405   21.746
 5241.00    2.20253   2.14495   21.791
 5242.00    2.19945   2.13872   21.790
 5243.00    2.20549   2.14250   21.688
 5244.00    2.21743   2.15285   21.666
 5245.00    2.19028   2.14978   21.651
 5246.00    2.12451   2.11454   21.611
 5247.00    2.06839   2.05585   21.886
 5248.00    2.05307   2.00378   22.502
 5249.00    2.06154   1.97628   23.094
 5250.00    2.06238   1.96891   23.310
 5251.00    2.06059   1.97606   23.347
 5252.00    2.07127   1.99652   23.461
 5253.00    2.08896   2.01800   23.441
 5254.00    2.09982   2.02700   23.181
 5255.00    2.11464   2.03247   22.915
 5256.00    2.15321   2.06161   22.843
 5257.00    2.20950   2.12339   22.741
 5258.00    2.26216   2.18686   22.328
 5259.00    2.26205   2.21342   21.743
 5260.00    2.20661   2.18635   21.415
 5261.00    2.12262   2.11001   21.491
 5262.00    2.02516   2.00155   21.956
 5263.00    1.93874   1.88569   22.784
 5264.00    1.87621   1.78645   23.837
 5265.00    1.84767   1.72295   -1.000
 5266.00    1.86391   1.70482   -1.000
 5267.00    1.89382   1.71799   -1.000
 5268.00    1.89247   1.72045   -1.000
 5269.00    1.83254   1.68649   -1.000
 5270.00    1.81177   1.65228   -1.000
 5271.00    1.89566   1.68176   -1.000
 5272.00    2.01399   1.78770   -1.000
 5273.00    2.07161   1.90059   -1.000
 5274.00    2.08135   1.95638   -1.000
 5275.00    2.09826   1.97413   -1.000
 5276.00    2.13067   2.00581   -1.000
 5277.00    2.19671   2.07180   -1.000
 5278.00    2.26418   2.14568   -1.000
 5279.00    2.27021   2.18329   22.023
 5280.00    2.22574   2.16683   21.486
 5281.00    2.16690   2.11196   21.439
 5282.00    2.12109   2.04766   21.832
 5283.00    2.09782   2.00372   22.397
 5284.00    2.11716   2.00852   -1.000
 5285.00    2.22622   2.07214   -1.000
 5286.00    2.31882   2.16821   -1.000
 5287.00    2.32132   2.24541   22.180
 5288.00    2.30773   2.27861   21.483
 5289.00    2.31439   2.28549   21.139
 5290.00    2.32780   2.29086   21.169
 5291.00    2.32994   2.29911   21.213
 5292.00    2.32486   2.29788   21.128
 5293.00    2.31794   2.28180   21.052
 5294.00    2.29748   2.25538   21.118
 5295.00    2.24782   2.21206   21.296
 5296.00    2.16844   2.13865   21.552
 5297.00    2.09468   2.04824   22.031
 5298.00    2.06214   1.98368   22.798
 5299.00    2.09441   1.98002   -1.000
 5300.00    2.15731   2.02499   -1.000
 5301.00    2.18994   2.07815   -1.000
 5302.00    2.21100   2.12261   22.677
 5303.00    2.25778   2.17159   22.437
 5304.00    2.31538   2.23364   22.216
 5305.00    2.34774   2.28876   21.728
 5306.00    2.34475   2.31047   21.253
 5307.00    2.32222   2.30310   21.082
 5308.00    2.30990   2.29441   21.203
 5309.00    2.33479   2.30380   21.403
 5310.00    2.35987   2.32511   21.379
 5311.00    2.37512   2.33676   21.176
 5312.00    2.36488   2.32915   21.007
 5313.00    2.34281   2.30876   20.974
 5314.00    2.34448   2.28353   21.061
 5315.00    2.33546   2.25713   21.165
 5316.00    2.31194   2.23206   21.295
 5317.00    2.30579   2.21585   21.488
 5318.00    2.30228   2.21618   21.688
 5319.00    2.30453   2.22754   21.762
 5320.00    2.30620   2.23651   21.657
 5321.00    2.30164   2.23381   21.535
 5322.00    2.27777   2.21299   21.554
 5323.00    2.23897   2.17096   21.684
 5324.00    2.20544   2.11823   21.903
 5325.00    2.18957   2.06703   -1.000
 5326.00    2.13432   2.00613   -1.000
 5327.00    2.02957   1.91765   -1.000
 5328.00    1.93755   1.82709   -1.000
 5329.00    1.94562   1.80174   -1.000
 5330.00    2.07316   1.87985   -1.000
 5331.00    2.20085   2.01164   -1.000
 5332.00    2.25014   2.11799   -1.000
 5333.00    2.27149   2.17562   22.531
 5334.00    2.30922   2.21069   22.131
 5335.00    2.33310   2.24600   21.925
 5336.00    2.32553   2.27305   21.686
 5337.00    2.30667   2.27326   21.532
 5338.00    2.28648   2.24077   21.588
 5339.00    2.24783   2.17971   21.735
 5340.00    2.18679   2.10958   21.936
 5341.00    2.16390   2.06983   22.375
 5342.00    2.21341   2.08853   -1.000
 5343.00    2.28501   2.14425   -1.000
 5344.00    2.31677   2.19047   -1.000
 5345.00    2.30548   2.20323   21.903
 5346.00    2.28948   2.19016   21.761
 5347.00    2.26683   2.16835   21.861
 5348.00    2.25402   2.14721   22.006
 5349.00    2.24929   2.13571   -1.000
 5350.00    2.26117   2.14947   -1.000
 5351.00    2.30240   2.19317   -1.000
 5352.00    2.34914   2.25004   22.202
 5353.00    2.37474   2.29932   21.738
 5354.00    2.38995   2.33590   21.374
 5355.00    2.40734   2.36807   21.238
 5356.00    2.42713   2.39597   21.114
 5357.00    2.44488   2.41055   20.880
 5358.00    2.44789   2.41065   20.678
 5359.00    2.44185   2.40063   20.634
 5360.00    2.42330   2.37981   20.666
 5361.00    2.38165   2.34758   20.725
 5362.00    2.34576   2.31053   20.905
 5363.00    2.32318   2.27621   21.221
 5364.00    2.30598   2.24663   21.553
 5365.00    2.29027   2.22176   21.766
 5366.00    2.28006   2.20398   21.898
 5367.00    2.28038   2.19468   22.027
 5368.00    2.26848   2.17913   22.037
 5369.00    2.23047   2.13339   22.003
 5370.00    2.16707   2.06089   22.142
 5371.00    2.13484   2.00225   -1.000
 5372.00    2.18256   2.00621   -1.000
 5373.00    2.27951   2.08377   -1.000
 5374.00    2.36658   2.19304   -1.000
 5375.00    2.40533   2.27886   -1.000
 5376.00    2.40904   2.31554   21.283
 5377.00    2.40597   2.31771   21.000
 5378.00    2.40664   2.31351   20.989
 5379.00    2.40250   2.31364   21.025
 5380.00    2.37477   2.30983   21.051
 5381.00    2.35237   2.29268   21.143
 5382.00    2.35807   2.26767   21.322
 5383.00    2.35455   2.25039   21.535
 5384.00    2.35018   2.25187   21.682
 5385.00    2.36886   2.27076   21.711
 5386.00    2.39270   2.29358   21.639
 5387.00    2.39089   2.30164   21.454
 5388.00    2.35772   2.28373   21.333
 5389.00    2.31844   2.24481   21.382
 5390.00    2.29234   2.19997   21.551
 5391.00    2.27274   2.16481   -1.000
 5392.00    2.26726   2.14722   -1.000
 5393.00    2.27400   2.14414   -1.000
 5394.00    2.26465   2.14363   -1.000
 5395.00    2.24296   2.12966   -1.000
 5396.00    2.20912   2.09561   -1.000
 5397.00    2.18508   2.05981   -1.000
 5398.00    2.21323   2.05594   -1.000
 5399.00    2.27237   2.09629   -1.000
 5400.00    2.30936   2.15603   -1.000
 5401.00    2.31733   2.19987   -1.000
 5402.00    2.30712   2.20846   21.886
 5403.00    2.26944   2.17428   21.876
 5404.00    2.19496   2.09878   22.002
 5405.00    2.12670   2.00967   -1.000
 5406.00    2.12125   1.96177   -1.000
 5407.00    2.16596   1.98145   -1.000
 5408.00    2.20544   2.03216   -1.000
 5409.00    2.21333   2.06596   -1.000
 5410.00    2.21449   2.07749   -1.000
 5411.00    2.25224   2.10234   -1.000
 5412.00    2.32093   2.15939   -1.000
 5413.00    2.36752   2.22010   -1.000
 5414.00    2.36342   2.25636   -1.000
 5415.00    2.34944   2.27431   21.689
 5416.00    2.36729   2.29548   21.615
 5417.00    2.39111   2.32395   21.635
 5418.00    2.38931   2.33962   21.541
 5419.00    2.36894   2.32967   21.388
 5420.00    2.34758   2.30577   21.386
 5421.00    2.34561   2.28617   21.558
 5422.00    2.35164   2.27500   21.726
 5423.00    2.33530   2.26205   21.722
 5424.00    2.31682   2.24774   21.627
 5425.00    2.32286   2.25425   21.771
 5426.00    2.35774   2.29034   22.030
 5427.00    2.38899   2.32367   21.966
 5428.00    2.35570   2.30630   21.633
 5429.00    2.27760   2.23360   21.519
 5430.00    2.24230   2.16213   21.915
 5431.00    2.26510   2.14055   -1.000
 5432.00    2.28123   2.15607   -1.000
 5433.00    2.26207   2.16156   22.668
 5434.00    2.23938   2.13734   22.478
 5435.00    2.23931   2.11439   -1.000
 5436.00    2.26347   2.12978   -1.000
 5437.00    2.31563   2.18981   -1.000
 5438.00    2.38403   2.27376   -1.000
 5439.00    2.44361   2.35200   22.146
 5440.00    2.47326   2.40448   21.616
 5441.00    2.48541   2.42913   21.259
 5442.00    2.48297   2.43487   21.039
 5443.00    2.45501   2.42275   20.950
 5444.00    2.40146   2.38010   20.940
 5445.00    2.31687   2.29846   21.070
 5446.00    2.23381   2.19805   21.500
 5447.00    2.20752   2.13029   22.271
 5448.00    2.25731   2.13466   -1.000
 5449.00    2.33421   2.20195   -1.000
 5450.00    2.39101   2.28037   -1.000
 5451.00    2.41227   2.32127   22.059
 5452.00    2.39507   2.31713   21.686
 5453.00    2.35874   2.27835   21.618
 5454.00    2.28774   2.21230   21.734
 5455.00    2.22081   2.14254   22.113
 5456.00    2.23547   2.11275   -1.000
 5457.00    2.30391   2.15304   -1.000
 5458.00    2.37180   2.24222   -1.000
 5459.00    2.41115   2.31679   22.637
 5460.00    2.40108   2.33411   21.933
 5461.00    2.36030   2.30047   21.618
 5462.00    2.31487   2.24725   21.732
 5463.00    2.29634   2.20877   22.093
 5464.00    2.32466   2.20527   -1.000
 5465.00    2.36014   2.23215   -1.000
 5466.00    2.37567   2.26772   -1.000
 5467.00    2.38205   2.29502   22.236
 5468.00    2.39262   2.30892   22.068
 5469.00    2.39647   2.30884   21.888
 5470.00    2.38563   2.29631   21.725
 5471.00    2.37329   2.27713   21.811
 5472.00    2.36702   2.25854   -1.000
 5473.00    2.35355   2.24112   -1.000
 5474.00    2.31937   2.21472   -1.000
 5475.00    2.27372   2.17023   -1.000
 5476.00    2.23344   2.11785   -1.000
 5477.00    2.22262   2.09023   -1.000
 5478.00    2.26551   2.11520   -1.000
 5479.00    2.32655   2.17191   -1.000
 5480.00    2.33471   2.20744   -1.000
 5481.00    2.29664   2.20078   22.512
 5482.00    2.28888   2.18309   -1.000
 5483.00    2.32855   2.20020   -1.000
 5484.00    2.37610   2.25588   -1.000
 5485.00    2.41365   2.30985   -1.000
 5486.00    2.41285   2.32563   22.087
 5487.00    2.36975   2.30080   21.781
 5488.00    2.33107   2.26488   21.830
 5489.00    2.32731   2.24976   22.119
 5490.00    2.35183   2.26352   22.334
 5491.00    2.37404   2.28793   22.383
 5492.00    2.39113   2.30173   22.290
 5493.00    2.40098   2.30190   22.122
 5494.00    2.40071   2.29756   -1.000
 5495.00    2.40503   2.29561   -1.000
 5496.00    2.39735   2.29230   -1.000
 5497.00    2.38350   2.28568   22.034
 5498.00    2.39572   2.28749   -1.000
 5499.00    2.42504   2.30225   -1.000
 5500.00    2.43127   2.31136   -1.000
 5501.00    2.40471   2.29560   -1.000
 5502.00    2.37554   2.26190   -1.000
 5503.00    2.37640   2.23786   -1.000
 5504.00    2.39139   2.23369   -1.000
 5505.00    2.37445   2.23019   -1.000
 5506.00    2.34201   2.21716   -1.000
 5507.00    2.34294   2.21107   -1.000
 5508.00    2.37303   2.22969   -1.000
 5509.00    2.39226   2.26343   -1.000
 5510.00    2.38450   2.27836   -1.000
 5511.00    2.35233   2.25536   22.200
 5512.00    2.30703   2.21020   22.253
 5513.00    2.28248   2.17308   -1.000
 5514.00    2.29769   2.16435   -1.000
 5515.00    2.34144   2.18342   -1.000
 5516.00    2.38817   2.21883   -1.000
 5517.00    2.42478   2.26292   -1.000
 5518.00    2.45418   2.31149   -1.000
 5519.00    2.47962   2.35602   -1.000
 5520.00    2.49153   2.38282   -1.000
 5521.00    2.49173   2.38737   -1.000
 5522.00    2.48456   2.38190   21.499
 5523.00    2.47678   2.37802   21.540
 5524.00    2.46323   2.37257   21.601
 5525.00    2.42567   2.35207   21.657
 5526.00    2.37810   2.30603   21.743
 5527.00    2.32759   2.24138   21.969
 5528.00    2.29186   2.18676   -1.000
 5529.00    2.31151   2.17875   -1.000
 5530.00    2.37615   2.22426   -1.000
 5531.00    2.42052   2.28842   -1.000
 5532.00    2.44235   2.33009   -1.000
 5533.00    2.44176   2.33620   -1.000
 5534.00    2.42336   2.32247   21.940
 5535.00    2.41457   2.30755   -1.000
 5536.00    2.40852   2.30096   -1.000
 5537.00    2.42108   2.30631   -1.000
 5538.00    2.44613   2.32232   -1.000
 5539.00    2.46888   2.34519   -1.000
 5540.00    2.48393   2.37127   -1.000
 5541.00    2.48818   2.39141   21.758
 5542.00    2.48131   2.39334   21.561
 5543.00    2.46153   2.37685   21.491
 5544.00    2.45020   2.35679   21.625
 5545.00    2.45336   2.34695   -1.000
 5546.00    2.46109   2.35013   -1.000
 5547.00    2.48304   2.36551   -1.000
 5548.00    2.51549   2.39273   -1.000
 5549.00    2.53758   2.42429   -1.000
 5550.00    2.54060   2.44624   21.630
 5551.00    2.53717   2.45020   21.430
 5552.00    2.53088   2.43594   21.322
 5553.00    2.49924   2.40908   21.367
 5554.00    2.46421   2.38224   21.529
 5555.00    2.47176   2.36837   -1.000
 5556.00    2.49434   2.36907   -1.000
 5557.00    2.50105   2.37488   -1.000
 5558.00    2.49239   2.37763   -1.000
 5559.00    2.48040   2.37845   -1.000
 5560.00    2.48149   2.37837   -1.000
 5561.00    2.47842   2.37047   -1.000
 5562.00    2.46670   2.35208   -1.000
 5563.00    2.45578   2.33281   -1.000
 5564.00    2.43357   2.32160   -1.000
 5565.00    2.41702   2.31594   -1.000
 5566.00    2.42058   2.30881   -1.000
 5567.00    2.42863   2.29963   -1.000
 5568.00    2.43331   2.29441   -1.000
 5569.00    2.42904   2.29698   -1.000
 5570.00    2.43318   2.30489   -1.000
 5571.00    2.43528   2.31134   -1.000
 5572.00    2.41657   2.31031   -1.000
 5573.00    2.40520   2.30434   -1.000
 5574.00    2.42376   2.30735   -1.000
 5575.00    2.41682   2.32915   22.421
 5576.00    2.27051   2.35592   22.239
 5577.00    1.88504   2.36950   -1.000
 5578.00    1.37910   2.37586   -1.000
 5579.00    1.46229   2.38543   -1.000
 5580.00    2.44971   2.39368   21.434
 5581.00    3.28875   2.39346   -1.000
 5582.00    3.19336   2.38442   -1.000
 5583.00    2.73721   2.37132   -1.000
 5584.00    2.52611   2.35268   -1.000
 5585.00    2.45369   2.31395   -1.000
 5586.00    2.37825   2.24801   -1.000
 5587.00    2.30583   2.17251   -1.000
 5588.00    2.27643   2.12061   -1.000
 5589.00    2.29013   2.11447   -1.000
 5590.00    2.32577   2.14692   -1.000
 5591.00    2.37275   2.19314   -1.000
 5592.00    2.39844   2.22991   -1.000
 5593.00    2.39539   2.25030   -1.000
 5594.00    2.39079   2.26766   -1.000
 5595.00    2.41258   2.29728   -1.000
 5596.00    2.45476   2.33376   -1.000
 5597.00    2.45493   2.35092   -1.000
 5598.00    2.41628   2.33182   22.377
 5599.00    2.38813   2.28752   -1.000
 5600.00    2.36659   2.24262   -1.000
 5601.00    2.34821   2.21169   -1.000
 5602.00    2.33974   2.19908   -1.000
 5603.00    2.35755   2.21690   -1.000
 5604.00    2.41960   2.27475   -1.000
 5605.00    2.49789   2.35524   -1.000
 5606.00    2.54853   2.42515   -1.000
 5607.00    2.56696   2.46518   -1.000
 5608.00    2.56275   2.47709   21.697
 5609.00    2.55927   2.47506   21.560
 5610.00    2.57155   2.47441   21.566
 5611.00    2.57429   2.48126   21.608
 5612.00    2.56933   2.48349   21.619
 5613.00    2.52867   2.45406   21.570
 5614.00    2.43339   2.37710   21.586
 5615.00    2.36488   2.27775   21.873
 5616.00    2.36184   2.21239   -1.000
 5617.00    2.40548   2.21575   -1.000
 5618.00    2.45598   2.26722   -1.000
 5619.00    2.47899   2.31697   -1.000
 5620.00    2.49393   2.34453   -1.000
 5621.00    2.50450   2.36411   -1.000
 5622.00    2.50233   2.37312   -1.000
 5623.00    2.47125   2.35168   -1.000
 5624.00    2.42366   2.30244   -1.000
 5625.00    2.41512   2.25938   -1.000
 5626.00    2.44586   2.25755   -1.000
 5627.00    2.48347   2.29784   -1.000
 5628.00    2.51390   2.35223   -1.000
 5629.00    2.54468   2.40068   -1.000
 5630.00    2.56896   2.43605   -1.000
 5631.00    2.57595   2.45336   -1.000
 5632.00    2.56295   2.45118   -1.000
 5633.00    2.54133   2.43441   -1.000
 5634.00    2.52554   2.40956   -1.000
 5635.00    2.51620   2.38090   -1.000
 5636.00    2.49623   2.35307   -1.000
 5637.00    2.47500   2.33331   -1.000
 5638.00    2.46683   2.32691   -1.000
 5639.00    2.46676   2.33066   -1.000
 5640.00    2.47366   2.33306   -1.000
 5641.00    2.46678   2.32601   -1.000
 5642.00    2.45422   2.31690   -1.000
 5643.00    2.46738   2.32036   -1.000
 5644.00    2.49266   2.33681   -1.000
 5645.00    2.50233   2.35543   -1.000
 5646.00    2.50035   2.37088   -1.000
 5647.00    2.50538   2.38089   -1.000
 5648.00    2.51869   2.38230   -1.000
 5649.00    2.51969   2.37709   -1.000
 5650.00    2.52032   2.37491   -1.000
 5651.00    2.53991   2.38486   -1.000
 5652.00    2.55346   2.40156   -1.000
 5653.00    2.54997   2.40587   -1.000
 5654.00    2.52849   2.38997   -1.000
 5655.00    2.50137   2.36583   -1.000
 5656.00    2.46569   2.33969   -1.000
 5657.00    2.41336   2.30286   -1.000
 5658.00    2.36758   2.25458   -1.000
 5659.00    2.36377   2.22001   -1.000
 5660.00    2.40756   2.22694   -1.000
 5661.00    2.43681   2.26196   -1.000
 5662.00    2.44559   2.28866   -1.000
 5663.00    2.45907   2.30589   -1.000
 5664.00    2.48580   2.33306   -1.000
 5665.00    2.52001   2.36496   -1.000
 5666.00    2.50912   2.38075   -1.000
 5667.00    2.48027   2.37377   -1.000
 5668.00    2.47139   2.35854   -1.000
 5669.00    2.48208   2.35390   -1.000
 5670.00    2.49471   2.36440   -1.000
 5671.00    2.51483   2.38673   -1.000
 5672.00    2.54938   2.41911   -1.000
 5673.00    2.57650   2.45324   -1.000
 5674.00    2.56853   2.47537   21.968
 5675.00    2.56696   2.48121   21.750
 5676.00    2.58074   2.47909   -1.000
 5677.00    2.58756   2.47785   -1.000
 5678.00    2.58769   2.47568   -1.000
 5679.00    2.57901   2.46422   -1.000
 5680.00    2.56886   2.44241   -1.000
 5681.00    2.54634   2.41356   -1.000
 5682.00    2.50730   2.38018   -1.000
 5683.00    2.48367   2.35422   -1.000
 5684.00    2.49211   2.35075   -1.000
 5685.00    2.50456   2.36274   -1.000
 5686.00    2.48779   2.36690   -1.000
 5687.00    2.46662   2.35657   -1.000
 5688.00    2.46648   2.34745   -1.000
 5689.00    2.48144   2.35715   -1.000
 5690.00    2.51506   2.38827   -1.000
 5691.00    2.54954   2.42827   -1.000
 5692.00    2.57781   2.46210   -1.000
 5693.00    2.60143   2.48079   -1.000
 5694.00    2.59809   2.48395   -1.000
 5695.00    2.58755   2.47785   -1.000
 5696.00    2.58752   2.46790   -1.000
 5697.00    2.57299   2.45243   -1.000
 5698.00    2.54535   2.42836   -1.000
 5699.00    2.51587   2.39883   -1.000
 5700.00    2.47634   2.36958   -1.000
 5701.00    2.45054   2.34541   -1.000
 5702.00    2.46032   2.33578   -1.000
 5703.00    2.48509   2.34762   -1.000
 5704.00    2.50850   2.36810   -1.000
 5705.00    2.49105   2.37287   -1.000
 5706.00    2.44204   2.34964   22.359
 5707.00    2.39196   2.30679   22.416
 5708.00    2.35641   2.26457   22.659
 5709.00    2.35077   2.23576   -1.000
 5710.00    2.35202   2.22473   -1.000
 5711.00    2.37223   2.23590   -1.000
 5712.00    2.41480   2.27084   -1.000
 5713.00    2.48179   2.32509   -1.000
 5714.00    2.54609   2.38438   -1.000
 5715.00    2.57238   2.42994   -1.000
 5716.00    2.57671   2.45683   -1.000
 5717.00    2.58505   2.47260   -1.000
 5718.00    2.59537   2.48451   -1.000
 5719.00    2.60782   2.49847   -1.000
 5720.00    2.62176   2.51733   -1.000
 5721.00    2.63156   2.53836   21.671
 5722.00    2.64998   2.55689   21.546
 5723.00    2.67407   2.56941   -1.000
 5724.00    2.67779   2.57051   -1.000
 5725.00    2.65133   2.55461   -1.000
 5726.00    2.60961   2.52427   21.414
 5727.00    2.58159   2.49567   21.532
 5728.00    2.59188   2.48775   -1.000
 5729.00    2.61095   2.49917   -1.000
 5730.00    2.60492   2.50692   -1.000
 5731.00    2.58863   2.49854   21.838
 5732.00    2.59261   2.48904   -1.000
 5733.00    2.61966   2.49921   -1.000
 5734.00    2.64300   2.52725   -1.000
 5735.00    2.65153   2.54956   -1.000
 5736.00    2.64639   2.55114   -1.000
 5737.00    2.64103   2.53917   -1.000
 5738.00    2.64360   2.52833   -1.000
 5739.00    2.63253   2.52632   -1.000
 5740.00    2.61877   2.52861   21.640
 5741.00    2.62698   2.52733   -1.000
 5742.00    2.62987   2.52247   -1.000
 5743.00    2.63385   2.52257   -1.000
 5744.00    2.65610   2.53539   -1.000
 5745.00    2.66366   2.55398   -1.000
 5746.00    2.65460   2.55922   -1.000
 5747.00    2.63521   2.54130   21.473
 5748.00    2.61796   2.51656   -1.000
 5749.00    2.61671   2.51100   -1.000
 5750.00    2.62466   2.52434   -1.000
 5751.00    2.62573   2.52797   -1.000
 5752.00    2.59084   2.49927   21.669
 5753.00    2.54100   2.45055   21.716
 5754.00    2.53079   2.42142   -1.000
 5755.00    2.57764   2.43883   -1.000
 5756.00    2.63536   2.49347   -1.000
 5757.00    2.67751   2.54944   -1.000
 5758.00    2.68782   2.57491   -1.000
 5759.00    2.65869   2.56255   -1.000
 5760.00    2.61031   2.52025   21.360
 5761.00    2.57527   2.46694   -1.000
 5762.00    2.55228   2.42871   -1.000
 5763.00    2.57041   2.42906   -1.000
 5764.00    2.61656   2.47270   -1.000
 5765.00    2.64595   2.53628   -1.000
 5766.00    2.66919   2.58571   21.912
 5767.00    2.67483   2.60806   21.566
 5768.00    2.68518   2.61113   21.400
 5769.00    2.69592   2.60364   21.368
 5770.00    2.67454   2.59119   21.342
 5771.00    2.64925   2.57695   21.339
 5772.00    2.64887   2.56156   21.402
 5773.00    2.63501   2.54646   21.495
 5774.00    2.61861   2.53650   21.625
 5775.00    2.61955   2.53660   21.725
 5776.00    2.62424   2.54712   21.760
 5777.00    2.62779   2.55879   21.754
 5778.00    2.60505   2.55301   21.675
 5779.00    2.56376   2.51635   21.599
 5780.00    2.49164   2.45286   21.625
 5781.00    2.39579   2.38439   21.806
 5782.00    2.34259   2.33859   22.221
 5783.00    2.33867   2.32547   22.645
 5784.00    2.38807   2.32987   22.776
 5785.00    2.45168   2.33810   -1.000
 5786.00    2.50106   2.36063   -1.000
 5787.00    2.55829   2.40583   -1.000
 5788.00    2.60367   2.45755   -1.000
 5789.00    2.61795   2.49207   -1.000
 5790.00    2.60433   2.50077   -1.000
 5791.00    2.59126   2.49600   -1.000
 5792.00    2.60411   2.50042   -1.000
 5793.00    2.64055   2.52613   -1.000
 5794.00    2.67067   2.56359   -1.000
 5795.00    2.66255   2.58951   21.597
 5796.00    2.63877   2.58808   21.461
 5797.00    2.61061   2.56501   21.381
 5798.00    2.59434   2.54681   21.436
 5799.00    2.60820   2.55925   21.579
 5800.00    2.63816   2.60092   21.614
 5801.00    2.68077   2.64360   21.419
 5802.00    2.70346   2.65895   21.125
 5803.00    2.68821   2.64185   20.935
 5804.00    2.66735   2.60606   21.000
 5805.00    2.66287   2.57282   21.187
 5806.00    2.65404   2.55849   -1.000
 5807.00    2.65642   2.56330   -1.000
 5808.00    2.66813   2.57716   21.523
 5809.00    2.69395   2.59230   -1.000
 5810.00    2.70644   2.60700   -1.000
 5811.00    2.70390   2.61868   21.339
 5812.00    2.69712   2.62176   21.334
 5813.00    2.71168   2.61164   -1.000
 5814.00    2.70544   2.58795   -1.000
 5815.00    2.68808   2.55719   -1.000
 5816.00    2.67973   2.53673   -1.000
 5817.00    2.68802   2.54475   -1.000
 5818.00    2.71669   2.58167   -1.000
 5819.00    2.75116   2.62585   -1.000
 5820.00    2.76244   2.65345   -1.000
 5821.00    2.75957   2.65656   -1.000
 5822.00    2.75636   2.64543   -1.000
 5823.00    2.75805   2.63445   -1.000
 5824.00    2.76322   2.63192   -1.000
 5825.00    2.76651   2.63654   -1.000
 5826.00    2.76288   2.64255   -1.000
 5827.00    2.76158   2.64730   -1.000
 5828.00    2.77401   2.65186   -1.000
 5829.00    2.77868   2.65779   -1.000
 5830.00    2.76596   2.66254   -1.000
 5831.00    2.74834   2.66198   20.964
 5832.00    2.73858   2.65537   20.934
 5833.00    2.74758   2.64369   -1.000
 5834.00    2.75107   2.62955   -1.000
 5835.00    2.74070   2.61912   -1.000
 5836.00    2.75050   2.61686   -1.000
 5837.00    2.75923   2.61927   -1.000
 5838.00    2.75330   2.62146   -1.000
 5839.00    2.76405   2.62781   -1.000
 5840.00    2.78405   2.64445   -1.000
 5841.00    2.79185   2.66694   -1.000
 5842.00    2.79252   2.68328   -1.000
 5843.00    2.78255   2.68428   -1.000
 5844.00    2.75957   2.66988   20.797
 5845.00    2.74373   2.64516   -1.000
 5846.00    2.72714   2.61661   -1.000
 5847.00    2.72043   2.59250   -1.000
 5848.00    2.72241   2.58058   -1.000
 5849.00    2.70530   2.58096   -1.000
 5850.00    2.70049   2.58247   -1.000
 5851.00    2.69709   2.57144   -1.000
 5852.00    2.67249   2.54672   -1.000
 5853.00    2.65113   2.52159   -1.000
 5854.00    2.65111   2.50814   -1.000
 5855.00    2.64907   2.50069   -1.000
 5856.00    2.63153   2.48068   -1.000
 5857.00    2.60279   2.44506   -1.000
 5858.00    2.59524   2.41848   -1.000
 5859.00    2.62758   2.42723   -1.000
 5860.00    2.66805   2.46773   -1.000
 5861.00    2.69456   2.51050   -1.000
 5862.00    2.69831   2.53417   -1.000
 5863.00    2.68029   2.54204   -1.000
 5864.00    2.67913   2.54438   -1.000
 5865.00    2.68901   2.54298   -1.000
 5866.00    2.68713   2.53391   -1.000
 5867.00    2.68578   2.52606   -1.000
 5868.00    2.70143   2.53661   -1.000
 5869.00    2.72937   2.56539   -1.000
 5870.00    2.75443   2.59357   -1.000
 5871.00    2.74971   2.60637   -1.000
 5872.00    2.73455   2.60294   -1.000
 5873.00    2.73938   2.59305   -1.000
 5874.00    2.73632   2.58737   -1.000
 5875.00    2.73403   2.58689   -1.000
 5876.00    2.72895   2.58300   -1.000
 5877.00    2.72257   2.56798   -1.000
 5878.00    2.71938   2.54332   -1.000
 5879.00    2.70049   2.51691   -1.000
 5880.00    2.68490   2.49801   -1.000
 5881.00    2.69087   2.49328   -1.000
 5882.00    2.69109   2.49899   -1.000
 5883.00    2.67214   2.50235   -1.000
 5884.00    2.66455   2.49729   -1.000
 5885.00    2.65051   2.48718   -1.000
 5886.00    2.61393   2.45959   -1.000
 5887.00    2.52257   2.37864   -1.000
 5888.00    2.32235   2.21863   -1.000
 5889.00    2.00969   2.00877   22.554
 5890.00    1.69414   1.83910   23.660
 5891.00    1.53723   1.80018   -1.000
 5892.00    1.61511   1.89145   -1.000
 5893.00    1.87628   2.01275   26.368
 5894.00    2.09361   2.05970   25.428
 5895.00    2.07182   2.02031   24.576
 5896.00    1.91051   1.97130   24.437
 5897.00    1.81580   2.00240   -1.000
 5898.00    1.91959   2.12019   -1.000
 5899.00    2.19210   2.25703   24.979
 5900.00    2.44437   2.36452   -1.000
 5901.00    2.57757   2.43528   -1.000
 5902.00    2.62281   2.47779   -1.000
 5903.00    2.62915   2.49943   -1.000
 5904.00    2.63542   2.50694   -1.000
 5905.00    2.65026   2.50645   -1.000
 5906.00    2.66083   2.50566   -1.000
 5907.00    2.67103   2.51209   -1.000
 5908.00    2.69494   2.52569   -1.000
 5909.00    2.71506   2.54049   -1.000
 5910.00    2.70896   2.55294   -1.000
 5911.00    2.68004   2.55902   -1.000
 5912.00    2.66556   2.55031   -1.000
 5913.00    2.64087   2.52105   -1.000
 5914.00    2.61506   2.48020   -1.000
 5915.00    2.60445   2.45084   -1.000
 5916.00    2.61179   2.44966   -1.000
 5917.00    2.63103   2.47247   -1.000
 5918.00    2.65758   2.50501   -1.000
 5919.00    2.67234   2.53451   -1.000
 5920.00    2.67449   2.55153   -1.000
 5921.00    2.66579   2.55411   -1.000
 5922.00    2.66351   2.54768   -1.000
 5923.00    2.65956   2.54359   -1.000
 5924.00    2.67151   2.55102   -1.000
 5925.00    2.68282   2.56780   -1.000
 5926.00    2.68050   2.58104   -1.000
 5927.00    2.67907   2.57782   -1.000
 5928.00    2.67326   2.55554   -1.000
 5929.00    2.66241   2.52650   -1.000
 5930.00    2.66573   2.51128   -1.000
 5931.00    2.69001   2.52000   -1.000
 5932.00    2.71981   2.54067   -1.000
 5933.00    2.71818   2.55029   -1.000
 5934.00    2.70065   2.54255   -1.000
 5935.00    2.68241   2.53489   -1.000
 5936.00    2.70076   2.54610   -1.000
 5937.00    2.73009   2.57158   -1.000
 5938.00    2.74485   2.59022   -1.000
 5939.00    2.73769   2.59068   -1.000
 5940.00    2.72341   2.57416   -1.000
 5941.00    2.70117   2.54897   -1.000
 5942.00    2.68780   2.53143   -1.000
 5943.00    2.68381   2.53459   -1.000
 5944.00    2.68847   2.55552   -1.000
 5945.00    2.69480   2.57837   -1.000
 5946.00    2.69811   2.58772   -1.000
 5947.00    2.68416   2.57621   -1.000
 5948.00    2.66276   2.55146   -1.000
 5949.00    2.65228   2.53369   -1.000
 5950.00    2.65610   2.53499   -1.000
 5951.00    2.66369   2.54416   -1.000
 5952.00    2.66044   2.54417   -1.000
 5953.00    2.65690   2.53655   -1.000
 5954.00    2.67265   2.53466   -1.000
 5955.00    2.69611   2.54051   -1.000
 5956.00    2.70723   2.54027   -1.000
 5957.00    2.69486   2.53088   -1.000
 5958.00    2.69295   2.52959   -1.000
 5959.00    2.71968   2.54819   -1.000
 5960.00    2.73300   2.57960   -1.000
 5961.00    2.73508   2.60877   -1.000
 5962.00    2.74683   2.62442   -1.000
 5963.00    2.75043   2.62445   -1.000
 5964.00    2.75240   2.61300   -1.000
 5965.00    2.74721   2.59718   -1.000
 5966.00    2.73510   2.58804   -1.000
 5967.00    2.74062   2.59343   -1.000
 5968.00    2.75104   2.60972   -1.000
 5969.00    2.75778   2.62745   -1.000
 5970.00    2.74939   2.64238   -1.000
 5971.00    2.75837   2.65303   -1.000
 5972.00    2.76890   2.65654   -1.000
 5973.00    2.75580   2.65002   -1.000
 5974.00    2.73035   2.63088   -1.000
 5975.00    2.71538   2.59918   -1.000
 5976.00    2.69359   2.56396   -1.000
 5977.00    2.68146   2.54012   -1.000
 5978.00    2.68343   2.53769   -1.000
 5979.00    2.69356   2.55554   -1.000
 5980.00    2.70611   2.58232   -1.000
 5981.00    2.72530   2.59780   -1.000
 5982.00    2.71797   2.58557   -1.000
 5983.00    2.69633   2.54797   -1.000
 5984.00    2.67314   2.50984   -1.000
 5985.00    2.66253   2.49901   -1.000
 5986.00    2.69708   2.52011   -1.000
 5987.00    2.72497   2.55263   -1.000
 5988.00    2.73681   2.57884   -1.000
 5989.00    2.74881   2.59623   -1.000
 5990.00    2.75363   2.60505   -1.000
 5991.00    2.75167   2.60805   -1.000
 5992.00    2.75557   2.61489   -1.000
 5993.00    2.77178   2.63239   -1.000
 5994.00    2.77981   2.65201   -1.000
 5995.00    2.76379   2.65478   -1.000
 5996.00    2.74733   2.63252   -1.000
 5997.00    2.72834   2.59824   -1.000
 5998.00    2.72387   2.57474   -1.000
 5999.00    2.72272   2.57399   -1.000
 6000.00    2.72988   2.58810   -1.000
 6001.00    2.74773   2.59860   -1.000
 6002.00    2.74358   2.59669   -1.000
 6003.00    2.72030   2.58967   -1.000
 6004.00    2.72158   2.58837   -1.000
 6005.00    2.71644   2.58742   -1.000
 6006.00    2.70872   2.57052   -1.000
 6007.00    2.68325   2.53895   -1.000
 6008.00    2.66991   2.51794   -1.000
 6009.00    2.69597   2.53043   -1.000
 6010.00    2.71791   2.56745   -1.000
 6011.00    2.71951   2.59373   -1.000
 6012.00    2.70462   2.58939   -1.000
 6013.00    2.70006   2.56833   -1.000
 6014.00    2.69530   2.55453   -1.000
 6015.00    2.69974   2.55448   -1.000
 6016.00    2.71184   2.55677   -1.000
 6017.00    2.71448   2.55591   -1.000
 6018.00    2.71210   2.55443   -1.000
 6019.00    2.70536   2.54817   -1.000
 6020.00    2.69112   2.53540   -1.000
 6021.00    2.68926   2.52758   -1.000
 6022.00    2.69615   2.53437   -1.000
 6023.00    2.70435   2.55296   -1.000
 6024.00    2.71924   2.57680   -1.000
 6025.00    2.73706   2.60066   -1.000
 6026.00    2.75431   2.62130   -1.000
 6027.00    2.76692   2.63830   -1.000
 6028.00    2.76768   2.65473   -1.000
 6029.00    2.78083   2.67136   -1.000
 6030.00    2.80734   2.68457   -1.000
 6031.00    2.81132   2.69356   -1.000
 6032.00    2.80888   2.70296   -1.000
 6033.00    2.81307   2.71834   -1.000
 6034.00    2.81284   2.74017   21.915
 6035.00    2.81483   2.75904   21.846
 6036.00    2.82874   2.76315   21.756
 6037.00    2.83005   2.75157   21.721
 6038.00    2.81083   2.73200   21.707
 6039.00    2.78925   2.71169   21.681
 6040.00    2.78278   2.69758   -1.000
 6041.00    2.78888   2.69537   -1.000
 6042.00    2.79907   2.70640   -1.000
 6043.00    2.80945   2.72463   -1.000
 6044.00    2.84502   2.74018   -1.000
 6045.00    2.85514   2.74797   -1.000
 6046.00    2.83716   2.75106   -1.000
 6047.00    2.84159   2.75392   -1.000
 6048.00    2.84735   2.75642   -1.000
 6049.00    2.83613   2.75845   21.585
 6050.00    2.84060   2.75869   -1.000
 6051.00    2.84415   2.75301   -1.000
 6052.00    2.83559   2.73761   -1.000
 6053.00    2.81672   2.71451   -1.000
 6054.00    2.80794   2.68975   -1.000
 6055.00    2.81736   2.66836   -1.000
 6056.00    2.80303   2.65575   -1.000
 6057.00    2.80448   2.65791   -1.000
 6058.00    2.82344   2.67435   -1.000
 6059.00    2.83353   2.69535   -1.000
 6060.00    2.82636   2.70886   -1.000
 6061.00    2.82223   2.70679   -1.000
 6062.00    2.81220   2.68798   -1.000
 6063.00    2.82370   2.65717   -1.000
 6064.00    2.75618   2.62530   -1.000
 6065.00    2.42307   2.61018   22.398
 6066.00    1.73352   2.62699   -1.000
 6067.00    1.93147   2.67165   -1.000
 6068.00    2.70960   2.72007   17.275
 6069.00    2.88405   2.75203    7.953
 6070.00    2.83666   2.76748   -1.000
 6071.00    2.23521   2.77597   -1.000
 6072.00    0.99016   2.78101   -1.000
 6073.00    2.42480   2.78092   -1.000
 6074.00    2.96238   2.77461   -1.000
 6075.00    2.85791   2.76111   -1.000
 6076.00    2.85757   2.73940   -1.000
 6077.00    2.83621   2.71145   -1.000
 6078.00    2.80978   2.68405   -1.000
 6079.00    2.79187   2.66400   -1.000
 6080.00    2.79122   2.65199   -1.000
 6081.00    2.77701   2.64295   -1.000
 6082.00    2.76394   2.63578   -1.000
 6083.00    2.77316   2.63428   -1.000
 6084.00    2.77542   2.63913   -1.000
 6085.00    2.77902   2.64724   -1.000
 6086.00    2.78668   2.65766   -1.000
 6087.00    2.79214   2.66791   -1.000
 6088.00    2.79754   2.67047   -1.000
 6089.00    2.77630   2.65983   -1.000
 6090.00    2.74715   2.64121   -1.000
 6091.00    2.74171   2.62792   -1.000
 6092.00    2.76090   2.62986   -1.000
 6093.00    2.76759   2.64696   -1.000
 6094.00    2.78188   2.67216   -1.000
 6095.00    2.80783   2.69428   -1.000
 6096.00    2.82300   2.70554   -1.000
 6097.00    2.82747   2.70977   -1.000
 6098.00    2.82409   2.71497   -1.000
 6099.00    2.81939   2.71508   -1.000
 6100.00    2.78953   2.69136   -1.000
 6101.00    2.72486   2.63584   -1.000
 6102.00    2.67335   2.57153   -1.000
 6103.00    2.67755   2.54032   -1.000
 6104.00    2.72259   2.56356   -1.000
 6105.00    2.77036   2.61813   -1.000
 6106.00    2.80782   2.66647   -1.000
 6107.00    2.81930   2.69320   -1.000
 6108.00    2.79624   2.70772   -1.000
 6109.00    2.78640   2.71825   22.237
 6110.00    2.80132   2.72272   -1.000
 6111.00    2.79307   2.72178   22.360
 6112.00    2.78961   2.72465   22.335
 6113.00    2.81013   2.73585   22.269
 6114.00    2.79939   2.74654   22.191
 6115.00    2.78815   2.74604   22.168
 6116.00    2.79387   2.73507   22.052
 6117.00    2.79103   2.72176   22.044
 6118.00    2.77878   2.70550   22.160
 6119.00    2.74188   2.67607   22.282
 6120.00    2.70512   2.62927   22.319
 6121.00    2.68349   2.57932   -1.000
 6122.00    2.66747   2.55363   -1.000
 6123.00    2.68523   2.56997   -1.000
 6124.00    2.73711   2.61495   -1.000
 6125.00    2.77017   2.65490   -1.000
 6126.00    2.77098   2.66968   -1.000
 6127.00    2.75904   2.66637   -1.000
 6128.00    2.74645   2.66371   -1.000
 6129.00    2.75089   2.67616   -1.000
 6130.00    2.78603   2.70441   -1.000
 6131.00    2.80333   2.73471   22.580
 6132.00    2.80555   2.74927   22.373
 6133.00    2.79329   2.73209   22.202
 6134.00    2.74337   2.67364   22.197
 6135.00    2.66652   2.58075   -1.000
 6136.00    2.59861   2.48934   -1.000
 6137.00    2.56078   2.44822   -1.000
 6138.00    2.60706   2.48063   -1.000
 6139.00    2.68697   2.55710   -1.000
 6140.00    2.74339   2.62362   -1.000
 6141.00    2.74393   2.65464   -1.000
 6142.00    2.72344   2.66972   22.893
 6143.00    2.72406   2.69362   22.755
 6144.00    2.76511   2.72419   22.822
 6145.00    2.79403   2.74377   22.788
 6146.00    2.79792   2.74195   22.518
 6147.00    2.78209   2.72199   22.305
 6148.00    2.76414   2.69407   22.331
 6149.00    2.75227   2.66925   -1.000
 6150.00    2.74961   2.65740   -1.000
 6151.00    2.75362   2.66175   -1.000
 6152.00    2.74955   2.67407   -1.000
 6153.00    2.75424   2.67847   -1.000
 6154.00    2.73039   2.66756   22.718
 6155.00    2.71137   2.64960   22.583
 6156.00    2.71069   2.63676   22.624
 6157.00    2.71200   2.62824   -1.000
 6158.00    2.70185   2.60867   -1.000
 6159.00    2.67191   2.56021   -1.000
 6160.00    2.60271   2.47741   -1.000
 6161.00    2.50618   2.38207   -1.000
 6162.00    2.44824   2.31807   -1.000
 6163.00    2.46903   2.31711   -1.000
 6164.00    2.51668   2.37146   -1.000
 6165.00    2.58081   2.44425   -1.000
 6166.00    2.62271   2.49944   -1.000
 6167.00    2.60956   2.51595   -1.000
 6168.00    2.58188   2.49501   -1.000
 6169.00    2.55817   2.46172   -1.000
 6170.00    2.55396   2.45310   -1.000
 6171.00    2.58286   2.48397   -1.000
 6172.00    2.61606   2.53380   -1.000
 6173.00    2.64384   2.57279   -1.000
 6174.00    2.64067   2.59121   23.660
 6175.00    2.65176   2.59623   23.431
 6176.00    2.66862   2.59762   -1.000
 6177.00    2.66165   2.60352   23.486
 6178.00    2.67234   2.61613   23.423
 6179.00    2.68189   2.63068   23.377
 6180.00    2.69131   2.64395   23.298
 6181.00    2.71342   2.65764   23.184
 6182.00    2.72664   2.66971   23.107
 6183.00    2.71719   2.67259   23.026
 6184.00    2.71391   2.66118   22.926
 6185.00    2.70272   2.63715   22.898
 6186.00    2.66199   2.60639   22.964
 6187.00    2.63533   2.57674   23.071
 6188.00    2.62072   2.55128   23.284
 6189.00    2.60419   2.52439   -1.000
 6190.00    2.58324   2.49263   -1.000
 6191.00    2.56072   2.47050   -1.000
 6192.00    2.56444   2.48025   -1.000
 6193.00    2.61071   2.52442   -1.000
 6194.00    2.66931   2.58069   -1.000
 6195.00    2.70249   2.62476   -1.000
 6196.00    2.69037   2.64606   23.537
 6197.00    2.68604   2.64405   23.238
 6198.00    2.67996   2.62295   23.144
 6199.00    2.63902   2.59839   23.160
 6200.00    2.63362   2.59213   23.361
 6201.00    2.64552   2.61237   23.627
 6202.00    2.67734   2.64555   23.759
 6203.00    2.71070   2.67330   23.663
 6204.00    2.69483   2.68888   23.386
 6205.00    2.68733   2.69625   23.138
 6206.00    2.68968   2.70099   23.119
 6207.00    2.70368   2.70393   23.115
 6208.00    2.71429   2.70220   23.078
 6209.00    2.69812   2.69236   23.103
 6210.00    2.69756   2.67246   23.184
 6211.00    2.67997   2.64007   23.190
 6212.00    2.64114   2.59368   23.333
 6213.00    2.60932   2.53958   -1.000
 6214.00    2.57186   2.49487   -1.000
 6215.00    2.57838   2.47602   -1.000
 6216.00    2.60455   2.48459   -1.000
 6217.00    2.60701   2.50416   -1.000
 6218.00    2.63190   2.51394   -1.000
 6219.00    2.61589   2.50853   -1.000
 6220.00    2.59139   2.50197   -1.000
 6221.00    2.60732   2.50905   -1.000
 6222.00    2.61900   2.52762   -1.000
 6223.00    2.42474   2.54570   24.063
 6224.00    2.27606   2.55709   -1.000
 6225.00    2.66656   2.56465   -1.000
 6226.00    2.65106   2.56920   -1.000
 6227.00    2.60907   2.56285   23.851
 6228.00    2.60734   2.53493   -1.000
 6229.00    2.59444   2.48572   -1.000
 6230.00    2.54366   2.43424   -1.000
 6231.00    2.52266   2.40938   -1.000
 6232.00    2.55290   2.42749   -1.000
 6233.00    2.61690   2.48162   -1.000
 6234.00    2.66879   2.54754   -1.000
 6235.00    2.67874   2.59662   -1.000
 6236.00    2.66532   2.61098   24.064
 6237.00    2.65129   2.59221   23.739
 6238.00    2.64650   2.55642   -1.000
 6239.00    2.60745   2.52123   -1.000
 6240.00    2.58455   2.49688   -1.000
 6241.00    2.56759   2.48181   -1.000
 6242.00    2.56417   2.46830   -1.000
 6243.00    2.54817   2.45384   -1.000
 6244.00    2.53729   2.44511   -1.000
 6245.00    2.54227   2.45019   -1.000
 6246.00    2.56015   2.47271   -1.000
 6247.00    2.59274   2.51026   -1.000
 6248.00    2.62295   2.55106   -1.000
 6249.00    2.64539   2.57664   -1.000
 6250.00    2.63575   2.57323   24.217
 6251.00    2.59533   2.54159   24.017
 6252.00    2.55591   2.49734   24.067
 6253.00    2.52237   2.46079   24.360
 6254.00    2.51347   2.44083   -1.000
 6255.00    2.52317   2.42939   -1.000
 6256.00    2.51021   2.41452   -1.000
 6257.00    2.48953   2.39845   -1.000
 6258.00    2.49776   2.39723   -1.000
 6259.00    2.52474   2.42337   -1.000
 6260.00    2.56325   2.47280   -1.000
 6261.00    2.62550   2.52982   -1.000
 6262.00    2.64445   2.57720   -1.000
 6263.00    2.65136   2.60331   24.714
 6264.00    2.64963   2.60615   24.374
 6265.00    2.63663   2.59724   24.036
 6266.00    2.63640   2.59296   24.006
 6267.00    2.64871   2.59748   24.225
 6268.00    2.65794   2.60148   24.328
 6269.00    2.64111   2.59988   24.175
 6270.00    2.62198   2.59951   24.042
 6271.00    2.61759   2.60709   24.166
 6272.00    2.63513   2.61928   24.261
 6273.00    2.64995   2.62573   24.201
 6274.00    2.64771   2.61842   24.118
 6275.00    2.64535   2.59771   24.087
 6276.00    2.65168   2.57029   -1.000
 6277.00    2.63481   2.54253   -1.000
 6278.00    2.58709   2.51721   -1.000
 6279.00    2.52272   2.49661   25.066
 6280.00    2.44758   2.48641   25.696
 6281.00    2.40618   2.49492   26.082
 6282.00    2.41899   2.52429   26.167
 6283.00    2.43282   2.56514   25.986
 6284.00    2.45008   2.60328   25.536
 6285.00    2.45679   2.63193   25.104
 6286.00    2.46314   2.65406   -1.000
 6287.00    2.49718   2.67367   24.464
 6288.00    2.54963   2.68642   24.269
 6289.00    2.58772   2.68336   24.052
 6290.00    2.61712   2.66302   23.911
 6291.00    2.60574   2.63616   23.906
 6292.00    2.58893   2.61661   24.066
 6293.00    2.61177   2.60906   24.273
 6294.00    2.61453   2.60564   24.427
 6295.00    2.61151   2.59416   24.456
 6296.00    2.59108   2.57167   24.485
 6297.00    2.56881   2.54997   24.555
 6298.00    2.54447   2.54182   24.758
 6299.00    2.52053   2.54388   24.895
 6300.00    2.46840   2.54212   24.906
 6301.00    2.38980   2.53364   24.851
 6302.00    2.39986   2.53108   24.738
 6303.00    2.67286   2.54487   -1.000
 6304.00    2.91280   2.57164   -1.000
 6305.00    2.89079   2.60294   -1.000
 6306.00    2.74914   2.63433   -1.000
 6307.00    2.69045   2.66353   24.457
 6308.00    2.68696   2.68306   24.183
 6309.00    2.66464   2.68481   23.984
 6310.00    2.64371   2.67043   23.791
 6311.00    2.63452   2.65054   23.796
 6312.00    2.62839   2.63313   23.923
 6313.00    2.62640   2.61684   24.080
 6314.00    2.61121   2.59689   24.165
 6315.00    2.59202   2.57406   24.255
 6316.00    2.58453   2.55301   24.299
 6317.00    2.58019   2.53642   24.528
 6318.00    2.55643   2.53110   24.580
 6319.00    2.55516   2.54666   24.553
 6320.00    2.59727   2.58038   24.539
 6321.00    2.61881   2.61660   24.561
 6322.00    2.62252   2.64530   24.425
 6323.00    2.63261   2.66887   24.116
 6324.00    2.66132   2.69057   23.910
 6325.00    2.68780   2.70716   23.835
 6326.00    2.68711   2.71515   23.747
 6327.00    2.69282   2.71746   23.621
 6328.00    2.68288   2.71862   23.563
 6329.00    2.69792   2.71922   23.540
 6330.00    2.71598   2.72056   23.430
 6331.00    2.69239   2.72580   23.469
 6332.00    2.69163   2.73053   23.483
 6333.00    2.71108   2.72050   23.485
 6334.00    2.67419   2.68680   23.394
 6335.00    2.75980   2.64095   -1.000
 6336.00    2.72747   2.60856   -1.000
 6337.00    2.61871   2.60621   23.576
 6338.00    2.66034   2.62916   24.115
 6339.00    2.66314   2.66212   24.071
 6340.00    2.68947   2.68974   23.842
 6341.00    2.70424   2.69947   23.594
 6342.00    2.68125   2.68701   23.352
 6343.00    2.66656   2.66295   23.254
 6344.00    2.66900   2.64773   23.156
 6345.00    2.67277   2.65453   23.215
 6346.00    2.67532   2.67954   23.421
 6347.00    2.68791   2.71037   23.419
 6348.00    2.71149   2.73812   23.338
 6349.00    2.72510   2.75883   23.201
 6350.00    2.73341   2.77089   23.044
 6351.00    2.72739   2.77288   22.978
 6352.00    2.70775   2.76209   22.984
 6353.00    2.69967   2.73807   22.936
 6354.00    2.66884   2.70815   22.977
 6355.00    2.64745   2.68335   23.084
 6356.00    2.64494   2.66551   23.211
 6357.00    2.62759   2.64556   23.488
 6358.00    2.60242   2.61761   23.656
 6359.00    2.59074   2.58701   23.655
 6360.00    2.57831   2.56180   23.758
 6361.00    2.55943   2.54547   24.030
 6362.00    2.56244   2.54108   24.086
 6363.00    2.57587   2.55362   23.973
 6364.00    2.57330   2.58340   23.907
 6365.00    2.56733   2.62335   23.882
 6366.00    2.63342   2.66522   23.783
 6367.00    2.73165   2.70303   23.619
 6368.00    2.77646   2.73094   23.473
 6369.00    2.72009   2.74574   23.347
 6370.00    2.69164   2.75264   23.194
 6371.00    2.68504   2.76207   23.051
 6372.00    2.66710   2.77799   23.011
 6373.00    2.69179   2.79363   23.022
 6374.00    2.70174   2.80127   22.932
 6375.00    2.67761   2.80077   22.860
 6376.00    2.66335   2.79421   22.931
 6377.00    2.64547   2.78118   22.946
 6378.00    2.63246   2.76373   23.004
 6379.00    2.62104   2.74853   23.097
 6380.00    2.59775   2.74148   23.222
 6381.00    2.60635   2.74376   23.377
 6382.00    2.61965   2.75141   23.449
 6383.00    2.61985   2.75861   23.462
 6384.00    2.62089   2.76378   23.505
 6385.00    2.61941   2.77064   23.487
 6386.00    2.62469   2.78121   23.438
 6387.00    2.61536   2.79173   23.559
 6388.00    2.61092   2.79787   23.597
 6389.00    2.60108   2.79734   -1.000
 6390.00    2.59546   2.78517   23.663
 6391.00    2.56558   2.75542   23.752
 6392.00    2.51165   2.71285   -1.000
 6393.00    2.47674   2.67919   -1.000
 6394.00    2.45515   2.67751   -1.000
 6395.00    2.47695   2.70879   -1.000
 6396.00    2.50788   2.74774   -1.000
 6397.00    2.50553   2.76260   -1.000
 6398.00    2.46882   2.73896   -1.000
 6399.00    2.40880   2.69359   -1.000
 6400.00    2.36263   2.66589   -1.000
 6401.00    2.39411   2.68299   -1.000
 6402.00    2.42495   2.73408   -1.000
 6403.00    2.47364   2.78547   -1.000
 6404.00    2.47159   2.81199   -1.000
 6405.00    2.43922   2.80705   -1.000
 6406.00    2.41418   2.77975   -1.000
 6407.00    2.37864   2.74967   -1.000
 6408.00    2.34939   2.73418   -1.000
 6409.00    2.34794   2.73412   -1.000
 6410.00    2.31979   2.73645   -1.000
 6411.00    2.28746   2.73236   -1.000
 6412.00    2.27122   2.72744   -1.000
 6413.00    2.25423   2.73103   -1.000
 6414.00    2.24357   2.74372   -1.000
 6415.00    2.25690   2.75949   -1.000
 6416.00    2.24654   2.77100   -1.000
 6417.00    2.24206   2.76971   -1.000
 6418.00    2.23194   2.75014   -1.000
 6419.00    2.18462   2.71755   -1.000
 6420.00    2.12629   2.69007   -1.000
 6421.00    2.09156   2.68857   -1.000
 6422.00    2.08989   2.71787   -1.000
 6423.00    2.10431   2.76090   -1.000
 6424.00    2.10839   2.79704   -1.000
 6425.00    2.10333   2.82000   -1.000
 6426.00    2.09785   2.83323   -1.000
 6427.00    2.07484   2.83452   -1.000
 6428.00    2.04898   2.81486   -1.000
