###################################################################
## OUTPUT of StarlightChains_v04.for    [Cid@UFSC - 01/Apr/2007] ##
###################################################################

## Some input info
NGC6638_a_1.cxt                          [arq_obs]
Base.BC03.N                              [arq_base]
NGC6638_a_1.msk                          [arq_masks]
StCv04.C11.config                        [arq_config]
   45                                    [N_base]
    0                                    [N_YAV_components = # of components with extra extinction!]
    0                                    [i_FitPowerLaw (1/0 = Yes/No)]
-9.99                                    [alpha_PowerLaw]
CCM                                      [red_law_option]
 1.458241                                [q_norm = A(l_norm)/A(V)]

## (Re)Sampling Parameters
 3359.00                                 [l_ini (A)]
 6428.00                                 [l_fin (A)]
    1.00                                 [dl    (A)]     (OBS: dl_cushion =    50.00 A)

## Normalization info
 4020.00                                 [l_norm (A) - for base]
 4010.00                                 [llow_norm (A) - window for f_obs]
 4060.00                                 [lupp_norm (A) - window for f_obs]
7.127479E-15                             [fobs_norm (in input units)]

## S/N
 4730.00                                 [llow_SN (A) - window for S/N]
 4780.00                                 [lupp_SN (A) - window for S/N]
  53.764                                 [S/N in S/N window]
  34.599                                 [S/N in norm. window]
  41.866                                 [S/N_err in S/N window]
  26.942                                 [S/N_err in norm. window]
  1.0000                                 [fscale_chi2]

## etc...
  2147483593                             [idum_orig]
  3067                                   [NOl_eff]
  1671                                   [Nl_eff]
  1396    NSIGMA                         [Ntot_cliped & clip_method]
   884800                                [Nglobal_steps]
   7                                     [N_chains]
  13                                     [NEX0s_base = N_base in EX0s-fits]
 0   0   1      211   2.0   5.860E+02    [Clip-Bug, RC-Crash & Burn-In warning-flags, n_censored_weights, wei_nsig_threshold & wei_limit]
    11     10.585     10.577      0.008  [idt_all, wdt_TotTime, wdt_UsrTime & wdt_SysTime (sec)]

## Synthesis Results - Best model ##

 2.51866E+00                             [chi2/Nl_eff]
     2.26331                             [adev (%)]

    99.34415                             [sum-of-x (%)]
 4.97885E-14                             [Flux_tot (units of input spectrum!)]
 1.22783E-09                             [Mini_tot (???)]
 6.32919E-10                             [Mcor_tot (???)]

   8.34                                  [v0_min  (km/s)]
  57.06                                  [vd_min  (km/s)]
 1.4522                                  [AV_min  (mag)]
 0.0000                                  [YAV_min (mag)]

# j     x_j(%)      Mini_j(%)     Mcor_j(%)     age_j(yr)     Z_j      (L/M)_j    YAV?  Mstars   component_j        a/Fe...       SSP_chi2r SSP_adev(%)   SSP_AV   SSP_x(%)
  1      0.0000     0.0000E+00    0.0000E+00    1.000000E+06  0.00400  1.114E-02    0   1.0000   age020_m42            0.0000     1.0016E+03    31.5796   4.0000    80.1836
  2     13.7411     1.3771E-02    2.6712E-02    3.160000E+06  0.00400  4.073E-02    0   0.9999   age045_m42            0.0000     1.3889E+02     6.5794   4.0000    92.4372
  3      0.0000     0.0000E+00    0.0000E+00    5.010000E+06  0.00400  2.534E-02    0   0.9488   age055_m42            0.0000     3.5543E+02    16.9162   4.0000    87.8554
  4      9.8308     3.1571E-02    5.4277E-02    1.000000E+07  0.00400  1.271E-02    0   0.8862   age070_m42            0.0000     1.6670E+02     8.5945   3.8315    88.6979
  5      0.0000     0.0000E+00    0.0000E+00    2.512000E+07  0.00400  5.070E-03    0   0.8174   age090_m42            0.0000     1.4553E+02     7.9079   3.6843    90.4308
  6      0.0000     0.0000E+00    0.0000E+00    4.000000E+07  0.00400  3.505E-03    0   0.7851   age104_m42            0.0000     1.1285E+02     6.1638   3.3267    93.5965
  7      4.0346     7.2612E-02    1.0152E-01    1.015200E+08  0.00400  2.268E-03    0   0.7207   age116_m42            0.0000     4.9930E+02     8.8986   3.1006   103.3128
  8      0.0000     0.0000E+00    0.0000E+00    2.861200E+08  0.00400  1.079E-03    0   0.6613   age125_m42            0.0000     5.2796E+02    10.4518   2.5396   105.9845
  9      0.0000     0.0000E+00    0.0000E+00    6.405400E+08  0.00400  5.077E-04    0   0.6197   age132_m42            0.0000     5.6517E+02    11.4197   2.1537   110.0231
 10      0.0000     0.0000E+00    0.0000E+00    9.047900E+08  0.00400  3.535E-04    0   0.6024   age135_m42            0.0000     3.8876E+02    10.0052   1.9372   109.3696
 11      0.0000     0.0000E+00    0.0000E+00    1.434000E+09  0.00400  1.910E-04    0   0.5716   age139_m42            0.0000     1.9517E+02     8.1679   1.4118   108.8907
 12      7.8250     3.2532E+00    3.4477E+00    2.500000E+09  0.00400  9.818E-05    0   0.5463   age150_m42            0.0000     5.5752E+01     5.5426   1.1899   104.6419
 13     26.8060     2.3191E+01    2.3521E+01    5.000000E+09  0.00400  4.718E-05    0   0.5228   age161_m42            0.0000     2.4908E+01     4.4247   1.0588   101.5702
 14     20.0868     3.7184E+01    3.5923E+01    1.100000E+10  0.00400  2.205E-05    0   0.4980   age185_m42            0.0000     5.8783E+01     5.6333   0.7797   100.2245
 15      0.0000     0.0000E+00    0.0000E+00    1.300000E+10  0.00400  1.883E-05    0   0.4927   age193_m42            0.0000     6.8566E+01     5.7418   0.7627   100.1708
 16      0.0000     0.0000E+00    0.0000E+00    1.000000E+06  0.02000  1.989E-02    0   1.0000   age020_m62            0.0000     9.5367E+02    30.6951   4.0000    80.9156
 17      0.0000     0.0000E+00    0.0000E+00    3.160000E+06  0.02000  3.772E-02    0   0.9858   age045_m62            0.0000     7.8560E+02    27.2423   4.0000    83.2540
 18      0.0000     0.0000E+00    0.0000E+00    5.010000E+06  0.02000  3.227E-02    0   0.9342   age055_m62            0.0000     2.5322E+02    12.7735   4.0000    90.3723
 19      0.0000     0.0000E+00    0.0000E+00    1.000000E+07  0.02000  1.011E-02    0   0.8751   age070_m62            0.0000     2.8571E+02    12.5585   3.9150    85.0205
 20      0.0000     0.0000E+00    0.0000E+00    2.512000E+07  0.02000  4.206E-03    0   0.8099   age090_m62            0.0000     2.1304E+02    10.3032   3.8159    86.2684
 21      0.0000     0.0000E+00    0.0000E+00    4.000000E+07  0.02000  3.373E-03    0   0.7799   age104_m62            0.0000     1.4930E+02     6.2540   3.5108    94.8725
 22      0.0000     0.0000E+00    0.0000E+00    1.015200E+08  0.02000  1.878E-03    0   0.7221   age116_m62            0.0000     4.3756E+02     8.2122   3.1562   103.3734
 23      0.0000     0.0000E+00    0.0000E+00    2.861200E+08  0.02000  8.869E-04    0   0.6700   age125_m62            0.0000     8.2333E+02    13.1453   2.4775   111.3014
 24      0.0000     0.0000E+00    0.0000E+00    6.405400E+08  0.02000  3.657E-04    0   0.6322   age132_m62            0.0000     5.6616E+02    13.3419   1.7238   115.7348
 25      0.0000     0.0000E+00    0.0000E+00    9.047900E+08  0.02000  2.312E-04    0   0.6152   age135_m62            0.0000     3.3817E+02    11.4081   1.3889   114.7236
 26      0.0000     0.0000E+00    0.0000E+00    1.434000E+09  0.02000  1.168E-04    0   0.5865   age139_m62            0.0000     1.0528E+02     7.6423   1.0679   109.0423
 27      0.0000     0.0000E+00    0.0000E+00    2.500000E+09  0.02000  5.505E-05    0   0.5610   age150_m62            0.0000     8.1964E+01     7.4653   0.7038   106.8014
 28      4.7332     7.4422E+00    7.7284E+00    5.000000E+09  0.02000  2.596E-05    0   0.5353   age161_m62            0.0000     1.7042E+02     9.5190   0.3208   107.7291
 29      0.9897     3.4558E+00    3.4211E+00    1.100000E+10  0.02000  1.169E-05    0   0.5103   age185_m62            0.0000     3.1123E+02    11.9333  -0.1120   110.3594
 30      2.0118     8.4736E+00    8.2964E+00    1.300000E+10  0.02000  9.691E-06    0   0.5047   age193_m62            0.0000     3.4262E+02    12.3220  -0.1679   110.7903
 31      0.0000     0.0000E+00    0.0000E+00    1.000000E+06  0.05000  2.651E-02    0   0.9998   age020_m72            0.0000     9.2005E+02    30.4405   4.0000    81.9036
 32      0.0000     0.0000E+00    0.0000E+00    3.160000E+06  0.05000  4.817E-02    0   0.9577   age045_m72            0.0000     5.6988E+02    22.8371   4.0000    86.9033
 33      0.0000     0.0000E+00    0.0000E+00    5.010000E+06  0.05000  3.101E-02    0   0.9147   age055_m72            0.0000     3.2421E+02    13.6679   4.0000    88.8370
 34      0.0000     0.0000E+00    0.0000E+00    1.000000E+07  0.05000  8.954E-03    0   0.8524   age070_m72            0.0000     4.4902E+02    19.4917   4.0000    88.0771
 35      0.0000     0.0000E+00    0.0000E+00    2.512000E+07  0.05000  4.207E-03    0   0.7902   age090_m72            0.0000     1.6086E+02     7.7134   4.0000    92.4395
 36      0.0000     0.0000E+00    0.0000E+00    4.000000E+07  0.05000  3.198E-03    0   0.7618   age104_m72            0.0000     2.8174E+02     5.8182   3.5898    99.4296
 37      0.0000     0.0000E+00    0.0000E+00    1.015200E+08  0.05000  1.716E-03    0   0.7092   age116_m72            0.0000     5.0909E+02     8.8859   3.2242   103.7234
 38      0.0000     0.0000E+00    0.0000E+00    2.861200E+08  0.05000  7.047E-04    0   0.6618   age125_m72            0.0000     7.8831E+02    13.0605   2.2469   112.3805
 39      0.0000     0.0000E+00    0.0000E+00    6.405400E+08  0.05000  2.633E-04    0   0.6253   age132_m72            0.0000     4.3373E+02    12.7461   1.3406   115.5254
 40      0.0000     0.0000E+00    0.0000E+00    9.047900E+08  0.05000  1.484E-04    0   0.6088   age135_m72            0.0000     1.7857E+02    10.1906   0.9135   110.6384
 41      2.2265     1.1611E+00    1.3170E+00    1.434000E+09  0.05000  7.827E-05    0   0.5847   age139_m72            0.0000     1.3000E+02     9.4420   0.5516   107.9169
 42      4.0733     4.4231E+00    4.7905E+00    2.500000E+09  0.05000  3.759E-05    0   0.5583   age150_m72            0.0000     1.8795E+02    10.0111   0.2341   107.6673
 43      2.0366     5.3700E+00    5.5422E+00    5.000000E+09  0.05000  1.548E-05    0   0.5320   age161_m72            0.0000     2.9924E+02    12.0108  -0.2301   108.3017
 44      0.9487     5.9282E+00    5.8307E+00    1.100000E+10  0.05000  6.532E-06    0   0.5070   age185_m72            0.0000     4.4819E+02    15.6251  -0.7527   110.1756
 45      0.0000     0.0000E+00    0.0000E+00    1.300000E+10  0.05000  5.316E-06    0   0.5018   age193_m72            0.0000     5.1634E+02    17.0880  -0.9376   111.1800


## Synthesis Results - Average & Chains ##

# j      x_j: min, <> & last-chain-values for 1 ...  7 chains
  1      0.0000      0.0092      0.0000      0.0000      0.0000      0.0000      0.0000      0.0000      0.0000
  2     13.7411     13.0117     13.2365     13.0330     13.4196     13.0748     13.2808     13.2020     13.1059
  3      0.0000      0.0814      0.0000      0.0347      0.0000      0.0000      0.0000      0.0000      0.0738
  4      9.8308      9.3523      9.4609      9.6305      9.5573      9.6074      9.3789      9.6191      9.3638
  5      0.0000      0.0347      0.0000      0.0000      0.0000      0.2129      0.0000      0.0000      0.0000
  6      0.0000      0.0336      0.0000      0.0000      0.0700      0.0000      0.0240      0.0000      0.0232
  7      4.0346      4.1588      3.9694      4.1748      3.8466      3.7527      4.3117      4.1300      3.9080
  8      0.0000      0.0263      0.0326      0.0000      0.0685      0.0175      0.0000      0.0000      0.1389
  9      0.0000      0.0507      0.0000      0.0000      0.0000      0.0057      0.1932      0.1412      0.0000
 10      0.0000      0.0979      0.0000      0.0090      0.0000      0.5720      0.0961      0.0000      0.0000
 11      0.0000      0.1265      0.1770      0.2359      0.2211      0.3440      0.0000      0.0576      0.0000
 12      7.8250      8.2717      8.4456      8.2268      8.2787      8.3625      8.0685      8.0406      9.2833
 13     26.8060     27.2466     27.5012     27.6628     27.5564     27.3316     27.2661     26.9966     27.2537
 14     20.0868     20.4750     20.3983     20.4450     20.5781     20.0930     20.4363     20.8628     20.3947
 15      0.0000      0.1095      0.0000      0.0000      0.0000      0.0106      0.0000      0.0000      0.0000
 16      0.0000      0.0066      0.0000      0.0000      0.0000      0.0000      0.0000      0.0000      0.0000
 17      0.0000      0.0058      0.0000      0.0000      0.0000      0.0000      0.0000      0.0000      0.0000
 18      0.0000      0.3394      0.4732      0.3973      0.1481      0.4926      0.3707      0.2484      0.4547
 19      0.0000      0.0126      0.0196      0.0000      0.0000      0.0000      0.0000      0.0000      0.0302
 20      0.0000      0.0086      0.0000      0.0000      0.0000      0.0000      0.0000      0.0000      0.0000
 21      0.0000      0.0457      0.0000      0.0000      0.0000      0.0000      0.0000      0.0000      0.0000
 22      0.0000      0.0344      0.0011      0.0000      0.0000      0.0000      0.0000      0.0000      0.0618
 23      0.0000      0.0151      0.0000      0.0000      0.0000      0.0000      0.0000      0.0000      0.0753
 24      0.0000      0.0165      0.0044      0.0260      0.0035      0.0000      0.0000      0.0000      0.0000
 25      0.0000      0.0184      0.0000      0.0000      0.0000      0.0000      0.0000      0.0308      0.0000
 26      0.0000      0.0935      0.1726      0.0000      0.0000      0.0000      0.0000      0.0000      0.0000
 27      0.0000      0.1308      0.0000      0.0000      0.0000      0.0000      0.0000      0.1747      0.2589
 28      4.7332      6.1133      6.1110      6.0209      6.1809      5.8140      6.3539      6.2040      5.5474
 29      0.9897      2.5184      2.7569      2.1061      2.2185      2.2932      2.5123      2.3621      2.4308
 30      2.0118      3.7848      3.3598      3.7789      3.8595      3.9332      3.8704      3.7266      3.5789
 31      0.0000      0.0036      0.0000      0.0000      0.0000      0.0000      0.0000      0.0000      0.0000
 32      0.0000      0.0207      0.0000      0.0000      0.0000      0.0000      0.0672      0.0000      0.0578
 33      0.0000      0.0871      0.0000      0.0000      0.0753      0.0012      0.1216      0.1098      0.0000
 34      0.0000      0.0114      0.0000      0.0669      0.0000      0.0000      0.0000      0.0000      0.0000
 35      0.0000      0.0151      0.0000      0.0000      0.0000      0.0000      0.0000      0.0000      0.0000
 36      0.0000      0.0936      0.0000      0.0000      0.2074      0.0000      0.0131      0.1753      0.0000
 37      0.0000      0.0384      0.0000      0.0000      0.0000      0.0216      0.0000      0.1272      0.0000
 38      0.0000      0.0129      0.0385      0.0000      0.1115      0.0000      0.0000      0.0031      0.0000
 39      0.0000      0.0413      0.0999      0.0000      0.0000      0.0000      0.0153      0.0000      0.0000
 40      0.0000      0.0528      0.0000      0.1152      0.0000      0.0000      0.0000      0.0000      0.0000
 41      2.2265      0.5887      0.9160      0.9219      0.6277      0.6998      1.1638      0.8032      0.7521
 42      4.0733      0.6734      0.7503      1.1562      1.2204      1.0564      0.3605      0.5243      1.1404
 43      2.0366      0.3150      0.2875      0.2806      0.2643      0.5716      0.2222      0.7647      0.4846
 44      0.9487      0.6729      0.6892      0.5417      0.6387      0.7163      0.5440      0.7386      0.6654
 45      0.0000      0.6051      0.5288      0.5329      0.2495      0.4714      0.7827      0.3761      0.3408

# j      m_j: min, <> & last-chain-values for 1 ...  7 chains
  1  0.0000E+00  5.9657E-05  0.0000E+00  0.0000E+00  0.0000E+00  0.0000E+00  0.0000E+00  0.0000E+00  0.0000E+00
  2  2.6712E-02  2.3045E-02  2.3736E-02  2.3585E-02  2.4410E-02  2.3374E-02  2.3432E-02  2.3525E-02  2.3847E-02
  3  0.0000E+00  2.2001E-04  0.0000E+00  9.5703E-05  0.0000E+00  0.0000E+00  0.0000E+00  0.0000E+00  2.0475E-04
  4  5.4277E-02  4.7043E-02  4.8185E-02  4.9499E-02  4.9376E-02  4.8781E-02  4.6997E-02  4.8682E-02  4.8390E-02
  5  0.0000E+00  4.0324E-04  0.0000E+00  0.0000E+00  0.0000E+00  2.4994E-03  0.0000E+00  0.0000E+00  0.0000E+00
  6  0.0000E+00  5.4295E-04  0.0000E+00  0.0000E+00  1.1613E-03  0.0000E+00  3.8714E-04  0.0000E+00  3.8545E-04
  7  1.0152E-01  9.5339E-02  9.2136E-02  9.7792E-02  9.0570E-02  8.6839E-02  9.8468E-02  9.5259E-02  9.2041E-02
  8  0.0000E+00  1.1636E-03  1.4589E-03  0.0000E+00  3.1127E-03  7.8086E-04  0.0000E+00  0.0000E+00  6.3095E-03
  9  0.0000E+00  4.4669E-03  0.0000E+00  0.0000E+00  0.0000E+00  5.0646E-04  1.6946E-02  1.2514E-02  0.0000E+00
 10  0.0000E+00  1.2040E-02  0.0000E+00  1.1309E-03  0.0000E+00  7.0984E-02  1.1763E-02  0.0000E+00  0.0000E+00
 11  0.0000E+00  2.7313E-02  3.8695E-02  5.2051E-02  4.9039E-02  7.4975E-02  0.0000E+00  1.2503E-02  0.0000E+00
 12  3.4477E+00  3.3204E+00  3.4327E+00  3.3744E+00  3.4132E+00  3.3885E+00  3.2266E+00  3.2474E+00  3.8285E+00
 13  2.3521E+01  2.1781E+01  2.2260E+01  2.2596E+01  2.2625E+01  2.2055E+01  2.1714E+01  2.1713E+01  2.2383E+01
 14  3.5923E+01  3.3361E+01  3.3652E+01  3.4038E+01  3.4437E+01  3.3047E+01  3.3171E+01  3.4201E+01  3.4139E+01
 15  0.0000E+00  2.0674E-01  0.0000E+00  0.0000E+00  0.0000E+00  2.0119E-02  0.0000E+00  0.0000E+00  0.0000E+00
 16  0.0000E+00  2.3852E-05  0.0000E+00  0.0000E+00  0.0000E+00  0.0000E+00  0.0000E+00  0.0000E+00  0.0000E+00
 17  0.0000E+00  1.0992E-05  0.0000E+00  0.0000E+00  0.0000E+00  0.0000E+00  0.0000E+00  0.0000E+00  0.0000E+00
 18  0.0000E+00  7.0881E-04  1.0007E-03  8.4781E-04  3.1771E-04  1.0386E-03  7.7131E-04  5.2206E-04  9.7565E-04
 19  0.0000E+00  7.8529E-05  1.2399E-04  0.0000E+00  0.0000E+00  0.0000E+00  0.0000E+00  0.0000E+00  1.9367E-04
 20  0.0000E+00  1.1943E-04  0.0000E+00  0.0000E+00  0.0000E+00  0.0000E+00  0.0000E+00  0.0000E+00  0.0000E+00
 21  0.0000E+00  7.6224E-04  0.0000E+00  0.0000E+00  0.0000E+00  0.0000E+00  0.0000E+00  0.0000E+00  0.0000E+00
 22  0.0000E+00  9.5334E-04  2.9803E-05  0.0000E+00  0.0000E+00  0.0000E+00  0.0000E+00  0.0000E+00  1.7599E-03
 23  0.0000E+00  8.2260E-04  0.0000E+00  0.0000E+00  0.0000E+00  0.0000E+00  0.0000E+00  0.0000E+00  4.2188E-03
 24  0.0000E+00  2.0608E-03  5.5232E-04  3.3175E-03  4.4617E-04  0.0000E+00  0.0000E+00  0.0000E+00  0.0000E+00
 25  0.0000E+00  3.5363E-03  0.0000E+00  0.0000E+00  0.0000E+00  0.0000E+00  0.0000E+00  5.9409E-03  0.0000E+00
 26  0.0000E+00  3.3877E-02  6.3307E-02  0.0000E+00  0.0000E+00  0.0000E+00  0.0000E+00  0.0000E+00  0.0000E+00
 27  0.0000E+00  9.6197E-02  0.0000E+00  0.0000E+00  0.0000E+00  0.0000E+00  0.0000E+00  1.2920E-01  1.9557E-01
 28  7.7284E+00  9.0941E+00  9.2045E+00  9.1519E+00  9.4436E+00  8.7303E+00  9.4161E+00  9.2855E+00  8.4782E+00
 29  3.4211E+00  7.9309E+00  8.7908E+00  6.7770E+00  7.1758E+00  7.2899E+00  7.8816E+00  7.4843E+00  7.8648E+00
 30  8.2964E+00  1.4220E+01  1.2781E+01  1.4507E+01  1.4893E+01  1.4917E+01  1.4486E+01  1.4087E+01  1.3814E+01
 31  0.0000E+00  9.7254E-06  0.0000E+00  0.0000E+00  0.0000E+00  0.0000E+00  0.0000E+00  0.0000E+00  0.0000E+00
 32  0.0000E+00  2.9639E-05  0.0000E+00  0.0000E+00  0.0000E+00  0.0000E+00  9.5955E-05  0.0000E+00  8.5205E-05
 33  0.0000E+00  1.8537E-04  0.0000E+00  0.0000E+00  1.6465E-04  2.6417E-06  2.5781E-04  2.3502E-04  0.0000E+00
 34  0.0000E+00  7.8179E-05  0.0000E+00  4.6917E-04  0.0000E+00  0.0000E+00  0.0000E+00  0.0000E+00  0.0000E+00
 35  0.0000E+00  2.0478E-04  0.0000E+00  0.0000E+00  0.0000E+00  0.0000E+00  0.0000E+00  0.0000E+00  0.0000E+00
 36  0.0000E+00  1.6082E-03  0.0000E+00  0.0000E+00  3.6614E-03  0.0000E+00  2.2377E-04  3.0313E-03  0.0000E+00
 37  0.0000E+00  1.1461E-03  0.0000E+00  0.0000E+00  0.0000E+00  6.5014E-04  0.0000E+00  3.8146E-03  0.0000E+00
 38  0.0000E+00  8.7711E-04  2.6382E-03  0.0000E+00  7.7555E-03  0.0000E+00  0.0000E+00  2.0915E-04  0.0000E+00
 39  0.0000E+00  7.0685E-03  1.7322E-02  0.0000E+00  0.0000E+00  0.0000E+00  2.6086E-03  0.0000E+00  0.0000E+00
 40  0.0000E+00  1.5621E-02  0.0000E+00  3.4830E-02  0.0000E+00  0.0000E+00  0.0000E+00  0.0000E+00  0.0000E+00
 41  1.3170E+00  3.1725E-01  4.9984E-01  5.0769E-01  3.4743E-01  3.8072E-01  6.2480E-01  4.3554E-01  4.1641E-01
 42  4.7905E+00  7.2155E-01  8.1399E-01  1.2658E+00  1.3430E+00  1.1426E+00  3.8476E-01  5.6522E-01  1.2553E+00
 43  5.5422E+00  7.8099E-01  7.2171E-01  7.1091E-01  6.7302E-01  1.4305E+00  5.4881E-01  1.9076E+00  1.2342E+00
 44  5.8307E+00  3.7680E+00  3.9077E+00  3.0994E+00  3.6735E+00  4.0489E+00  3.0344E+00  4.1610E+00  3.8276E+00
 45  0.0000E+00  4.1208E+00  3.6463E+00  3.7081E+00  1.7449E+00  3.2402E+00  5.3100E+00  2.5767E+00  2.3843E+00

# AV, chi2 & Mass for <> & i_chain = 1 ...  7 solutions
AV       1.4522      1.4468      1.4477      1.4519      1.4549      1.4486      1.4483      1.4487      1.4510
chi2 2.5187E+00  2.5580E+00  2.5523E+00  2.5497E+00  2.5520E+00  2.5496E+00  2.5551E+00  2.5534E+00  2.5495E+00
Mass 6.3292E-10  6.8971E-10  6.8203E-10  6.7960E-10  6.7886E-10  6.8488E-10  6.9369E-10  6.8728E-10  6.7508E-10
   8.34                                  [v0_min (km/s) before EX0s...]
  57.06                                  [vd_min (km/s) before EX0s...]


## Synthetic spectrum (Best Model) ##l_obs f_obs f_syn wei
 3070    [Nl_obs]
 3359.00    0.00000   0.45268   -2.000
 3360.00    0.17953   0.42810   -1.000
 3361.00    0.19151   0.42272   -1.000
 3362.00    0.21467   0.44074   -1.000
 3363.00    0.24258   0.47049   -1.000
 3364.00    0.26243   0.49406   -1.000
 3365.00    0.28992   0.49972   -1.000
 3366.00    0.28761   0.48722   -1.000
 3367.00    0.29679   0.46550   -1.000
 3368.00    0.28894   0.44661   -1.000
 3369.00    0.26477   0.43721   -1.000
 3370.00    0.25721   0.43464   -1.000
 3371.00    0.24218   0.43310   -1.000
 3372.00    0.23721   0.43333   -1.000
 3373.00    0.25751   0.44300   -1.000
 3374.00    0.28444   0.46473   -1.000
 3375.00    0.28773   0.49324   -1.000
 3376.00    0.31256   0.51317   -1.000
 3377.00    0.34266   0.51140   -1.000
 3378.00    0.34259   0.49243   -1.000
 3379.00    0.34273   0.47032   -1.000
 3380.00    0.32491   0.45874   -1.000
 3381.00    0.32342   0.46297   -1.000
 3382.00    0.33885   0.47826   -1.000
 3383.00    0.32884   0.49369   -1.000
 3384.00    0.34916   0.50417   -1.000
 3385.00    0.34847   0.51318   -1.000
 3386.00    0.34322   0.51961   -1.000
 3387.00    0.34312   0.52032   -1.000
 3388.00    0.35421   0.51762   -1.000
 3389.00    0.34894   0.51470   -1.000
 3390.00    0.35364   0.51080   -1.000
 3391.00    0.35607   0.50318   -1.000
 3392.00    0.37014   0.49239   -1.000
 3393.00    0.35532   0.48646   -1.000
 3394.00    0.36173   0.49343   -1.000
 3395.00    0.37364   0.51061   -1.000
 3396.00    0.38482   0.52965   -1.000
 3397.00    0.38943   0.54550   -1.000
 3398.00    0.40973   0.55444   -1.000
 3399.00    0.44368   0.55355   -1.000
 3400.00    0.44867   0.54593   -1.000
 3401.00    0.44291   0.53580   -1.000
 3402.00    0.42803   0.52323   -1.000
 3403.00    0.42228   0.51191   -1.000
 3404.00    0.42788   0.50577   -1.000
 3405.00    0.42477   0.50237   -1.000
 3406.00    0.41307   0.49723   -1.000
 3407.00    0.42353   0.49158   -1.000
 3408.00    0.41172   0.48983   -1.000
 3409.00    0.39123   0.49470   -1.000
 3410.00    0.39948   0.50253   -1.000
 3411.00    0.42452   0.50455   -1.000
 3412.00    0.42153   0.49842   -1.000
 3413.00    0.42551   0.48873   -1.000
 3414.00    0.39271   0.48358   -1.000
 3415.00    0.38119   0.48714   -1.000
 3416.00    0.37897   0.49841   -1.000
 3417.00    0.41438   0.51365   -1.000
 3418.00    0.44919   0.52967   -1.000
 3419.00    0.44822   0.54377   -1.000
 3420.00    0.43411   0.55100   -1.000
 3421.00    0.44486   0.54830   -1.000
 3422.00    0.46381   0.53923   -1.000
 3423.00    0.44900   0.53058   -1.000
 3424.00    0.44229   0.52702   -1.000
 3425.00    0.46070   0.52814   -1.000
 3426.00    0.45779   0.53201   -1.000
 3427.00    0.45302   0.53958   -1.000
 3428.00    0.47060   0.55409   -1.000
 3429.00    0.47787   0.56860   -1.000
 3430.00    0.48535   0.57172   -1.000
 3431.00    0.49069   0.56097   -1.000
 3432.00    0.47530   0.54395   -1.000
 3433.00    0.46647   0.53220   -1.000
 3434.00    0.46349   0.53127   -1.000
 3435.00    0.47769   0.53765   -1.000
 3436.00    0.48460   0.54120   -1.000
 3437.00    0.44981   0.53601   -1.000
 3438.00    0.46167   0.52021   -1.000
 3439.00    0.45303   0.49551   -1.000
 3440.00    0.40858   0.46673   -1.000
 3441.00    0.42168   0.44491   89.430
 3442.00    0.42073   0.43912   89.961
 3443.00    0.39693   0.44697   -1.000
 3444.00    0.40283   0.46013   -1.000
 3445.00    0.43742   0.47354   81.808
 3446.00    0.44180   0.48939   -1.000
 3447.00    0.47312   0.50982   74.423
 3448.00    0.46362   0.53173   -1.000
 3449.00    0.46173   0.54716   -1.000
 3450.00    0.48795   0.54817   -1.000
 3451.00    0.49147   0.53616   -1.000
 3452.00    0.49351   0.51985   -1.000
 3453.00    0.49562   0.51109   -1.000
 3454.00    0.48778   0.51407   -1.000
 3455.00    0.48665   0.52197   -1.000
 3456.00    0.48944   0.52507   -1.000
 3457.00    0.49570   0.51687   -1.000
 3458.00    0.48874   0.50212   -1.000
 3459.00    0.47210   0.48859   81.200
 3460.00    0.47596   0.47896   73.116
 3461.00    0.47010   0.47846   72.795
 3462.00    0.48418   0.49206  339.667
 3463.00    0.49595   0.51103   -1.000
 3464.00    0.51369   0.52068   -1.000
 3465.00    0.51129   0.52072   -1.000
 3466.00    0.50929   0.51887   -1.000
 3467.00    0.51008   0.52269   -1.000
 3468.00    0.53581   0.53204  586.018
 3469.00    0.53982   0.54175  586.018
 3470.00    0.53791   0.54612   -1.000
 3471.00    0.54199   0.54147  586.018
 3472.00    0.52422   0.52853   -1.000
 3473.00    0.50919   0.51011  586.018
 3474.00    0.51650   0.48854   -1.000
 3475.00    0.48754   0.47167   81.926
 3476.00    0.46660   0.46914   75.268
 3477.00    0.47705   0.48077   74.118
 3478.00    0.48706   0.49848   -1.000
 3479.00    0.49441   0.51436   -1.000
 3480.00    0.51628   0.52383   -1.000
 3481.00    0.53270   0.52527   -1.000
 3482.00    0.53447   0.51912   -1.000
 3483.00    0.53442   0.51068   -1.000
 3484.00    0.53873   0.50919   -1.000
 3485.00    0.52291   0.51987  586.018
 3486.00    0.53921   0.53741  586.018
 3487.00    0.55740   0.54676   -1.000
 3488.00    0.54956   0.53930   -1.000
 3489.00    0.55489   0.51971   -1.000
 3490.00    0.52021   0.50174   -1.000
 3491.00    0.51048   0.49663   -1.000
 3492.00    0.50898   0.50228   -1.000
 3493.00    0.50719   0.50932  586.018
 3494.00    0.49935   0.50988   -1.000
 3495.00    0.50477   0.50296  586.018
 3496.00    0.49568   0.49584  586.018
 3497.00    0.49681   0.50012  586.018
 3498.00    0.51873   0.51857  586.018
 3499.00    0.54550   0.53735   -1.000
 3500.00    0.54237   0.54558  580.915
 3501.00    0.55911   0.54855   -1.000
 3502.00    0.55023   0.55328  564.475
 3503.00    0.55883   0.55823  560.074
 3504.00    0.55427   0.55607  573.822
 3505.00    0.54879   0.54688  582.115
 3506.00    0.55373   0.53907   -1.000
 3507.00    0.54373   0.53704   -1.000
 3508.00    0.54960   0.53728   -1.000
 3509.00    0.56021   0.53332   -1.000
 3510.00    0.55430   0.52481   -1.000
 3511.00    0.55669   0.51597   -1.000
 3512.00    0.54494   0.50789   -1.000
 3513.00    0.54141   0.49917   -1.000
 3514.00    0.52414   0.49719   -1.000
 3515.00    0.52748   0.50946   -1.000
 3516.00    0.55806   0.53297   -1.000
 3517.00    0.56396   0.55579   -1.000
 3518.00    0.58000   0.56520   -1.000
 3519.00    0.58754   0.55812   -1.000
 3520.00    0.54974   0.53949   -1.000
 3521.00    0.53136   0.51934   -1.000
 3522.00    0.52252   0.50346   -1.000
 3523.00    0.51725   0.48877   -1.000
 3524.00    0.50830   0.47584   81.376
 3525.00    0.45560   0.46997   74.505
 3526.00    0.47087   0.47742   74.385
 3527.00    0.49960   0.49874  339.583
 3528.00    0.51298   0.52495   -1.000
 3529.00    0.54232   0.54438  586.018
 3530.00    0.55134   0.55173  586.018
 3531.00    0.56259   0.55057   -1.000
 3532.00    0.55037   0.54926  586.018
 3533.00    0.54609   0.55293   -1.000
 3534.00    0.55630   0.55993  586.018
 3535.00    0.54934   0.56545   -1.000
 3536.00    0.55581   0.56788   -1.000
 3537.00    0.56565   0.57115   -1.000
 3538.00    0.57207   0.57835   -1.000
 3539.00    0.58751   0.58497  568.078
 3540.00    0.58697   0.58418  571.630
 3541.00    0.57043   0.57859   -1.000
 3542.00    0.55731   0.57741   -1.000
 3543.00    0.56898   0.58232   -1.000
 3544.00    0.56828   0.58886   -1.000
 3545.00    0.55250   0.59086   -1.000
 3546.00    0.55519   0.58730   -1.000
 3547.00    0.53694   0.58323   -1.000
 3548.00    0.53346   0.58221   -1.000
 3549.00    0.55533   0.58408   -1.000
 3550.00    0.55890   0.58562   -1.000
 3551.00    0.56440   0.58349   -1.000
 3552.00    0.52829   0.57588   -1.000
 3553.00    0.53216   0.56649   -1.000
 3554.00    0.51590   0.56102   -1.000
 3555.00    0.52328   0.56155   -1.000
 3556.00    0.52126   0.56488   -1.000
 3557.00    0.54814   0.56520   -1.000
 3558.00    0.53153   0.56148   -1.000
 3559.00    0.53593   0.55857   -1.000
 3560.00    0.52122   0.56222   -1.000
 3561.00    0.53574   0.57333   -1.000
 3562.00    0.54125   0.58284   -1.000
 3563.00    0.53962   0.57641   -1.000
 3564.00    0.52889   0.54737   -1.000
 3565.00    0.47643   0.51390   82.264
 3566.00    0.46320   0.49715   75.568
 3567.00    0.47285   0.49535   75.157
 3568.00    0.48027   0.49462   74.682
 3569.00    0.47590   0.48454   76.886
 3570.00    0.46558   0.47236   78.450
 3571.00    0.45698   0.47202   76.430
 3572.00    0.47357   0.48298   73.114
 3573.00    0.49881   0.49569  333.763
 3574.00    0.50242   0.50374  586.018
 3575.00    0.52356   0.50761   -1.000
 3576.00    0.50572   0.51032  586.018
 3577.00    0.50458   0.50943  586.018
 3578.00    0.51450   0.50013   -1.000
 3579.00    0.48639   0.48113   85.102
 3580.00    0.44890   0.45952   80.633
 3581.00    0.44376   0.44515   85.309
 3582.00    0.44389   0.44296   86.345
 3583.00    0.43396   0.44811   86.719
 3584.00    0.43322   0.44785   88.697
 3585.00    0.42474   0.43947   91.552
 3586.00    0.40579   0.43320   93.051
 3587.00    0.40355   0.43676   89.011
 3588.00    0.43379   0.45170   84.281
 3589.00    0.45061   0.47494   80.161
 3590.00    0.47643   0.50144   73.334
 3591.00    0.51509   0.52323  325.974
 3592.00    0.52548   0.53401   -1.000
 3593.00    0.52423   0.53663   -1.000
 3594.00    0.52539   0.54040   -1.000
 3595.00    0.55345   0.55187  586.018
 3596.00    0.57377   0.56691   -1.000
 3597.00    0.56972   0.57977   -1.000
 3598.00    0.57743   0.59024   -1.000
 3599.00    0.58675   0.59690   -1.000
 3600.00    0.59339   0.59481  547.538
 3601.00    0.57530   0.58007   -1.000
 3602.00    0.56117   0.55681  586.018
 3603.00    0.57106   0.53456   -1.000
 3604.00    0.55298   0.52202   -1.000
 3605.00    0.53165   0.52070   -1.000
 3606.00    0.53457   0.52219   -1.000
 3607.00    0.53427   0.51774   -1.000
 3608.00    0.52139   0.50701   -1.000
 3609.00    0.50294   0.49956  586.018
 3610.00    0.49663   0.50518   -1.000
 3611.00    0.51216   0.51854   -1.000
 3612.00    0.52783   0.52981  586.018
 3613.00    0.52886   0.53865   -1.000
 3614.00    0.53799   0.54865   -1.000
 3615.00    0.55344   0.55848   -1.000
 3616.00    0.57548   0.55585   -1.000
 3617.00    0.54494   0.53119   -1.000
 3618.00    0.51568   0.50219   -1.000
 3619.00    0.48966   0.49318   81.266
 3620.00    0.49737   0.50815   -1.000
 3621.00    0.54310   0.53510   -1.000
 3622.00    0.57277   0.55942   -1.000
 3623.00    0.57064   0.57489  568.394
 3624.00    0.56160   0.58744   -1.000
 3625.00    0.58184   0.60589   -1.000
 3626.00    0.60383   0.62774   -1.000
 3627.00    0.62043   0.64306   -1.000
 3628.00    0.60130   0.63905   -1.000
 3629.00    0.58773   0.60843   -1.000
 3630.00    0.54609   0.56381   -1.000
 3631.00    0.52811   0.52860  586.018
 3632.00    0.50823   0.51791   -1.000
 3633.00    0.50515   0.52835   -1.000
 3634.00    0.51267   0.54533   -1.000
 3635.00    0.54818   0.55738   -1.000
 3636.00    0.56657   0.56434  586.018
 3637.00    0.56794   0.57567   -1.000
 3638.00    0.59759   0.59350  543.106
 3639.00    0.60772   0.61130   -1.000
 3640.00    0.61657   0.61949  521.644
 3641.00    0.60285   0.61322   -1.000
 3642.00    0.58794   0.59599   -1.000
 3643.00    0.56498   0.57552   -1.000
 3644.00    0.54761   0.55955   -1.000
 3645.00    0.54816   0.54970  586.018
 3646.00    0.54399   0.54125  586.018
 3647.00    0.54019   0.53427   -1.000
 3648.00    0.53653   0.53326  586.018
 3649.00    0.53324   0.54050   -1.000
 3650.00    0.54568   0.55575   -1.000
 3651.00    0.57657   0.57678  564.035
 3652.00    0.59878   0.59813  539.933
 3653.00    0.58456   0.61422   -1.000
 3654.00    0.60109   0.62331   -1.000
 3655.00    0.61502   0.62890   -1.000
 3656.00    0.61438   0.63694   -1.000
 3657.00    0.62136   0.64666   -1.000
 3658.00    0.64206   0.65331   -1.000
 3659.00    0.62906   0.65560   -1.000
 3660.00    0.62587   0.65355   -1.000
 3661.00    0.62470   0.64667   -1.000
 3662.00    0.63795   0.63648  506.074
 3663.00    0.62306   0.62695   -1.000
 3664.00    0.61258   0.62225   -1.000
 3665.00    0.61492   0.62270   -1.000
 3666.00    0.63023   0.62364  513.275
 3667.00    0.62886   0.61939   -1.000
 3668.00    0.61174   0.60903  529.357
 3669.00    0.60115   0.60195  541.686
 3670.00    0.60235   0.60676   -1.000
 3671.00    0.61104   0.62113   -1.000
 3672.00    0.61098   0.63508   -1.000
 3673.00    0.62624   0.64071   -1.000
 3674.00    0.64862   0.63786   -1.000
 3675.00    0.62534   0.62770  508.013
 3676.00    0.60795   0.61207   -1.000
 3677.00    0.62539   0.59443   -1.000
 3678.00    0.60366   0.57869   -1.000
 3679.00    0.57681   0.56994   -1.000
 3680.00    0.56827   0.57040  569.543
 3681.00    0.60572   0.57900   -1.000
 3682.00    0.62414   0.59065   -1.000
 3683.00    0.61193   0.59808   -1.000
 3684.00    0.60183   0.59464   -1.000
 3685.00    0.58866   0.57742   -1.000
 3686.00    0.57434   0.55660   -1.000
 3687.00    0.54507   0.54832  586.018
 3688.00    0.56077   0.56049  586.018
 3689.00    0.59112   0.58786  551.207
 3690.00    0.62444   0.61708   -1.000
 3691.00    0.62636   0.63452   -1.000
 3692.00    0.63393   0.63700  498.664
 3693.00    0.63074   0.63224  511.472
 3694.00    0.62909   0.62666  519.327
 3695.00    0.61470   0.62176   -1.000
 3696.00    0.63731   0.61937   -1.000
 3697.00    0.63528   0.62567   -1.000
 3698.00    0.63313   0.64362   -1.000
 3699.00    0.66535   0.66634  479.082
 3700.00    0.68641   0.68006  472.047
 3701.00    0.68306   0.67237   -1.000
 3702.00    0.65646   0.63938   -1.000
 3703.00    0.61675   0.59194   -1.000
 3704.00    0.56744   0.54820   -1.000
 3705.00    0.54109   0.52403   -1.000
 3706.00    0.55113   0.52412   -1.000
 3707.00    0.57187   0.53741   -1.000
 3708.00    0.57004   0.55133   -1.000
 3709.00    0.57555   0.56069   -1.000
 3710.00    0.58267   0.56834   -1.000
 3711.00    0.58874   0.58135   -1.000
 3712.00    0.61638   0.60498   -1.000
 3713.00    0.64818   0.63493   -1.000
 3714.00    0.67752   0.66160   -1.000
 3715.00    0.69724   0.67686   -1.000
 3716.00    0.69526   0.67530   -1.000
 3717.00    0.68021   0.65599   -1.000
 3718.00    0.64312   0.61736   -1.000
 3719.00    0.58469   0.55976   -1.000
 3720.00    0.52791   0.50354   -1.000
 3721.00    0.49632   0.47493   83.209
 3722.00    0.49892   0.48253   -1.000
 3723.00    0.55336   0.52099   -1.000
 3724.00    0.61967   0.57347   -1.000
 3725.00    0.65111   0.61320   -1.000
 3726.00    0.65386   0.62648   -1.000
 3727.00    0.63605   0.62754   -1.000
 3728.00    0.62988   0.63153  546.835
 3729.00    0.63836   0.63652  539.238
 3730.00    0.63765   0.62980   -1.000
 3731.00    0.60627   0.59897   -1.000
 3732.00    0.57342   0.54673   -1.000
 3733.00    0.52129   0.48906   81.575
 3734.00    0.47759   0.44303   79.451
 3735.00    0.45659   0.42485   83.292
 3736.00    0.46295   0.44090   79.981
 3737.00    0.50439   0.48448   72.832
 3738.00    0.56618   0.54400   -1.000
 3739.00    0.60638   0.60332  579.268
 3740.00    0.64172   0.64292  542.868
 3741.00    0.66761   0.65463   -1.000
 3742.00    0.64167   0.64247  554.845
 3743.00    0.59751   0.61552   -1.000
 3744.00    0.59369   0.58551   -1.000
 3745.00    0.57918   0.55879   -1.000
 3746.00    0.55782   0.53187   -1.000
 3747.00    0.51595   0.49980   82.890
 3748.00    0.48702   0.46355   77.092
 3749.00    0.45700   0.44065   78.454
 3750.00    0.48947   0.45185   -1.000
 3751.00    0.53586   0.49644   -1.000
 3752.00    0.60389   0.55650   -1.000
 3753.00    0.64349   0.61564   -1.000
 3754.00    0.68386   0.66134   -1.000
 3755.00    0.70496   0.68158   -1.000
 3756.00    0.68397   0.66988   -1.000
 3757.00    0.63891   0.63381   -1.000
 3758.00    0.59619   0.59667  586.018
 3759.00    0.59040   0.58070   -1.000
 3760.00    0.60135   0.58798   -1.000
 3761.00    0.63392   0.60359   -1.000
 3762.00    0.65620   0.61663   -1.000
 3763.00    0.65829   0.62472   -1.000
 3764.00    0.65414   0.62647   -1.000
 3765.00    0.64443   0.61945   -1.000
 3766.00    0.63726   0.60486   -1.000
 3767.00    0.62472   0.58738   -1.000
 3768.00    0.60752   0.56903   -1.000
 3769.00    0.59483   0.55119   -1.000
 3770.00    0.59072   0.54006   -1.000
 3771.00    0.60338   0.54763   -1.000
 3772.00    0.62917   0.57772   -1.000
 3773.00    0.65398   0.61477   -1.000
 3774.00    0.67934   0.64239   -1.000
 3775.00    0.67427   0.66073   -1.000
 3776.00    0.69092   0.67578   -1.000
 3777.00    0.70973   0.69244   -1.000
 3778.00    0.71660   0.71181  489.748
 3779.00    0.73959   0.73102   -1.000
 3780.00    0.76375   0.74732   -1.000
 3781.00    0.77439   0.75823   -1.000
 3782.00    0.76155   0.76392  455.851
 3783.00    0.76087   0.76388  455.767
 3784.00    0.76820   0.75342   -1.000
 3785.00    0.74647   0.72903   -1.000
 3786.00    0.71791   0.69685   -1.000
 3787.00    0.67303   0.66827  551.957
 3788.00    0.65615   0.65138  564.184
 3789.00    0.65367   0.64704   -1.000
 3790.00    0.65825   0.65014   -1.000
 3791.00    0.66531   0.65205   -1.000
 3792.00    0.66510   0.64345   -1.000
 3793.00    0.64715   0.62228   -1.000
 3794.00    0.61848   0.59269   -1.000
 3795.00    0.59752   0.55954   -1.000
 3796.00    0.56897   0.52476   -1.000
 3797.00    0.54443   0.49015   -1.000
 3798.00    0.51958   0.47310   -1.000
 3799.00    0.54054   0.49293   -1.000
 3800.00    0.58069   0.54381   -1.000
 3801.00    0.62737   0.60503   -1.000
 3802.00    0.67172   0.65804   -1.000
 3803.00    0.70248   0.69225   -1.000
 3804.00    0.71551   0.70715   -1.000
 3805.00    0.71342   0.70483   -1.000
 3806.00    0.69518   0.69339  532.178
 3807.00    0.67397   0.69063   -1.000
 3808.00    0.67627   0.70537   -1.000
 3809.00    0.71593   0.72902   -1.000
 3810.00    0.73968   0.74477   -1.000
 3811.00    0.73797   0.73964  512.968
 3812.00    0.70294   0.71332   -1.000
 3813.00    0.67361   0.67578  571.935
 3814.00    0.64870   0.64197   -1.000
 3815.00    0.63008   0.62619  586.018
 3816.00    0.63964   0.63148   -1.000
 3817.00    0.65484   0.64289   -1.000
 3818.00    0.65453   0.64134   -1.000
 3819.00    0.62682   0.62180   -1.000
 3820.00    0.60175   0.59990  586.018
 3821.00    0.59773   0.59637  586.018
 3822.00    0.62083   0.60727   -1.000
 3823.00    0.63220   0.60943   -1.000
 3824.00    0.59917   0.59238   -1.000
 3825.00    0.56936   0.56732   85.933
 3826.00    0.54650   0.54971   76.851
 3827.00    0.54779   0.54403   76.452
 3828.00    0.55926   0.54505   75.273
 3829.00    0.55789   0.54450   74.034
 3830.00    0.55093   0.53589   74.710
 3831.00    0.51742   0.51489   77.845
 3832.00    0.47897   0.48309   83.800
 3833.00    0.46730   0.44736   86.875
 3834.00    0.45742   0.42004   -1.000
 3835.00    0.45334   0.41137   -1.000
 3836.00    0.46913   0.41955   -1.000
 3837.00    0.47339   0.43562   -1.000
 3838.00    0.47133   0.45341   83.655
 3839.00    0.49723   0.47517   82.563
 3840.00    0.52322   0.50797   78.174
 3841.00    0.55528   0.55220  334.340
 3842.00    0.59757   0.59973  586.018
 3843.00    0.64279   0.64055  586.018
 3844.00    0.66514   0.66678  586.018
 3845.00    0.66927   0.68121   -1.000
 3846.00    0.68051   0.69153   -1.000
 3847.00    0.68249   0.69925   -1.000
 3848.00    0.67497   0.69901   -1.000
 3849.00    0.66408   0.69249   -1.000
 3850.00    0.65681   0.68931   -1.000
 3851.00    0.65599   0.69537   -1.000
 3852.00    0.66821   0.70639   -1.000
 3853.00    0.67225   0.71016   -1.000
 3854.00    0.66943   0.70057   -1.000
 3855.00    0.65124   0.68442   -1.000
 3856.00    0.65475   0.66813   -1.000
 3857.00    0.65440   0.65130  586.018
 3858.00    0.62124   0.63376   81.470
 3859.00    0.59702   0.62270   75.376
 3860.00    0.59512   0.62977   74.446
 3861.00    0.62866   0.65555   -1.000
 3862.00    0.67005   0.68720   -1.000
 3863.00    0.70077   0.70683   -1.000
 3864.00    0.68760   0.70986   -1.000
 3865.00    0.68008   0.70585   -1.000
 3866.00    0.68719   0.70248   -1.000
 3867.00    0.69366   0.70261   -1.000
 3868.00    0.67868   0.70282   -1.000
 3869.00    0.66744   0.69510   -1.000
 3870.00    0.64573   0.67632   -1.000
 3871.00    0.60677   0.65251   -1.000
 3872.00    0.59688   0.63769   -1.000
 3873.00    0.63055   0.64362   -1.000
 3874.00    0.65735   0.66959   -1.000
 3875.00    0.68185   0.69373   -1.000
 3876.00    0.68905   0.69346  572.317
 3877.00    0.65986   0.67195   -1.000
 3878.00    0.62287   0.65048   -1.000
 3879.00    0.61127   0.64341   -1.000
 3880.00    0.61486   0.64641   -1.000
 3881.00    0.60298   0.64757   -1.000
 3882.00    0.59537   0.64346   -1.000
 3883.00    0.62746   0.63715   -1.000
 3884.00    0.65135   0.62453   -1.000
 3885.00    0.63993   0.59633   -1.000
 3886.00    0.61788   0.55262   -1.000
 3887.00    0.58929   0.50985   -1.000
 3888.00    0.55693   0.48620   -1.000
 3889.00    0.55548   0.49262   -1.000
 3890.00    0.59951   0.52964   -1.000
 3891.00    0.65502   0.58422   -1.000
 3892.00    0.69790   0.63194   -1.000
 3893.00    0.71029   0.65733   -1.000
 3894.00    0.70452   0.66709   -1.000
 3895.00    0.71427   0.67573   -1.000
 3896.00    0.73097   0.69018   -1.000
 3897.00    0.74257   0.70395   -1.000
 3898.00    0.73782   0.70923   -1.000
 3899.00    0.72884   0.70999   -1.000
 3900.00    0.72963   0.71480   -1.000
 3901.00    0.73968   0.72345   -1.000
 3902.00    0.73608   0.72761   -1.000
 3903.00    0.73040   0.72119   -1.000
 3904.00    0.72036   0.70821   -1.000
 3905.00    0.72259   0.69966   -1.000
 3906.00    0.72180   0.70480   -1.000
 3907.00    0.72926   0.72706  494.074
 3908.00    0.77022   0.75959   -1.000
 3909.00    0.80255   0.78672   -1.000
 3910.00    0.81343   0.80186   -1.000
 3911.00    0.82258   0.80900   -1.000
 3912.00    0.82461   0.80894   -1.000
 3913.00    0.82279   0.80168   -1.000
 3914.00    0.81402   0.79167   -1.000
 3915.00    0.80534   0.78295   -1.000
 3916.00    0.78998   0.77636   -1.000
 3917.00    0.77619   0.76864   -1.000
 3918.00    0.77726   0.75533   -1.000
 3919.00    0.74330   0.73645   -1.000
 3920.00    0.72095   0.71747  529.989
 3921.00    0.70847   0.70695  542.607
 3922.00    0.71128   0.70824  539.491
 3923.00    0.73154   0.71478   -1.000
 3924.00    0.71898   0.71555  532.552
 3925.00    0.70173   0.70282  556.644
 3926.00    0.67786   0.67501  586.018
 3927.00    0.61673   0.63429   -1.000
 3928.00    0.55406   0.58675   91.181
 3929.00    0.49664   0.53797   -1.000
 3930.00    0.44333   0.48723   -1.000
 3931.00    0.39034   0.43532   -1.000
 3932.00    0.33427   0.38547   -1.000
 3933.00    0.28519   0.35050   -1.000
 3934.00    0.28136   0.34910   -1.000
 3935.00    0.31182   0.38333   -1.000
 3936.00    0.37354   0.43751   -1.000
 3937.00    0.44328   0.49817   -1.000
 3938.00    0.51281   0.55628   -1.000
 3939.00    0.56812   0.60607   -1.000
 3940.00    0.61189   0.64465   -1.000
 3941.00    0.64150   0.66756   -1.000
 3942.00    0.65697   0.67591   -1.000
 3943.00    0.65542   0.67792   -1.000
 3944.00    0.67711   0.68432   -1.000
 3945.00    0.71748   0.70125   -1.000
 3946.00    0.74419   0.72242   -1.000
 3947.00    0.75376   0.73722   -1.000
 3948.00    0.75573   0.74609   -1.000
 3949.00    0.76044   0.75594  472.720
 3950.00    0.77741   0.76547   -1.000
 3951.00    0.78241   0.76916   -1.000
 3952.00    0.78183   0.77017   -1.000
 3953.00    0.78342   0.77531   -1.000
 3954.00    0.81539   0.78186   -1.000
 3955.00    0.80718   0.77952   -1.000
 3956.00    0.78792   0.76803   -1.000
 3957.00    0.75524   0.75932  472.581
 3958.00    0.76669   0.75614   -1.000
 3959.00    0.77021   0.74469   -1.000
 3960.00    0.73753   0.71288   -1.000
 3961.00    0.66872   0.66589  586.018
 3962.00    0.62002   0.62165  586.018
 3963.00    0.58333   0.58771  586.018
 3964.00    0.55417   0.55370   85.984
 3965.00    0.49331   0.50603   86.175
 3966.00    0.41847   0.43880  105.571
 3967.00    0.33007   0.36733   -1.000
 3968.00    0.27945   0.31674   -1.000
 3969.00    0.27562   0.30274   -1.000
 3970.00    0.31074   0.32777  115.018
 3971.00    0.38767   0.38291   94.502
 3972.00    0.47105   0.45155   78.899
 3973.00    0.54678   0.52167   -1.000
 3974.00    0.60399   0.58779   -1.000
 3975.00    0.66541   0.64578   -1.000
 3976.00    0.71684   0.69560   -1.000
 3977.00    0.74831   0.73793   -1.000
 3978.00    0.78990   0.77590   -1.000
 3979.00    0.82950   0.80731   -1.000
 3980.00    0.85742   0.82468   -1.000
 3981.00    0.85750   0.82699   -1.000
 3982.00    0.85212   0.82251   -1.000
 3983.00    0.84423   0.82338   -1.000
 3984.00    0.85602   0.83361   -1.000
 3985.00    0.86966   0.84683   -1.000
 3986.00    0.89437   0.85869   -1.000
 3987.00    0.90410   0.87023   -1.000
 3988.00    0.90046   0.88171   -1.000
 3989.00    0.89779   0.89046  382.343
 3990.00    0.91690   0.89689   -1.000
 3991.00    0.92934   0.90538   -1.000
 3992.00    0.93571   0.91619   -1.000
 3993.00    0.93500   0.92236   -1.000
 3994.00    0.93815   0.91759   -1.000
 3995.00    0.92403   0.90279   -1.000
 3996.00    0.91066   0.88611   -1.000
 3997.00    0.89937   0.87847   -1.000
 3998.00    0.90098   0.88562   -1.000
 3999.00    0.93694   0.90361   -1.000
 4000.00    0.96881   0.92484   -1.000
 4001.00    0.98186   0.94097   -1.000
 4002.00    0.98139   0.94445   -1.000
 4003.00    0.98045   0.93091   -1.000
 4004.00    0.95729   0.90251   -1.000
 4005.00    0.91232   0.87346   -1.000
 4006.00    0.89801   0.86712   -1.000
 4007.00    0.93837   0.88878   -1.000
 4008.00    0.96134   0.92029   -1.000
 4009.00    0.98058   0.94389   -1.000
 4010.00    0.99730   0.95537   -1.000
 4011.00    1.01003   0.95935   -1.000
 4012.00    0.98860   0.96100   -1.000
 4013.00    0.97542   0.96390   -1.000
 4014.00    1.01099   0.96819   -1.000
 4015.00    1.01275   0.97078   -1.000
 4016.00    1.00000   0.97078   -1.000
 4017.00    0.99208   0.97124   -1.000
 4018.00    0.99136   0.97639   -1.000
 4019.00    0.99888   0.98436   -1.000
 4020.00    0.99456   0.98944  342.919
 4021.00    0.99500   0.98794  347.523
 4022.00    1.00425   0.98142   -1.000
 4023.00    1.00362   0.97200   -1.000
 4024.00    0.98871   0.96293   -1.000
 4025.00    0.98396   0.96282   -1.000
 4026.00    1.01166   0.97660   -1.000
 4027.00    1.04866   0.99487   -1.000
 4028.00    1.04625   0.99762   -1.000
 4029.00    1.00602   0.97537   -1.000
 4030.00    0.96650   0.93856   -1.000
 4031.00    0.93111   0.90442   -1.000
 4032.00    0.92786   0.88636   -1.000
 4033.00    0.94007   0.88745   -1.000
 4034.00    0.94693   0.90556   -1.000
 4035.00    0.96948   0.93730   -1.000
 4036.00    1.01011   0.97787   -1.000
 4037.00    1.05205   1.01622   -1.000
 4038.00    1.07425   1.03648   -1.000
 4039.00    1.05410   1.03328   -1.000
 4040.00    1.02145   1.02017  335.368
 4041.00    1.01081   1.00956  339.543
 4042.00    1.02101   0.99589   -1.000
 4043.00    1.00215   0.96413   -1.000
 4044.00    0.93248   0.91184   -1.000
 4045.00    0.87364   0.86886  420.433
 4046.00    0.87817   0.86641   -1.000
 4047.00    0.94266   0.90370   -1.000
 4048.00    1.00715   0.95613   -1.000
 4049.00    1.02184   0.99757   -1.000
 4050.00    1.03822   1.01773   -1.000
 4051.00    1.04355   1.01928   -1.000
 4052.00    1.02924   1.00740   -1.000
 4053.00    1.01299   0.98889   -1.000
 4054.00    0.99383   0.97409   -1.000
 4055.00    0.98132   0.96576   -1.000
 4056.00    0.98229   0.95889   -1.000
 4057.00    0.98190   0.95484   -1.000
 4058.00    0.98879   0.96050   -1.000
 4059.00    1.01494   0.97651   -1.000
 4060.00    1.02624   0.98814   -1.000
 4061.00    1.02676   0.97583   -1.000
 4062.00    0.98501   0.94112   -1.000
 4063.00    0.92772   0.90411   -1.000
 4064.00    0.92278   0.88566   -1.000
 4065.00    0.95180   0.89074   -1.000
 4066.00    0.96571   0.91012   -1.000
 4067.00    0.97500   0.93403   -1.000
 4068.00    1.00631   0.95596   -1.000
 4069.00    1.03978   0.96441   -1.000
 4070.00    1.01717   0.95090   -1.000
 4071.00    0.98109   0.92775   -1.000
 4072.00    0.98115   0.91817   -1.000
 4073.00    0.99287   0.92883   -1.000
 4074.00    0.99548   0.93926   -1.000
 4075.00    0.96671   0.92768   -1.000
 4076.00    0.89625   0.89871  394.958
 4077.00    0.86067   0.87567   -1.000
 4078.00    0.87273   0.87969   -1.000
 4079.00    0.92089   0.91280  372.920
 4080.00    0.98867   0.95752   -1.000
 4081.00    1.02241   0.98768   -1.000
 4082.00    1.01717   0.99065   -1.000
 4083.00    0.99552   0.97488   -1.000
 4084.00    0.97744   0.95980   -1.000
 4085.00    0.97236   0.96134   -1.000
 4086.00    1.00740   0.98084   -1.000
 4087.00    1.04026   1.00867   -1.000
 4088.00    1.07260   1.03017   -1.000
 4089.00    1.08104   1.03552   -1.000
 4090.00    1.07045   1.02570   -1.000
 4091.00    1.04869   1.01123   -1.000
 4092.00    1.03520   1.00019   -1.000
 4093.00    1.03610   0.98937   -1.000
 4094.00    1.02145   0.97191   -1.000
 4095.00    0.98374   0.94450   -1.000
 4096.00    0.95161   0.91248   -1.000
 4097.00    0.93519   0.88126   -1.000
 4098.00    0.91644   0.84606   -1.000
 4099.00    0.88168   0.79768   -1.000
 4100.00    0.81823   0.73729   -1.000
 4101.00    0.74485   0.68880   -1.000
 4102.00    0.73719   0.68108   -1.000
 4103.00    0.79039   0.72128   -1.000
 4104.00    0.86172   0.79086   -1.000
 4105.00    0.93020   0.85800   -1.000
 4106.00    0.96678   0.90368   -1.000
 4107.00    0.97930   0.92960   -1.000
 4108.00    0.97519   0.94084   -1.000
 4109.00    0.96239   0.94343   -1.000
 4110.00    0.96515   0.94640   -1.000
 4111.00    0.96177   0.95480  362.554
 4112.00    0.97549   0.96868  354.690
 4113.00    0.99579   0.98627  348.354
 4114.00    1.01031   1.00571  342.931
 4115.00    1.03613   1.02064   -1.000
 4116.00    1.04216   1.02406   -1.000
 4117.00    1.01915   1.01499  347.135
 4118.00    0.98661   1.00017   -1.000
 4119.00    0.98142   0.98917   -1.000
 4120.00    0.99862   0.98726   -1.000
 4121.00    0.98770   0.99151  356.169
 4122.00    0.97590   0.99640   -1.000
 4123.00    0.99619   1.00252  352.745
 4124.00    1.01709   1.01201  346.712
 4125.00    1.03669   1.01991   -1.000
 4126.00    1.03046   1.01777   -1.000
 4127.00    1.01597   1.00616   -1.000
 4128.00    1.00176   0.99417  359.769
 4129.00    1.00023   0.98684   -1.000
 4130.00    1.00481   0.97776   -1.000
 4131.00    0.98207   0.96075   -1.000
 4132.00    0.95327   0.94326   -1.000
 4133.00    0.93608   0.94028  391.074
 4134.00    0.95173   0.95901  379.679
 4135.00    0.98876   0.99165  361.091
 4136.00    1.03336   1.02541  348.552
 4137.00    1.05321   1.05089  342.301
 4138.00    1.06459   1.06729  336.952
 4139.00    1.06155   1.07425   -1.000
 4140.00    1.05012   1.06415   -1.000
 4141.00    1.02501   1.03179  357.894
 4142.00    0.97114   0.98739   -1.000
 4143.00    0.92123   0.95198   -1.000
 4144.00    0.92109   0.94722   -1.000
 4145.00    0.97651   0.97392  375.001
 4146.00    1.01509   1.00777  359.979
 4147.00    1.03845   1.02678   -1.000
 4148.00    1.03128   1.02785  360.764
 4149.00    1.00313   1.02300   -1.000
 4150.00    0.99935   1.02251   -1.000
 4151.00    1.00599   1.02425   -1.000
 4152.00    0.99748   1.02092   -1.000
 4153.00    0.98891   1.01011   -1.000
 4154.00    0.98766   0.99828   -1.000
 4155.00    0.98872   0.99471  372.756
 4156.00    0.97761   1.00251   -1.000
 4157.00    1.14974   1.01808   -1.000
 4158.00    1.28567   1.03705   -1.000
 4159.00    0.97691   1.05444   -1.000
 4160.00    0.83066   1.06645   -1.000
 4161.00    1.01711   1.07463   -1.000
 4162.00    1.07921   1.08210  343.716
 4163.00    1.06615   1.08792   -1.000
 4164.00    1.06429   1.08814   -1.000
 4165.00    1.04673   1.07938   -1.000
 4166.00    1.03346   1.06402   -1.000
 4167.00    1.02200   1.05086   -1.000
 4168.00    1.01609   1.04658   -1.000
 4169.00    1.03294   1.04502   -1.000
 4170.00    1.03312   1.03077  364.107
 4171.00    0.99820   0.99949  383.852
 4172.00    0.94205   0.96449   -1.000
 4173.00    0.91242   0.94830   -1.000
 4174.00    0.92585   0.95965   -1.000
 4175.00    0.96806   0.98375   -1.000
 4176.00    0.97988   1.00077   -1.000
 4177.00    0.97887   1.00773   -1.000
 4178.00    0.96903   1.01508   -1.000
 4179.00    0.99018   1.02706   -1.000
 4180.00    1.00629   1.03513   -1.000
 4181.00    0.99567   1.03335   -1.000
 4182.00    1.00024   1.02909   -1.000
 4183.00    1.00738   1.03316   -1.000
 4184.00    1.01478   1.04329   -1.000
 4185.00    1.02334   1.04561   -1.000
 4186.00    1.02051   1.03440   -1.000
 4187.00    1.00668   1.01973   -1.000
 4188.00    0.99765   1.01542   -1.000
 4189.00    1.00659   1.02351   -1.000
 4190.00    1.02436   1.03557   -1.000
 4191.00    1.02938   1.04807   -1.000
 4192.00    1.03558   1.06194   -1.000
 4193.00    1.06451   1.07120  347.425
 4194.00    1.05957   1.06573  355.917
 4195.00    1.01681   1.04333   -1.000
 4196.00    0.98185   1.01252   -1.000
 4197.00    0.96727   0.98529   -1.000
 4198.00    0.96009   0.96735  396.188
 4199.00    0.96662   0.95879  392.377
 4200.00    0.97477   0.95904   -1.000
 4201.00    0.97278   0.96539  384.610
 4202.00    0.98412   0.97569  382.315
 4203.00    1.00006   0.99183  376.642
 4204.00    1.00260   1.01411   -1.000
 4205.00    1.01358   1.03867   -1.000
 4206.00    1.03581   1.06178   -1.000
 4207.00    1.05821   1.07933   -1.000
 4208.00    1.06357   1.08708   -1.000
 4209.00    1.05135   1.08614   -1.000
 4210.00    1.04901   1.08414   -1.000
 4211.00    1.05455   1.08759   -1.000
 4212.00    1.05505   1.09122   -1.000
 4213.00    1.05246   1.08215   -1.000
 4214.00    1.01965   1.05792   -1.000
 4215.00    0.98035   1.03306   -1.000
 4216.00    0.98410   1.02551   -1.000
 4217.00    1.02389   1.04244   -1.000
 4218.00    1.06061   1.07403   -1.000
 4219.00    1.09334   1.10162   -1.000
 4220.00    1.10337   1.11395   -1.000
 4221.00    1.10792   1.10722  324.133
 4222.00    1.09793   1.07815   -1.000
 4223.00    1.04915   1.02546   -1.000
 4224.00    0.98181   0.95669   -1.000
 4225.00    0.89686   0.88945   -1.000
 4226.00    0.82614   0.85020   -1.000
 4227.00    0.83183   0.86181   -1.000
 4228.00    0.92398   0.92320  401.986
 4229.00    1.02267   0.99760   -1.000
 4230.00    1.06808   1.04775   -1.000
 4231.00    1.07136   1.06325  334.510
 4232.00    1.06139   1.05396  341.029
 4233.00    1.04413   1.03690  349.962
 4234.00    1.03388   1.02318   -1.000
 4235.00    1.02504   1.01513   -1.000
 4236.00    1.01104   1.01230  368.681
 4237.00    1.01141   1.01630  366.950
 4238.00    1.02097   1.02905  358.880
 4239.00    1.03117   1.04714   -1.000
 4240.00    1.05451   1.06509   -1.000
 4241.00    1.07501   1.07959  341.880
 4242.00    1.08505   1.09184  340.072
 4243.00    1.09226   1.10498   -1.000
 4244.00    1.10782   1.11621  327.708
 4245.00    1.11713   1.11529  330.006
 4246.00    1.08288   1.09529   -1.000
 4247.00    1.03180   1.06322   -1.000
 4248.00    1.00882   1.03506   -1.000
 4249.00    1.00085   1.02128   -1.000
 4250.00    1.00178   1.02382   -1.000
 4251.00    1.02371   1.03650   -1.000
 4252.00    1.05600   1.04813   -1.000
 4253.00    1.06113   1.04698   -1.000
 4254.00    1.04002   1.03746  360.856
 4255.00    1.04264   1.03946  357.791
 4256.00    1.07349   1.05646   -1.000
 4257.00    1.09601   1.06795   -1.000
 4258.00    1.08001   1.05524   -1.000
 4259.00    1.02343   1.02452  371.067
 4260.00    0.99627   1.00452  382.095
 4261.00    1.00892   1.01671  370.230
 4262.00    1.04830   1.05771  347.802
 4263.00    1.09651   1.10390  330.716
 4264.00    1.12245   1.13488   -1.000
 4265.00    1.13704   1.14473  320.710
 4266.00    1.11992   1.13788   -1.000
 4267.00    1.10225   1.11943   -1.000
 4268.00    1.08257   1.08990  346.032
 4269.00    1.05601   1.04898  359.068
 4270.00    1.00983   1.00265   -1.000
 4271.00    0.95295   0.96238   -1.000
 4272.00    0.92820   0.94153   -1.000
 4273.00    0.94155   0.94477  404.284
 4274.00    0.95820   0.96550  394.142
 4275.00    0.98199   0.99930   -1.000
 4276.00    1.04082   1.04440  353.361
 4277.00    1.09336   1.08628   -1.000
 4278.00    1.09788   1.10603  334.349
 4279.00    1.08002   1.09956   -1.000
 4280.00    1.03388   1.08226   -1.000
 4281.00    1.02878   1.07177   -1.000
 4282.00    1.05058   1.07219   -1.000
 4283.00    1.05870   1.07343   -1.000
 4284.00    1.04631   1.06693   -1.000
 4285.00    1.02314   1.05476   -1.000
 4286.00    0.99081   1.03941   -1.000
 4287.00    0.97395   1.01984   -1.000
 4288.00    0.95791   0.99278   -1.000
 4289.00    0.93100   0.96297   -1.000
 4290.00    0.90803   0.94954   -1.000
 4291.00    0.94257   0.96542   -1.000
 4292.00    0.98510   0.99735   -1.000
 4293.00    1.02065   1.02105  366.833
 4294.00    1.02985   1.02397   -1.000
 4295.00    1.02390   1.01097   -1.000
 4296.00    0.98398   0.98857  383.495
 4297.00    0.93660   0.95598   -1.000
 4298.00    0.90142   0.91225   -1.000
 4299.00    0.84553   0.86946   -1.000
 4300.00    0.81619   0.84319   -1.000
 4301.00    0.82542   0.83796   -1.000
 4302.00    0.82384   0.84674   -1.000
 4303.00    0.84375   0.86190   -1.000
 4304.00    0.86308   0.87741   -1.000
 4305.00    0.86509   0.88248   -1.000
 4306.00    0.86148   0.86879  460.149
 4307.00    0.82276   0.84306   -1.000
 4308.00    0.80163   0.82386   -1.000
 4309.00    0.80248   0.82809   -1.000
 4310.00    0.81796   0.85670   -1.000
 4311.00    0.85044   0.89548   -1.000
 4312.00    0.88896   0.93473   -1.000
 4313.00    0.92785   0.97849   -1.000
 4314.00    0.97618   1.03356   -1.000
 4315.00    1.05765   1.10101   -1.000
 4316.00    1.13036   1.16684   -1.000
 4317.00    1.18877   1.21196   -1.000
 4318.00    1.22091   1.22727  302.034
 4319.00    1.20389   1.21888   -1.000
 4320.00    1.17651   1.19748   -1.000
 4321.00    1.14840   1.16414   -1.000
 4322.00    1.10321   1.11413   -1.000
 4323.00    1.03797   1.05009   -1.000
 4324.00    0.97267   0.99009   -1.000
 4325.00    0.93897   0.96255   -1.000
 4326.00    0.97871   0.98544  391.181
 4327.00    1.04668   1.04982  350.832
 4328.00    1.13627   1.11743   -1.000
 4329.00    1.16491   1.15796  316.446
 4330.00    1.15425   1.17026   -1.000
 4331.00    1.14586   1.17157   -1.000
 4332.00    1.14950   1.17606   -1.000
 4333.00    1.15785   1.18104   -1.000
 4334.00    1.16493   1.17560   -1.000
 4335.00    1.15887   1.14740   -1.000
 4336.00    1.09686   1.08716   -1.000
 4337.00    1.02911   0.99756   -1.000
 4338.00    0.93869   0.90252   -1.000
 4339.00    0.85381   0.83197   -1.000
 4340.00    0.81191   0.80842  440.630
 4341.00    0.86226   0.84047   -1.000
 4342.00    0.95789   0.91281   -1.000
 4343.00    1.02914   0.99027   -1.000
 4344.00    1.07764   1.05056   -1.000
 4345.00    1.11237   1.09510   -1.000
 4346.00    1.13856   1.13139  320.694
 4347.00    1.15682   1.16265  317.143
 4348.00    1.16523   1.18331   -1.000
 4349.00    1.17050   1.18055  312.358
 4350.00    1.12632   1.14819   -1.000
 4351.00    1.05498   1.10323   -1.000
 4352.00    1.02695   1.07820   -1.000
 4353.00    1.06694   1.08922   -1.000
 4354.00    1.12265   1.12559  330.836
 4355.00    1.14199   1.16308   -1.000
 4356.00    1.17212   1.18656   -1.000
 4357.00    1.19585   1.19520  312.724
 4358.00    1.17117   1.19444   -1.000
 4359.00    1.14445   1.19385   -1.000
 4360.00    1.16317   1.20297   -1.000
 4361.00    1.19772   1.22189   -1.000
 4362.00    1.21529   1.24103   -1.000
 4363.00    1.22652   1.25529   -1.000
 4364.00    1.23740   1.26507   -1.000
 4365.00    1.23691   1.26459   -1.000
 4366.00    1.21416   1.24731   -1.000
 4367.00    1.17648   1.22102   -1.000
 4368.00    1.15651   1.19949   -1.000
 4369.00    1.16448   1.18788   -1.000
 4370.00    1.16476   1.18218   -1.000
 4371.00    1.16650   1.17450  318.076
 4372.00    1.16141   1.15806  320.935
 4373.00    1.13075   1.13179  333.147
 4374.00    1.08528   1.10609   -1.000
 4375.00    1.07074   1.09925   -1.000
 4376.00    1.10840   1.12075   -1.000
 4377.00    1.16841   1.15664   -1.000
 4378.00    1.20850   1.18453   -1.000
 4379.00    1.20444   1.19059   -1.000
 4380.00    1.19445   1.16901   -1.000
 4381.00    1.17174   1.11710   -1.000
 4382.00    1.09627   1.04265   -1.000
 4383.00    1.00602   0.97265   -1.000
 4384.00    0.97153   0.94662   -1.000
 4385.00    1.01390   0.97950   -1.000
 4386.00    1.09069   1.04116   -1.000
 4387.00    1.14371   1.09131   -1.000
 4388.00    1.15268   1.11392   -1.000
 4389.00    1.13454   1.11916   -1.000
 4390.00    1.12513   1.12259  336.974
 4391.00    1.14092   1.13249   -1.000
 4392.00    1.17043   1.14636   -1.000
 4393.00    1.17890   1.15319   -1.000
 4394.00    1.14441   1.15256  331.817
 4395.00    1.14145   1.15920   -1.000
 4396.00    1.18735   1.18087  317.445
 4397.00    1.21732   1.20329   -1.000
 4398.00    1.21028   1.20578  310.669
 4399.00    1.17646   1.18874   -1.000
 4400.00    1.14805   1.17042   -1.000
 4401.00    1.16039   1.16233  328.925
 4402.00    1.18383   1.15601   -1.000
 4403.00    1.17835   1.13541   -1.000
 4404.00    1.12670   1.10446   -1.000
 4405.00    1.09601   1.08646   -1.000
 4406.00    1.12668   1.09311   -1.000
 4407.00    1.13269   1.11522   -1.000
 4408.00    1.13452   1.14153  336.717
 4409.00    1.16238   1.17473   -1.000
 4410.00    1.20757   1.21705  310.838
 4411.00    1.24600   1.25270  300.017
 4412.00    1.25869   1.26185  295.862
 4413.00    1.24651   1.23944  302.807
 4414.00    1.21288   1.19607   -1.000
 4415.00    1.16123   1.15627  331.895
 4416.00    1.14487   1.14658  331.279
 4417.00    1.16437   1.17383  320.456
 4418.00    1.20660   1.22051   -1.000
 4419.00    1.24024   1.26283   -1.000
 4420.00    1.24541   1.28062   -1.000
 4421.00    1.22253   1.27091   -1.000
 4422.00    1.19276   1.25076   -1.000
 4423.00    1.19519   1.23811   -1.000
 4424.00    1.20071   1.23684   -1.000
 4425.00    1.20018   1.23805   -1.000
 4426.00    1.19023   1.23642   -1.000
 4427.00    1.18640   1.23707   -1.000
 4428.00    1.18806   1.24147   -1.000
 4429.00    1.17901   1.24589   -1.000
 4430.00    1.17628   1.24882   -1.000
 4431.00    1.18259   1.24983   -1.000
 4432.00    1.18998   1.24525   -1.000
 4433.00    1.17580   1.22817   -1.000
 4434.00    1.14473   1.20141   -1.000
 4435.00    1.13089   1.18667   -1.000
 4436.00    1.17231   1.20395   -1.000
 4437.00    1.24312   1.24795  304.594
 4438.00    1.28413   1.29230  291.166
 4439.00    1.29010   1.31178   -1.000
 4440.00    1.27085   1.29784   -1.000
 4441.00    1.23320   1.26044   -1.000
 4442.00    1.19321   1.22510   -1.000
 4443.00    1.15274   1.21612   -1.000
 4444.00    1.17553   1.24043   -1.000
 4445.00    1.23217   1.28137   -1.000
 4446.00    1.26860   1.31417   -1.000
 4447.00    1.28084   1.32790   -1.000
 4448.00    1.28613   1.32837   -1.000
 4449.00    1.28273   1.32462   -1.000
 4450.00    1.26234   1.31923   -1.000
 4451.00    1.25614   1.31064   -1.000
 4452.00    1.26444   1.29354   -1.000
 4453.00    1.24936   1.26064   -1.000
 4454.00    1.21533   1.21822  326.988
 4455.00    1.18181   1.18622  334.630
 4456.00    1.19159   1.17828   -1.000
 4457.00    1.21669   1.18854   -1.000
 4458.00    1.22439   1.20081   -1.000
 4459.00    1.21450   1.20662  325.361
 4460.00    1.20223   1.20918  328.628
 4461.00    1.20377   1.21539   -1.000
 4462.00    1.20833   1.23026   -1.000
 4463.00    1.24411   1.25357  313.613
 4464.00    1.28392   1.27678  305.700
 4465.00    1.28614   1.29028  304.632
 4466.00    1.27007   1.29041   -1.000
 4467.00    1.26763   1.28011   -1.000
 4468.00    1.24983   1.26698   -1.000
 4469.00    1.23330   1.26123   -1.000
 4470.00    1.23936   1.27132   -1.000
 4471.00    1.26876   1.29745   -1.000
 4472.00    1.30633   1.33112   -1.000
 4473.00    1.34074   1.36088   -1.000
 4474.00    1.36592   1.37927   -1.000
 4475.00    1.37454   1.38754   -1.000
 4476.00    1.37881   1.39177   -1.000
 4477.00    1.38335   1.39269  277.733
 4478.00    1.38438   1.38177  279.840
 4479.00    1.35408   1.35181  289.488
 4480.00    1.30831   1.30952  302.527
 4481.00    1.27042   1.27823  311.645
 4482.00    1.25924   1.27783   -1.000
 4483.00    1.29545   1.30729   -1.000
 4484.00    1.34703   1.35105  285.607
 4485.00    1.37850   1.38836  279.048
 4486.00    1.39019   1.40241   -1.000
 4487.00    1.37552   1.38917   -1.000
 4488.00    1.33774   1.36027   -1.000
 4489.00    1.29579   1.33442   -1.000
 4490.00    1.29486   1.32681   -1.000
 4491.00    1.33084   1.33807  292.607
 4492.00    1.35547   1.35376  287.596
 4493.00    1.35467   1.35718  291.038
 4494.00    1.31328   1.34561   -1.000
 4495.00    1.29939   1.33496   -1.000
 4496.00    1.30500   1.33916   -1.000
 4497.00    1.32215   1.35598   -1.000
 4498.00    1.35009   1.37436   -1.000
 4499.00    1.37058   1.38505   -1.000
 4500.00    1.36524   1.38647   -1.000
 4501.00    1.34459   1.38854   -1.000
 4502.00    1.35042   1.40387   -1.000
 4503.00    1.39865   1.43174   31.473
 4504.00    1.45348   1.45991   26.546
 4505.00    1.45410   1.47543   26.664
 4506.00    1.43517   1.47401   27.181
 4507.00    1.43107   1.46220   27.481
 4508.00    1.41778   1.45206   27.525
 4509.00    1.43026   1.45065   27.335
 4510.00    1.44290   1.45419   27.140
 4511.00    1.43503   1.45325   27.329
 4512.00    1.41441   1.44256   27.845
 4513.00    1.39831   1.42592   28.351
 4514.00    1.38063   1.41064   28.561
 4515.00    1.37702   1.40190   28.449
 4516.00    1.37834   1.40034   28.413
 4517.00    1.37592   1.40046   28.725
 4518.00    1.36160   1.39859   28.915
 4519.00    1.36507   1.39942   28.489
 4520.00    1.39673   1.40594   27.927
 4521.00    1.40887   1.41191   27.946
 4522.00    1.37826   1.40870   28.556
 4523.00    1.35491   1.39495   29.152
 4524.00    1.34489   1.37641   29.436
 4525.00    1.32560   1.35577   29.903
 4526.00    1.29922   1.32972   30.781
 4527.00    1.27485   1.29843   31.664
 4528.00    1.26595   1.27111   32.097
 4529.00    1.26508   1.26024   31.922
 4530.00    1.28316   1.26869   31.388
 4531.00    1.30652   1.28622   30.814
 4532.00    1.31745   1.29584   30.620
 4533.00    1.28791   1.28896   31.377
 4534.00    1.24910   1.27588   32.437
 4535.00    1.24406   1.27702   32.173
 4536.00    1.29801   1.30550   30.465
 4537.00    1.37423   1.35418   28.660
 4538.00    1.41519   1.40005   27.793
 4539.00    1.41232   1.42212   27.961
 4540.00    1.40753   1.41924   28.605
 4541.00    1.39722   1.40779   28.656
 4542.00    1.39375   1.40296   28.458
 4543.00    1.40311   1.40475   28.340
 4544.00    1.37732   1.40344   38.866
 4545.00    1.42449   1.39551   14.384
 4546.00    0.75629   1.38576   -1.000
 4547.00    0.05527   1.37541   -1.000
 4548.00   -0.05809   1.36065    0.000
 4549.00    0.65995   1.34489   -1.000
 4550.00    0.74138   1.34074   -1.000
 4551.00    0.58539   1.35281   -1.000
 4552.00    1.29639   1.36668   29.683
 4553.00    1.33644   1.36709   30.117
 4554.00    1.29888   1.35725   30.419
 4555.00    1.30909   1.35282   30.038
 4556.00    1.36050   1.36739   29.001
 4557.00    1.40666   1.40012   27.837
 4558.00    1.43346   1.43561   27.279
 4559.00    1.44666   1.46117   27.367
 4560.00    1.45991   1.47531   27.374
 4561.00    1.45601   1.47883   27.380
 4562.00    1.41584   1.46971   27.950
 4563.00    1.38680   1.44835   28.650
 4564.00    1.37263   1.42420   29.166
 4565.00    1.37676   1.41192   28.932
 4566.00    1.40220   1.42014   28.234
 4567.00    1.43441   1.44406   27.486
 4568.00    1.46127   1.46716   27.161
 4569.00    1.46108   1.47420   27.400
 4570.00    1.41705   1.46168   28.059
 4571.00    1.36781   1.43944   28.800
 4572.00    1.36725   1.42591   28.697
 4573.00    1.40272   1.43360   27.891
 4574.00    1.43543   1.45464   27.439
 4575.00    1.44976   1.47103   27.413
 4576.00    1.45635   1.47534   27.531
 4577.00    1.44581   1.46976   27.688
 4578.00    1.42557   1.45468   28.128
 4579.00    1.39300   1.42974   28.936
 4580.00    1.36091   1.40197   29.569
 4581.00    1.37128   1.38208   29.562
 4582.00    1.37778   1.37510   29.175
 4583.00    1.38451   1.37803   28.935
 4584.00    1.38213   1.38471   28.989
 4585.00    1.38630   1.39113   29.164
 4586.00    1.40083   1.39983   28.826
 4587.00    1.42534   1.41521   28.102
 4588.00    1.45379   1.43578   27.486
 4589.00    1.46369   1.45279   27.385
 4590.00    1.44958   1.45706   27.741
 4591.00    1.43277   1.44731   28.252
 4592.00    1.40878   1.43140   28.752
 4593.00    1.40141   1.42064   28.833
 4594.00    1.39197   1.42004   28.614
 4595.00    1.40799   1.42576   28.385
 4596.00    1.42611   1.43335   28.293
 4597.00    1.43695   1.44121   28.232
 4598.00    1.45606   1.44679   28.169
 4599.00    1.44979   1.44636   28.383
 4600.00    1.43433   1.44007   28.641
 4601.00    1.41718   1.43296   28.741
 4602.00    1.40944   1.43039   28.477
 4603.00    1.40642   1.43287   28.156
 4604.00    1.43118   1.43775   28.162
 4605.00    1.44809   1.44438   28.128
 4606.00    1.45396   1.45486   27.850
 4607.00    1.46352   1.47120   27.323
 4608.00    1.48675   1.49223   26.740
 4609.00    1.50775   1.51214   26.396
 4610.00    1.51301   1.52139   26.467
 4611.00    1.50435   1.51608   26.809
 4612.00    1.47799   1.50419   27.117
 4613.00    1.47180   1.49540   27.306
 4614.00    1.49459   1.49363   27.205
 4615.00    1.50058   1.49653   26.972
 4616.00    1.49622   1.49845   26.848
 4617.00    1.49012   1.49633   26.997
 4618.00    1.48512   1.49194   27.198
 4619.00    1.48983   1.48996   27.198
 4620.00    1.49078   1.49492   26.962
 4621.00    1.50697   1.50701   26.549
 4622.00    1.52565   1.51957   26.493
 4623.00    1.50776   1.52494   26.555
 4624.00    1.50168   1.52291   26.609
 4625.00    1.51481   1.51792   26.833
 4626.00    1.49563   1.51219   26.921
 4627.00    1.49599   1.50743   26.914
 4628.00    1.49317   1.50451   27.067
 4629.00    1.47675   1.50352   27.140
 4630.00    1.49543   1.50583   27.024
 4631.00    1.50876   1.51199   26.729
 4632.00    1.50032   1.51662   26.799
 4633.00    1.48556   1.51240   27.165
 4634.00    1.47468   1.50102   27.478
 4635.00    1.48016   1.49045   27.489
 4636.00    1.48195   1.48342   27.682
 4637.00    1.46710   1.47703   28.037
 4638.00    1.45834   1.47100   28.182
 4639.00    1.45581   1.46911   28.157
 4640.00    1.46606   1.47561   27.726
 4641.00    1.49527   1.49029   27.064
 4642.00    1.52305   1.50594   26.659
 4643.00    1.52798   1.51149   26.716
 4644.00    1.50881   1.50098   27.175
 4645.00    1.47812   1.47788   27.917
 4646.00    1.43919   1.44958   28.696
 4647.00    1.42003   1.42759   28.895
 4648.00    1.43455   1.42457   28.447
 4649.00    1.47475   1.44207   27.793
 4650.00    1.49596   1.46904   27.381
 4651.00    1.50146   1.49117   27.298
 4652.00    1.49304   1.50097   27.245
 4653.00    1.48135   1.49888   27.527
 4654.00    1.47162   1.48805   28.136
 4655.00    1.44517   1.47544   28.500
 4656.00    1.44378   1.47233   28.317
 4657.00    1.46674   1.48769   27.482
 4658.00    1.52790   1.52042   26.440
 4659.00    1.55941   1.55708   25.798
 4660.00    1.56544   1.57925   25.713
 4661.00    1.54686   1.57833   25.998
 4662.00    1.51474   1.55984   26.606
 4663.00    1.50147   1.53431   27.149
 4664.00    1.50576   1.50758   27.264
 4665.00    1.50167   1.47799   27.665
 4666.00    1.45550   1.44234   28.777
 4667.00    1.39707   1.40761   29.990
 4668.00    1.37052   1.39054   30.160
 4669.00    1.41157   1.40163   29.328
 4670.00    1.46707   1.43421   28.125
 4671.00    1.49577   1.47100   27.315
 4672.00    1.51187   1.49732   27.091
 4673.00    1.51375   1.51013   27.097
 4674.00    1.51360   1.51696   27.075
 4675.00    1.52277   1.52609   26.758
 4676.00    1.54589   1.53564   26.357
 4677.00    1.56325   1.53491   26.429
 4678.00    1.53597   1.51891   26.960
 4679.00    1.50140   1.49488   27.504
 4680.00    1.48710   1.47455   27.969
 4681.00    1.47225   1.46468   28.260
 4682.00    1.46808   1.46588   27.976
 4683.00    1.48771   1.47616   27.302
 4684.00    1.52609   1.49006   26.904
 4685.00    1.53775   1.50067   26.948
 4686.00    1.52180   1.50536   26.972
 4687.00    1.51188   1.50621   27.110
 4688.00    1.51799   1.50591   27.130
 4689.00    1.52525   1.50565   27.131
 4690.00    1.51705   1.50530   27.305
 4691.00    1.50117   1.50451   27.380
 4692.00    1.50326   1.50618   27.096
 4693.00    1.53438   1.51374   26.697
 4694.00    1.55087   1.52497   26.122
 4695.00    1.56957   1.53426   25.759
 4696.00    1.56855   1.53707   25.837
 4697.00    1.56521   1.52893   26.517
 4698.00    1.52771   1.50969   27.322
 4699.00    1.50109   1.48716   27.699
 4700.00    1.51630   1.46864   27.533
 4701.00    1.51641   1.45470   27.686
 4702.00    1.49357   1.44361   28.150
 4703.00    1.47538   1.43928   28.340
 4704.00    1.48702   1.44718   27.874
 4705.00    1.51436   1.46242   27.444
 4706.00    1.51526   1.47095   27.738
 4707.00    1.48815   1.46548   28.285
 4708.00    1.46400   1.45478   28.593
 4709.00    1.44813   1.45353   28.489
 4710.00    1.48645   1.46624   27.721
 4711.00    1.53664   1.48597   26.948
 4712.00    1.55917   1.50257   26.629
 4713.00    1.55463   1.50779   26.829
 4714.00    1.52792   1.50364   27.314
 4715.00    1.51087   1.50279   27.376
 4716.00    1.52510   1.51469   26.888
 4717.00    1.55474   1.53672   26.364
 4718.00    1.57337   1.55824   26.163
 4719.00    1.58243   1.57190   26.065
 4720.00    1.58130   1.57723   25.976
 4721.00    1.57381   1.57702   26.162
 4722.00    1.55910   1.57514   26.356
 4723.00    1.55940   1.57548   26.239
 4724.00    1.57216   1.57809   25.966
 4725.00    1.57232   1.57656   25.968
 4726.00    1.55362   1.56272   26.535
 4727.00    1.51138   1.53478   27.511
 4728.00    1.48240   1.50269   28.182
 4729.00    1.48474   1.48137   28.159
 4730.00    1.50695   1.47643   27.885
 4731.00    1.51960   1.48354   27.656
 4732.00    1.51721   1.49745   27.336
 4733.00    1.52991   1.51309   27.087
 4734.00    1.54680   1.52406   26.925
 4735.00    1.55395   1.52743   26.775
 4736.00    1.54605   1.52632   27.014
 4737.00    1.53898   1.52617   27.082
 4738.00    1.55551   1.53104   26.771
 4739.00    1.56372   1.54021   26.739
 4740.00    1.55151   1.54787   26.882
 4741.00    1.55249   1.55091   26.932
 4742.00    1.56582   1.55340   26.743
 4743.00    1.56595   1.55850   26.457
 4744.00    1.57863   1.56453   26.471
 4745.00    1.58049   1.56963   26.501
 4746.00    1.58393   1.57442   26.327
 4747.00    1.58972   1.58130   26.066
 4748.00    1.58513   1.59065   25.987
 4749.00    1.58651   1.59967   26.018
 4750.00    1.59341   1.60577   26.038
 4751.00    1.60033   1.60577   26.208
 4752.00    1.58746   1.59691   26.496
 4753.00    1.57544   1.58083   26.728
 4754.00    1.56194   1.56397   26.915
 4755.00    1.55016   1.55390   26.894
 4756.00    1.54100   1.55354   26.980
 4757.00    1.54224   1.56055   27.171
 4758.00    1.54609   1.57092   27.222
 4759.00    1.55481   1.58070   27.023
 4760.00    1.55829   1.58393   26.951
 4761.00    1.53732   1.57406   27.320
 4762.00    1.51058   1.55020   27.980
 4763.00    1.48703   1.52086   28.383
 4764.00    1.48786   1.49874   28.460
 4765.00    1.48994   1.48893   28.410
 4766.00    1.51383   1.48991   28.226
 4767.00    1.52952   1.50209   27.856
 4768.00    1.53816   1.52619   27.248
 4769.00    1.55606   1.55472   26.840
 4770.00    1.56995   1.57406   26.838
 4771.00    1.55057   1.57841   27.048
 4772.00    1.53638   1.57555   27.289
 4773.00    1.55778   1.57781   27.038
 4774.00    1.58634   1.59044   26.483
 4775.00    1.59659   1.60686   26.255
 4776.00    1.59382   1.61798   26.255
 4777.00    1.58996   1.62097   26.328
 4778.00    1.57666   1.61716   26.489
 4779.00    1.55848   1.60896   26.775
 4780.00    1.55317   1.59961   26.951
 4781.00    1.55117   1.59124   27.028
 4782.00    1.55269   1.58224   27.152
 4783.00    1.55383   1.57186   27.362
 4784.00    1.54625   1.56298   27.379
 4785.00    1.54185   1.55697   27.457
 4786.00    1.52395   1.55267   27.711
 4787.00    1.50758   1.55018   27.886
 4788.00    1.51498   1.55117   27.880
 4789.00    1.52352   1.55631   27.753
 4790.00    1.53748   1.56604   27.585
 4791.00    1.55828   1.58116   27.311
 4792.00    1.57380   1.60175   26.880
 4793.00    1.59022   1.62625   26.297
 4794.00    1.62235   1.65065   25.828
 4795.00    1.64489   1.66859   25.693
 4796.00    1.63277   1.67275   25.913
 4797.00    1.60642   1.66108   26.409
 4798.00    1.57471   1.63981   26.911
 4799.00    1.55957   1.61962   27.253
 4800.00    1.56492   1.61097   27.080
 4801.00    1.58774   1.61856   26.562
 4802.00    1.60941   1.63603   26.160
 4803.00    1.61172   1.64956   26.150
 4804.00    1.59633   1.64969   26.466
 4805.00    1.57490   1.63852   26.810
 4806.00    1.56632   1.62543   27.066
 4807.00    1.56594   1.61667   27.089
 4808.00    1.58009   1.61380   27.026
 4809.00    1.59927   1.61790   26.910
 4810.00    1.60348   1.62720   26.680
 4811.00    1.60387   1.63616   26.482
 4812.00    1.59354   1.64188   26.340
 4813.00    1.59423   1.64626   26.301
 4814.00    1.60771   1.65206   26.243
 4815.00    1.61147   1.66100   26.152
 4816.00    1.61622   1.67255   25.995
 4817.00    1.63378   1.68343   25.833
 4818.00    1.64534   1.69043   25.721
 4819.00    1.64017   1.69334   25.701
 4820.00    1.63412   1.69221   25.701
 4821.00    1.62738   1.68265   25.900
 4822.00    1.60266   1.66024   26.532
 4823.00    1.57329   1.62954   27.067
 4824.00    1.56146   1.60581   27.084
 4825.00    1.59382   1.60368   26.652
 4826.00    1.61288   1.62020   26.229
 4827.00    1.60885   1.63788   26.275
 4828.00    1.59580   1.64412   26.566
 4829.00    1.60063   1.64044   26.752
 4830.00    1.59665   1.63367   26.765
 4831.00    1.58265   1.62472   26.980
 4832.00    1.57517   1.61470   27.054
 4833.00    1.59991   1.61079   26.676
 4834.00    1.62396   1.61726   26.309
 4835.00    1.61673   1.62986   26.181
 4836.00    1.61768   1.64022   26.209
 4837.00    1.62239   1.64257   26.325
 4838.00    1.61101   1.63581   26.658
 4839.00    1.58334   1.62200   27.124
 4840.00    1.57586   1.60669   27.200
 4841.00    1.59171   1.59670   27.148
 4842.00    1.58645   1.59485   27.021
 4843.00    1.58696   1.59881   26.826
 4844.00    1.60119   1.60672   26.566
 4845.00    1.62389   1.61938   26.166
 4846.00    1.64023   1.63198   25.995
 4847.00    1.62962   1.63389   26.442
 4848.00    1.60880   1.62407   26.861
 4849.00    1.57776   1.61442   26.909
 4850.00    1.58338   1.61423   26.574
 4851.00    1.59379   1.61935   26.470
 4852.00    1.59554   1.61834   26.596
 4853.00    1.58604   1.60298   26.815
 4854.00    1.54606   1.57160   27.545
 4855.00    1.50330   1.53220   28.339
 4856.00    1.51219   1.49873   28.387
 4857.00    1.52008   1.47596   28.119
 4858.00    1.49438   1.44663   28.749
 4859.00    1.39815   1.38352   31.010
 4860.00    1.24386   1.28708   34.559
 4861.00    1.14912   1.19851   36.572
 4862.00    1.18420   1.16874   34.815
 4863.00    1.30970   1.21323   -1.000
 4864.00    1.40821   1.30025   -1.000
 4865.00    1.46441   1.38875   28.661
 4866.00    1.50875   1.45860   28.006
 4867.00    1.53441   1.50711   27.709
 4868.00    1.54256   1.53597   27.575
 4869.00    1.53528   1.54367   27.768
 4870.00    1.51894   1.52799   28.484
 4871.00    1.49383   1.49642   29.203
 4872.00    1.48230   1.47276   29.080
 4873.00    1.51291   1.48021   28.316
 4874.00    1.53421   1.51534   27.779
 4875.00    1.54369   1.55358   27.531
 4876.00    1.54789   1.57655   27.374
 4877.00    1.55328   1.58755   27.275
 4878.00    1.57402   1.60075   26.918
 4879.00    1.59264   1.62085   26.614
 4880.00    1.58979   1.63920   26.781
 4881.00    1.57682   1.64467   27.203
 4882.00    1.56131   1.63675   27.406
 4883.00    1.55559   1.62471   27.345
 4884.00    1.55515   1.61262   27.458
 4885.00    1.55709   1.59802   27.849
 4886.00    1.54756   1.58310   28.038
 4887.00    1.54186   1.57367   27.927
 4888.00    1.56082   1.56908   27.871
 4889.00    1.56397   1.55939   28.223
 4890.00    1.53481   1.53911   28.827
 4891.00    1.51411   1.52193   28.752
 4892.00    1.54626   1.53254   27.719
 4893.00    1.61862   1.58197   26.442
 4894.00    1.68216   1.65236   25.599
 4895.00    1.70943   1.71237   25.084
 4896.00    1.71203   1.74584   24.916
 4897.00    1.70611   1.75531   24.948
 4898.00    1.69548   1.74827   25.424
 4899.00    1.65909   1.73133   26.025
 4900.00    1.63647   1.71253   26.360
 4901.00    1.63691   1.69853   26.286
 4902.00    1.63757   1.68866   26.297
 4903.00    1.63037   1.67915   26.585
 4904.00    1.63886   1.67508   26.384
 4905.00    1.66735   1.68647   25.850
 4906.00    1.70369   1.70852   25.597
 4907.00    1.69172   1.72192   25.775
 4908.00    1.66339   1.71294   26.348
 4909.00    1.62862   1.68390   27.099
 4910.00    1.61189   1.65027   27.508
 4911.00    1.61436   1.63098   27.242
 4912.00    1.63117   1.63605   26.762
 4913.00    1.64838   1.65974   26.377
 4914.00    1.66349   1.68823   26.032
 4915.00    1.69807   1.71009   25.786
 4916.00    1.69960   1.71391   25.859
 4917.00    1.65960   1.68739   26.654
 4918.00    1.59599   1.62818   28.049
 4919.00    1.54077   1.55329   29.426
 4920.00    1.50018   1.49448   29.921
 4921.00    1.50657   1.47725   29.124
 4922.00    1.55772   1.50093   28.072
 4923.00    1.59361   1.54147   27.568
 4924.00    1.59700   1.57646   27.490
 4925.00    1.61233   1.60487   27.188
 4926.00    1.64478   1.63657   26.524
 4927.00    1.68030   1.67377   26.016
 4928.00    1.71302   1.70993   25.741
 4929.00    1.72730   1.73755   25.556
 4930.00    1.73557   1.75200   25.399
 4931.00    1.72618   1.74941   25.591
 4932.00    1.67695   1.72651   26.228
 4933.00    1.62714   1.68963   27.155
 4934.00    1.61014   1.65741   27.360
 4935.00    1.62486   1.64499   26.941
 4936.00    1.64631   1.64587   26.851
 4937.00    1.62919   1.63729   27.529
 4938.00    1.59425   1.61227   28.305
 4939.00    1.58895   1.59293   28.209
 4940.00    1.61094   1.60364   27.340
 4941.00    1.66414   1.64487   26.449
 4942.00    1.70675   1.69465   25.908
 4943.00    1.71526   1.73027   25.638
 4944.00    1.72296   1.74441   25.621
 4945.00    1.72098   1.74254   25.782
 4946.00    1.70698   1.73589   25.858
 4947.00    1.71014   1.73621   25.666
 4948.00    1.73338   1.74818   25.369
 4949.00    1.73966   1.76526   25.259
 4950.00    1.74108   1.77684   25.158
 4951.00    1.75379   1.77836   25.255
 4952.00    1.75146   1.77208   25.424
 4953.00    1.72122   1.76126   25.702
 4954.00    1.70590   1.74471   26.020
 4955.00    1.68358   1.71294   26.661
 4956.00    1.62987   1.65639   27.945
 4957.00    1.55608   1.58946   29.129
 4958.00    1.54672   1.55156   28.800
 4959.00    1.61852   1.57034   27.286
 4960.00    1.69050   1.63129   26.248
 4961.00    1.69896   1.69279   25.945
 4962.00    1.68478   1.72736   26.022
 4963.00    1.68004   1.73489   26.219
 4964.00    1.67167   1.72407   26.516
 4965.00    1.65473   1.70230   27.044
 4966.00    1.64581   1.67870   27.431
 4967.00    1.64304   1.66188   27.489
 4968.00    1.64595   1.65498   27.419
 4969.00    1.64338   1.65765   27.234
 4970.00    1.65515   1.66888   26.955
 4971.00    1.67268   1.68649   26.665
 4972.00    1.68087   1.70704   26.351
 4973.00    1.71074   1.72658   26.092
 4974.00    1.72926   1.74065   25.965
 4975.00    1.71777   1.74588   26.104
 4976.00    1.70752   1.74135   26.367
 4977.00    1.69225   1.72814   26.714
 4978.00    1.67104   1.70901   27.141
 4979.00    1.65738   1.68712   27.492
 4980.00    1.64435   1.66125   27.874
 4981.00    1.60945   1.62449   28.714
 4982.00    1.55334   1.57589   29.655
 4983.00    1.52518   1.53177   29.802
 4984.00    1.55265   1.51601   29.319
 4985.00    1.59407   1.53814   28.532
 4986.00    1.63301   1.58580   27.638
 4987.00    1.67575   1.63705   26.923
 4988.00    1.68793   1.67336   26.842
 4989.00    1.66785   1.68539   27.186
 4990.00    1.64355   1.67741   27.487
 4991.00    1.65380   1.66459   27.540
 4992.00    1.66552   1.65994   27.331
 4993.00    1.66559   1.66508   27.195
 4994.00    1.66852   1.67438   27.167
 4995.00    1.67430   1.68411   27.047
 4996.00    1.70197   1.69313   26.910
 4997.00    1.70547   1.69727   27.029
 4998.00    1.67262   1.68850   27.363
 4999.00    1.63112   1.66331   27.890
 5000.00    1.60200   1.62958   28.275
 5001.00    1.60939   1.60272   28.345
 5002.00    1.62844   1.59337   28.117
 5003.00    1.63755   1.59738   27.917
 5004.00    1.62968   1.59881   28.229
 5005.00    1.60545   1.58526   28.907
 5006.00    1.58126   1.56369   29.160
 5007.00    1.59296   1.55715   28.573
 5008.00    1.63701   1.57878   27.720
 5009.00    1.67955   1.61538   27.340
 5010.00    1.66221   1.64017   27.601
 5011.00    1.63716   1.63516   28.364
 5012.00    1.58918   1.60241   29.401
 5013.00    1.54823   1.56085   30.155
 5014.00    1.52951   1.53256   30.136
 5015.00    1.56134   1.52731   29.542
 5016.00    1.60202   1.53775   28.914
 5017.00    1.61075   1.55022   28.719
 5018.00    1.60903   1.55982   28.708
 5019.00    1.62172   1.57230   28.432
 5020.00    1.64788   1.58932   28.183
 5021.00    1.65336   1.60319   28.255
 5022.00    1.64097   1.60887   28.329
 5023.00    1.64653   1.61297   28.200
 5024.00    1.66562   1.62619   27.921
 5025.00    1.67725   1.64567   27.716
 5026.00    1.67835   1.65618   27.801
 5027.00    1.66285   1.65282   27.936
 5028.00    1.66555   1.64722   27.739
 5029.00    1.70170   1.65173   27.253
 5030.00    1.72057   1.66924   26.844
 5031.00    1.73565   1.69498   26.416
 5032.00    1.75861   1.72111   26.092
 5033.00    1.75157   1.73760   26.083
 5034.00    1.72375   1.73279   26.800
 5035.00    1.68354   1.70421   27.843
 5036.00    1.64580   1.66627   28.406
 5037.00    1.63677   1.63724   28.559
 5038.00    1.63215   1.61788   28.872
 5039.00    1.59057   1.59006   29.891
 5040.00    1.52704   1.54600   31.111
 5041.00    1.50350   1.50953   31.317
 5042.00    1.53764   1.51346   30.016
 5043.00    1.63725   1.56521   28.205
 5044.00    1.71188   1.64094   26.965
 5045.00    1.73734   1.70778   26.322
 5046.00    1.79735   1.74641   25.380
 5047.00    1.66613   1.75204   25.892
 5048.00    0.51037   1.72838   -1.000
 5049.00    0.07455   1.68787   -1.000
 5050.00    0.06400   1.64920   -1.000
 5051.00    0.93463   1.62806   -1.000
 5052.00    1.57138   1.63160   27.585
 5053.00    1.71593   1.65827   26.895
 5054.00    1.75687   1.69516   26.377
 5055.00    1.77745   1.72500   26.092
 5056.00    1.79168   1.74226   25.985
 5057.00    1.79083   1.75311   26.014
 5058.00    1.78255   1.76300   26.063
 5059.00    1.78162   1.77313   26.062
 5060.00    1.78252   1.78199   25.908
 5061.00    1.79338   1.78723   25.893
 5062.00    1.79471   1.78356   26.194
 5063.00    1.75288   1.76204   26.899
 5064.00    1.69555   1.72321   27.838
 5065.00    1.66690   1.68423   28.262
 5066.00    1.68562   1.66331   28.012
 5067.00    1.71772   1.66276   27.595
 5068.00    1.71642   1.67161   27.458
 5069.00    1.72538   1.68065   27.336
 5070.00    1.74973   1.68817   27.162
 5071.00    1.74131   1.69116   27.323
 5072.00    1.72038   1.68627   27.543
 5073.00    1.71065   1.67945   27.285
 5074.00    1.72952   1.68056   27.049
 5075.00    1.74803   1.68967   26.988
 5076.00    1.73743   1.69723   26.966
 5077.00    1.73388   1.69308   27.187
 5078.00    1.69825   1.67023   28.037
 5079.00    1.63461   1.63158   29.329
 5080.00    1.60851   1.59563   29.829
 5081.00    1.62361   1.58162   29.333
 5082.00    1.66819   1.59102   28.701
 5083.00    1.67990   1.61258   28.282
 5084.00    1.70037   1.63788   27.771
 5085.00    1.74048   1.66556   27.286
 5086.00    1.75578   1.69297   27.052
 5087.00    1.75829   1.71352   26.994
 5088.00    1.76633   1.72509   26.873
 5089.00    1.76808   1.73208   26.686
 5090.00    1.77385   1.73909   26.532
 5091.00    1.77418   1.74863   26.394
 5092.00    1.80845   1.76165   26.112
 5093.00    1.80951   1.77528   25.867
 5094.00    1.81097   1.78080   26.035
 5095.00    1.92187   1.76790   -1.000
 5096.00    1.82180   1.73490   27.113
 5097.00    1.73060   1.69220   27.761
 5098.00    1.69751   1.65499   28.357
 5099.00    1.68680   1.63576   28.521
 5100.00    1.72707   1.64159   27.928
 5101.00    1.76704   1.66866   -1.000
 5102.00    1.76929   1.70010   26.811
 5103.00    1.76670   1.71816   26.916
 5104.00    1.75442   1.71845   27.246
 5105.00    1.74090   1.70645   27.595
 5106.00    1.71755   1.68780   27.934
 5107.00    1.69215   1.66712   28.284
 5108.00    1.67548   1.65058   28.298
 5109.00    1.66786   1.64455   28.134
 5110.00    1.68050   1.65199   27.934
 5111.00    1.70810   1.67147   27.560
 5112.00    1.74499   1.69705   27.212
 5113.00    1.76940   1.72133   26.880
 5114.00    1.78543   1.74137   26.626
 5115.00    1.80523   1.75877   26.470
 5116.00    1.81480   1.77442   26.210
 5117.00    1.82452   1.78662   25.981
 5118.00    1.83052   1.79220   26.017
 5119.00    1.81742   1.78769   26.322
 5120.00    1.79835   1.77173   26.714
 5121.00    1.77901   1.74678   27.150
 5122.00    1.73026   1.71694   27.814
 5123.00    1.69127   1.68538   28.640
 5124.00    1.66975   1.65712   28.936
 5125.00    1.67496   1.63958   28.738
 5126.00    1.69032   1.63581   28.578
 5127.00    1.69811   1.63982   28.413
 5128.00    1.69646   1.64384   28.424
 5129.00    1.69838   1.64695   28.409
 5130.00    1.70816   1.65406   28.086
 5131.00    1.72654   1.66832   27.619
 5132.00    1.74635   1.68716   27.359
 5133.00    1.77067   1.70519   27.105
 5134.00    1.78608   1.71933   26.863
 5135.00    1.79077   1.72807   26.770
 5136.00    1.77409   1.72675   27.176
 5137.00    1.74892   1.71141   27.819
 5138.00    1.70911   1.68662   28.299
 5139.00    1.69299   1.66446   28.394
 5140.00    1.71194   1.65395   28.176
 5141.00    1.72485   1.65384   28.318
 5142.00    1.70118   1.65694   28.749
 5143.00    1.68462   1.66060   28.674
 5144.00    1.70489   1.66645   28.228
 5145.00    1.71839   1.67194   28.074
 5146.00    1.70335   1.67034   28.290
 5147.00    1.71673   1.66242   28.391
 5148.00    1.73739   1.65967   28.098
 5149.00    1.74586   1.66676   27.910
 5150.00    1.72116   1.67261   28.187
 5151.00    1.68754   1.66734   28.684
 5152.00    1.68982   1.65444   28.922
 5153.00    1.69184   1.64347   28.820
 5154.00    1.71316   1.64348   28.321
 5155.00    1.75511   1.66095   27.621
 5156.00    1.78576   1.69435   26.917
 5157.00    1.82600   1.73267   26.388
 5158.00    1.84317   1.76336   26.154
 5159.00    1.83302   1.78085   26.125
 5160.00    1.84093   1.78566   26.202
 5161.00    1.83894   1.77955   26.345
 5162.00    1.81885   1.76280   26.622
 5163.00    1.80664   1.73510   27.022
 5164.00    1.77102   1.69236   27.968
 5165.00    1.67623   1.62263   30.105
 5166.00    1.53616   1.52273   33.177
 5167.00    1.43377   1.41915   35.604
 5168.00    1.42339   1.35820   35.302
 5169.00    1.49752   1.36140   -1.000
 5170.00    1.54474   1.39311   -1.000
 5171.00    1.49532   1.39689   -1.000
 5172.00    1.40535   1.36509   36.875
 5173.00    1.41221   1.34655   35.900
 5174.00    1.53603   1.39033   -1.000
 5175.00    1.66950   1.49034   -1.000
 5176.00    1.74932   1.59507   -1.000
 5177.00    1.77652   1.66554   -1.000
 5178.00    1.78309   1.69722   27.701
 5179.00    1.79088   1.69937   27.932
 5180.00    1.75642   1.67134   28.815
 5181.00    1.67846   1.60380   30.754
 5182.00    1.55264   1.50053   34.151
 5183.00    1.43052   1.39681   37.043
 5184.00    1.43436   1.34782   -1.000
 5185.00    1.54863   1.38541   -1.000
 5186.00    1.68670   1.48587   -1.000
 5187.00    1.76037   1.59187   -1.000
 5188.00    1.77079   1.66145   -1.000
 5189.00    1.77375   1.69204   27.672
 5190.00    1.76972   1.69671   27.915
 5191.00    1.71333   1.68002   28.727
 5192.00    1.66840   1.65063   29.545
 5193.00    1.66947   1.62833   29.461
 5194.00    1.70458   1.62670   28.981
 5195.00    1.73351   1.64190   28.541
 5196.00    1.74800   1.66361   28.124
 5197.00    1.77325   1.68893   27.578
 5198.00    1.79388   1.71949   27.096
 5199.00    1.81672   1.75014   26.843
 5200.00    1.83252   1.77123   26.793
 5201.00    1.82279   1.77580   26.978
 5202.00    1.79940   1.76026   27.434
 5203.00    1.76866   1.72426   28.048
 5204.00    1.72371   1.67260   28.900
 5205.00    1.67239   1.61707   29.796
 5206.00    1.65664   1.57309   30.014
 5207.00    1.66149   1.54929   -1.000
 5208.00    1.65987   1.54372   -1.000
 5209.00    1.65350   1.55469   -1.000
 5210.00    1.69693   1.58664   -1.000
 5211.00    1.76915   1.64174   -1.000
 5212.00    1.82714   1.70886   -1.000
 5213.00    1.87849   1.76483   -1.000
 5214.00    1.88479   1.78857   26.382
 5215.00    1.82959   1.77820   26.972
 5216.00    1.79326   1.75400   27.346
 5217.00    1.80310   1.74377   27.189
 5218.00    1.83513   1.76083   26.642
 5219.00    1.86560   1.79699   26.213
 5220.00    1.88742   1.83383   25.987
 5221.00    1.90929   1.85688   25.872
 5222.00    1.88734   1.85920   26.149
 5223.00    1.85493   1.83708   26.892
 5224.00    1.79725   1.78887   27.970
 5225.00    1.73362   1.71872   29.266
 5226.00    1.67684   1.64733   30.156
 5227.00    1.67964   1.60822   29.701
 5228.00    1.74788   1.62421   -1.000
 5229.00    1.81853   1.68402   -1.000
 5230.00    1.86853   1.74834   -1.000
 5231.00    1.88219   1.78180   -1.000
 5232.00    1.86648   1.77810   26.757
 5233.00    1.83580   1.75471   27.250
 5234.00    1.81523   1.73920   27.261
 5235.00    1.84260   1.75105   26.702
 5236.00    1.88231   1.78829   26.062
 5237.00    1.91731   1.83239   25.726
 5238.00    1.93058   1.86523   25.671
 5239.00    1.91945   1.88031   25.742
 5240.00    1.92679   1.88192   25.713
 5241.00    1.94207   1.87764   25.573
 5242.00    1.92856   1.87339   25.587
 5243.00    1.92540   1.87425   25.548
 5244.00    1.93052   1.87982   25.505
 5245.00    1.90581   1.87934   25.945
 5246.00    1.86540   1.86142   26.728
 5247.00    1.82514   1.82926   27.383
 5248.00    1.81324   1.79842   27.524
 5249.00    1.81890   1.78040   27.572
 5250.00    1.80396   1.77470   27.733
 5251.00    1.79906   1.77641   27.643
 5252.00    1.82902   1.78404   27.288
 5253.00    1.84415   1.79401   27.001
 5254.00    1.84391   1.80072   26.972
 5255.00    1.85072   1.80758   26.806
 5256.00    1.89064   1.82564   26.231
 5257.00    1.94374   1.85751   25.528
 5258.00    1.97633   1.88999   25.243
 5259.00    1.97209   1.90388   25.424
 5260.00    1.92758   1.88681   26.067
 5261.00    1.86242   1.83911   27.128
 5262.00    1.79118   1.77045   28.408
 5263.00    1.74831   1.69606   29.443
 5264.00    1.70830   1.63222   30.101
 5265.00    1.68488   1.59303   -1.000
 5266.00    1.70295   1.58390   -1.000
 5267.00    1.73991   1.59257   -1.000
 5268.00    1.72837   1.59359   -1.000
 5269.00    1.66125   1.57380   -1.000
 5270.00    1.64968   1.55380   -1.000
 5271.00    1.73234   1.56983   -1.000
 5272.00    1.82302   1.62734   -1.000
 5273.00    1.86194   1.69172   -1.000
 5274.00    1.85982   1.73302   -1.000
 5275.00    1.85258   1.75421   -1.000
 5276.00    1.87500   1.77728   -1.000
 5277.00    1.92604   1.81582   -1.000
 5278.00    1.97098   1.86073   -1.000
 5279.00    1.97910   1.88825   25.350
 5280.00    1.95000   1.88266   25.909
 5281.00    1.90683   1.85014   26.583
 5282.00    1.87484   1.81047   27.097
 5283.00    1.85732   1.78297   27.275
 5284.00    1.87874   1.78371   -1.000
 5285.00    1.95099   1.81840   -1.000
 5286.00    1.97768   1.87350   -1.000
 5287.00    1.98221   1.92335   24.925
 5288.00    2.01330   1.95158   25.023
 5289.00    2.00439   1.96146   25.040
 5290.00    2.00112   1.96483   24.909
 5291.00    1.99969   1.96571   24.843
 5292.00    1.99411   1.96272   24.965
 5293.00    1.99885   1.95606   25.192
 5294.00    1.99053   1.94371   25.516
 5295.00    1.94361   1.91836   26.165
 5296.00    1.88542   1.87427   27.138
 5297.00    1.82793   1.81991   27.912
 5298.00    1.82255   1.78019   27.851
 5299.00    1.85722   1.77461   27.200
 5300.00    1.88455   1.79730   26.666
 5301.00    1.88352   1.82790   26.457
 5302.00    1.90817   1.85496   26.154
 5303.00    1.96367   1.88320   25.493
 5304.00    2.00453   1.91670   24.993
 5305.00    2.03701   1.94509   24.881
 5306.00    2.02070   1.95643   25.089
 5307.00    1.99011   1.95318   25.314
 5308.00    1.99725   1.94940   25.196
 5309.00    2.01135   1.95651   24.940
 5310.00    2.04630   1.97196   24.767
 5311.00    2.03914   1.98408   24.769
 5312.00    2.03332   1.98511   24.896
 5313.00    2.02488   1.97493   25.009
 5314.00    2.01366   1.95749   25.181
 5315.00    2.00072   1.93611   25.424
 5316.00    1.98421   1.91524   25.654
 5317.00    1.97916   1.90351   25.689
 5318.00    1.99483   1.90799   25.521
 5319.00    2.00391   1.92379   25.400
 5320.00    2.00220   1.93649   25.469
 5321.00    1.99024   1.93456   25.640
 5322.00    1.96742   1.91592   25.928
 5323.00    1.94227   1.88507   26.366
 5324.00    1.93862   1.85087   26.640
 5325.00    1.94206   1.81983   -1.000
 5326.00    1.90566   1.78512   -1.000
 5327.00    1.82330   1.73489   -1.000
 5328.00    1.74595   1.68032   29.999
 5329.00    1.75681   1.65913   -1.000
 5330.00    1.86561   1.69570   -1.000
 5331.00    1.94589   1.76965   -1.000
 5332.00    1.95622   1.83810   -1.000
 5333.00    1.98165   1.87916   -1.000
 5334.00    2.01554   1.90298   -1.000
 5335.00    2.02002   1.92131   -1.000
 5336.00    2.00306   1.93191   25.528
 5337.00    1.99420   1.92911   25.697
 5338.00    1.97784   1.91129   25.964
 5339.00    1.95892   1.87987   26.576
 5340.00    1.91640   1.84395   27.074
 5341.00    1.91134   1.82287   26.935
 5342.00    1.95077   1.83220   -1.000
 5343.00    1.98495   1.86448   -1.000
 5344.00    1.99545   1.89412   -1.000
 5345.00    1.98117   1.90290   25.849
 5346.00    1.97366   1.89366   26.018
 5347.00    1.97641   1.87837   -1.000
 5348.00    1.96354   1.86644   -1.000
 5349.00    1.95079   1.86359   26.459
 5350.00    1.96456   1.87433   26.105
 5351.00    2.00364   1.89951   -1.000
 5352.00    2.02930   1.93120   -1.000
 5353.00    2.04858   1.95807   25.057
 5354.00    2.06315   1.97755   24.877
 5355.00    2.07626   1.99550   24.571
 5356.00    2.08631   2.01357   24.370
 5357.00    2.08975   2.02658   24.368
 5358.00    2.08410   2.03113   24.405
 5359.00    2.07978   2.02750   24.488
 5360.00    2.06591   2.01626   24.752
 5361.00    2.04188   1.99664   25.156
 5362.00    2.01901   1.97081   25.533
 5363.00    2.00101   1.94421   25.736
 5364.00    1.98565   1.92147   25.887
 5365.00    1.97603   1.90556   26.042
 5366.00    1.98572   1.89813   25.990
 5367.00    1.99193   1.89548   -1.000
 5368.00    1.98184   1.88688   -1.000
 5369.00    1.94919   1.86084   26.820
 5370.00    1.89316   1.81881   27.624
 5371.00    1.86770   1.78142   -1.000
 5372.00    1.91903   1.77635   -1.000
 5373.00    1.99858   1.81511   -1.000
 5374.00    2.04843   1.88108   -1.000
 5375.00    2.07986   1.94228   -1.000
 5376.00    2.08474   1.97752   -1.000
 5377.00    2.07913   1.98871   24.821
 5378.00    2.08161   1.98778   24.865
 5379.00    2.05644   1.98288   24.998
 5380.00    2.03598   1.97442   25.235
 5381.00    2.02869   1.96135   25.485
 5382.00    2.03137   1.94623   25.625
 5383.00    2.02446   1.93542   25.623
 5384.00    2.02117   1.93599   25.513
 5385.00    2.04962   1.94998   -1.000
 5386.00    2.06047   1.96970   25.177
 5387.00    2.06588   1.98206   25.274
 5388.00    2.04140   1.97885   25.506
 5389.00    2.01157   1.96157   25.882
 5390.00    1.99896   1.93768   26.187
 5391.00    2.00379   1.91537   26.323
 5392.00    1.99579   1.89894   -1.000
 5393.00    1.98131   1.88875   -1.000
 5394.00    1.97296   1.88133   -1.000
 5395.00    1.95698   1.86897   26.938
 5396.00    1.91801   1.84708   27.464
 5397.00    1.88882   1.82442   27.549
 5398.00    1.91867   1.81939   -1.000
 5399.00    1.98751   1.84146   -1.000
 5400.00    2.03526   1.87875   -1.000
 5401.00    2.03226   1.90824   -1.000
 5402.00    2.01423   1.91533   -1.000
 5403.00    1.98412   1.89416   -1.000
 5404.00    1.92329   1.84853   27.631
 5405.00    1.89264   1.79848   -1.000
 5406.00    1.90249   1.77145   -1.000
 5407.00    1.93380   1.77850   -1.000
 5408.00    1.95989   1.80388   -1.000
 5409.00    1.94695   1.82261   -1.000
 5410.00    1.93569   1.82977   -1.000
 5411.00    1.97212   1.84259   -1.000
 5412.00    2.03121   1.87151   -1.000
 5413.00    2.05618   1.90592   -1.000
 5414.00    2.04504   1.93039   -1.000
 5415.00    2.04090   1.94421   -1.000
 5416.00    2.05765   1.95853   -1.000
 5417.00    2.07232   1.97624   -1.000
 5418.00    2.06449   1.98892   25.282
 5419.00    2.05313   1.99066   25.520
 5420.00    2.05288   1.98392   25.686
 5421.00    2.06125   1.97515   25.610
 5422.00    2.06213   1.96604   -1.000
 5423.00    2.03569   1.95378   25.810
 5424.00    2.01859   1.94152   26.066
 5425.00    2.03705   1.94127   -1.000
 5426.00    2.06009   1.95829   -1.000
 5427.00    2.07236   1.97526   -1.000
 5428.00    2.02848   1.96567   26.079
 5429.00    1.97321   1.92735   26.913
 5430.00    1.95337   1.88809   27.055
 5431.00    1.98167   1.87352   -1.000
 5432.00    2.00213   1.88009   -1.000
 5433.00    1.98048   1.88334   -1.000
 5434.00    1.95506   1.87307   27.213
 5435.00    1.94895   1.86423   27.158
 5436.00    1.97768   1.87644   -1.000
 5437.00    2.01935   1.91475   -1.000
 5438.00    2.06804   1.96577   -1.000
 5439.00    2.09955   2.01023   25.005
 5440.00    2.11325   2.03869   24.784
 5441.00    2.12022   2.05336   24.725
 5442.00    2.11170   2.05832   24.721
 5443.00    2.10123   2.04984   24.954
 5444.00    2.07133   2.01980   25.578
 5445.00    1.99834   1.96689   26.600
 5446.00    1.92764   1.90639   27.511
 5447.00    1.90641   1.86598   27.431
 5448.00    1.96135   1.86611   -1.000
 5449.00    2.02148   1.90293   -1.000
 5450.00    2.05335   1.95008   -1.000
 5451.00    2.06186   1.98180   25.527
 5452.00    2.05013   1.98820   25.725
 5453.00    2.01622   1.96899   26.286
 5454.00    1.95889   1.92989   27.033
 5455.00    1.92923   1.88681   27.644
 5456.00    1.94612   1.86630   27.351
 5457.00    1.99910   1.88610   -1.000
 5458.00    2.06314   1.93459   -1.000
 5459.00    2.07453   1.97897   25.495
 5460.00    2.05762   1.99544   25.753
 5461.00    2.04537   1.98184   26.224
 5462.00    2.01676   1.95308   26.597
 5463.00    2.01250   1.92883   26.765
 5464.00    2.03509   1.92302   -1.000
 5465.00    2.04697   1.93657   -1.000
 5466.00    2.05854   1.95917   -1.000
 5467.00    2.07523   1.97962   -1.000
 5468.00    2.08270   1.99316   25.622
 5469.00    2.06934   1.99923   25.828
 5470.00    2.05845   1.99697   26.099
 5471.00    2.06321   1.98796   26.212
 5472.00    2.05567   1.97608   26.339
 5473.00    2.03105   1.96172   26.595
 5474.00    2.00953   1.94087   26.965
 5475.00    1.98886   1.91093   27.523
 5476.00    1.96113   1.87835   27.973
 5477.00    1.95561   1.85996   -1.000
 5478.00    1.98951   1.86967   -1.000
 5479.00    2.03460   1.90045   -1.000
 5480.00    2.03727   1.92791   -1.000
 5481.00    2.02889   1.93616   -1.000
 5482.00    2.02240   1.93528   26.886
 5483.00    2.03715   1.94502   -1.000
 5484.00    2.06871   1.96955   -1.000
 5485.00    2.09650   1.99507   -1.000
 5486.00    2.08420   2.00469   25.859
 5487.00    2.06559   1.99519   26.225
 5488.00    2.05212   1.97893   26.403
 5489.00    2.04371   1.97122   26.421
 5490.00    2.04443   1.97689   26.253
 5491.00    2.06670   1.98857   26.060
 5492.00    2.07943   1.99745   25.954
 5493.00    2.08149   2.00110   25.996
 5494.00    2.08930   2.00134   26.013
 5495.00    2.09337   1.99875   -1.000
 5496.00    2.06959   1.99146   26.180
 5497.00    2.04106   1.98133   26.368
 5498.00    2.05114   1.97547   26.260
 5499.00    2.07933   1.97707   -1.000
 5500.00    2.07491   1.97823   -1.000
 5501.00    2.05129   1.96889   26.534
 5502.00    2.04951   1.95303   -1.000
 5503.00    2.06179   1.94443   -1.000
 5504.00    2.07024   1.94521   -1.000
 5505.00    2.05474   1.94406   -1.000
 5506.00    2.02245   1.93510   26.947
 5507.00    2.01813   1.92717   -1.000
 5508.00    2.04876   1.93304   -1.000
 5509.00    2.07990   1.95069   -1.000
 5510.00    2.07030   1.96328   -1.000
 5511.00    2.03573   1.95813   26.818
 5512.00    2.00676   1.93708   27.275
 5513.00    2.00302   1.91457   -1.000
 5514.00    2.01872   1.90590   -1.000
 5515.00    2.03583   1.91618   -1.000
 5516.00    2.07309   1.94015   -1.000
 5517.00    2.10341   1.96994   -1.000
 5518.00    2.12758   1.99995   -1.000
 5519.00    2.14175   2.02459   -1.000
 5520.00    2.15080   2.03908   -1.000
 5521.00    2.13626   2.04311   -1.000
 5522.00    2.13949   2.04176   -1.000
 5523.00    2.14010   2.03911   -1.000
 5524.00    2.11779   2.03270   25.720
 5525.00    2.09188   2.01550   26.051
 5526.00    2.05936   1.98384   26.630
 5527.00    2.00962   1.94421   27.316
 5528.00    1.99477   1.91347   27.531
 5529.00    2.03835   1.91009   -1.000
 5530.00    2.08323   1.93723   -1.000
 5531.00    2.10106   1.97703   -1.000
 5532.00    2.11209   2.00454   -1.000
 5533.00    2.10163   2.01020   -1.000
 5534.00    2.08354   2.00163   26.302
 5535.00    2.08773   1.99178   -1.000
 5536.00    2.09433   1.99008   -1.000
 5537.00    2.11590   1.99772   -1.000
 5538.00    2.12740   2.00948   -1.000
 5539.00    2.14308   2.02117   -1.000
 5540.00    2.15720   2.03311   -1.000
 5541.00    2.15486   2.04275   -1.000
 5542.00    2.14231   2.04345   -1.000
 5543.00    2.12300   2.03405   25.885
 5544.00    2.11896   2.02270   -1.000
 5545.00    2.11885   2.01808   -1.000
 5546.00    2.12955   2.02226   -1.000
 5547.00    2.14576   2.03252   -1.000
 5548.00    2.14844   2.04710   -1.000
 5549.00    2.16873   2.06345   -1.000
 5550.00    2.18742   2.07542   -1.000
 5551.00    2.18432   2.07831   -1.000
 5552.00    2.17496   2.07213   -1.000
 5553.00    2.14582   2.05957   25.777
 5554.00    2.12352   2.04657   25.920
 5555.00    2.11935   2.03971   25.896
 5556.00    2.13703   2.04033   -1.000
 5557.00    2.14919   2.04426   -1.000
 5558.00    2.14551   2.04795   -1.000
 5559.00    2.14390   2.05110   -1.000
 5560.00    2.13867   2.05179   25.754
 5561.00    2.14273   2.04598   -1.000
 5562.00    2.13074   2.03356   -1.000
 5563.00    2.11013   2.01999   -1.000
 5564.00    2.10859   2.01034   -1.000
 5565.00    2.10761   2.00438   -1.000
 5566.00    2.09661   1.99954   -1.000
 5567.00    2.09626   1.99516   -1.000
 5568.00    2.09594   1.99208   -1.000
 5569.00    2.09354   1.99067   -1.000
 5570.00    2.09939   1.99032   -1.000
 5571.00    2.10038   1.98931   -1.000
 5572.00    2.09118   1.98589   -1.000
 5573.00    2.06003   1.98268   26.423
 5574.00    1.96228   1.98623   26.154
 5575.00    1.54079   1.99804   -1.000
 5576.00    0.70791   2.01131   -1.000
 5577.00   -0.05647   2.02199    0.000
 5578.00    0.16750   2.03279   -1.000
 5579.00    0.94065   2.04354   -1.000
 5580.00    1.58552   2.04996   -1.000
 5581.00    1.97851   2.05020   26.438
 5582.00    2.11421   2.04654   26.137
 5583.00    2.12567   2.04130   26.057
 5584.00    2.13743   2.03214   -1.000
 5585.00    2.11761   2.01113   -1.000
 5586.00    2.05929   1.97231   -1.000
 5587.00    2.01180   1.92342   -1.000
 5588.00    2.00960   1.88465   -1.000
 5589.00    2.02341   1.87216   -1.000
 5590.00    2.03622   1.88647   -1.000
 5591.00    2.06615   1.91602   -1.000
 5592.00    2.08678   1.94448   -1.000
 5593.00    2.08191   1.96205   -1.000
 5594.00    2.07338   1.97175   -1.000
 5595.00    2.10128   1.98333   -1.000
 5596.00    2.12892   1.99814   -1.000
 5597.00    2.12048   2.00536   -1.000
 5598.00    2.07758   1.99566   27.004
 5599.00    2.06401   1.97435   -1.000
 5600.00    2.06585   1.95423   -1.000
 5601.00    2.06960   1.93982   -1.000
 5602.00    2.05031   1.93287   -1.000
 5603.00    2.05494   1.94245   -1.000
 5604.00    2.10208   1.97480   -1.000
 5605.00    2.15475   2.02185   -1.000
 5606.00    2.18278   2.06661   -1.000
 5607.00    2.19614   2.09623   -1.000
 5608.00    2.19221   2.10956   25.475
 5609.00    2.19385   2.11321   25.527
 5610.00    2.19080   2.11445   25.510
 5611.00    2.19533   2.11605   25.434
 5612.00    2.19023   2.11192   25.533
 5613.00    2.15708   2.08974   26.024
 5614.00    2.09693   2.04383   26.902
 5615.00    2.06024   1.98787   27.566
 5616.00    2.06396   1.95058   -1.000
 5617.00    2.10710   1.95129   -1.000
 5618.00    2.13771   1.98073   -1.000
 5619.00    2.14428   2.01339   -1.000
 5620.00    2.15696   2.03649   -1.000
 5621.00    2.16257   2.05040   -1.000
 5622.00    2.16098   2.05430   -1.000
 5623.00    2.13389   2.04365   -1.000
 5624.00    2.10204   2.02134   27.138
 5625.00    2.09067   2.00269   -1.000
 5626.00    2.10733   2.00292   -1.000
 5627.00    2.14932   2.02230   -1.000
 5628.00    2.17213   2.04841   -1.000
 5629.00    2.18064   2.06941   -1.000
 5630.00    2.20135   2.08227   -1.000
 5631.00    2.20994   2.08918   -1.000
 5632.00    2.20712   2.09092   -1.000
 5633.00    2.20111   2.08719   -1.000
 5634.00    2.18706   2.07835   -1.000
 5635.00    2.17783   2.06587   -1.000
 5636.00    2.16129   2.05254   -1.000
 5637.00    2.13832   2.04196   -1.000
 5638.00    2.14131   2.03666   -1.000
 5639.00    2.15317   2.03621   -1.000
 5640.00    2.15049   2.03641   -1.000
 5641.00    2.14419   2.03420   -1.000
 5642.00    2.14539   2.03282   -1.000
 5643.00    2.15756   2.03668   -1.000
 5644.00    2.15074   2.04449   -1.000
 5645.00    2.15831   2.05304   -1.000
 5646.00    2.16874   2.06100   -1.000
 5647.00    2.17896   2.06663   -1.000
 5648.00    2.18576   2.06802   -1.000
 5649.00    2.18784   2.06624   -1.000
 5650.00    2.19573   2.06570   -1.000
 5651.00    2.19570   2.06994   -1.000
 5652.00    2.20731   2.07624   -1.000
 5653.00    2.20938   2.07753   -1.000
 5654.00    2.19410   2.07031   -1.000
 5655.00    2.17335   2.05600   -1.000
 5656.00    2.15129   2.03525   -1.000
 5657.00    2.09822   2.00677   -1.000
 5658.00    2.04776   1.97624   28.043
 5659.00    2.05927   1.95936   -1.000
 5660.00    2.09895   1.96511   -1.000
 5661.00    2.12409   1.98335   -1.000
 5662.00    2.12374   1.99937   -1.000
 5663.00    2.12756   2.01161   -1.000
 5664.00    2.14764   2.02708   -1.000
 5665.00    2.15468   2.04602   -1.000
 5666.00    2.15396   2.05875   -1.000
 5667.00    2.14193   2.05937   26.501
 5668.00    2.13491   2.05388   26.545
 5669.00    2.13895   2.05154   -1.000
 5670.00    2.15476   2.05648   -1.000
 5671.00    2.17979   2.06779   -1.000
 5672.00    2.19701   2.08242   -1.000
 5673.00    2.21578   2.09634   -1.000
 5674.00    2.22732   2.10563   -1.000
 5675.00    2.22626   2.10930   -1.000
 5676.00    2.21864   2.11018   -1.000
 5677.00    2.21134   2.11147   -1.000
 5678.00    2.20522   2.11194   -1.000
 5679.00    2.21057   2.10758   -1.000
 5680.00    2.21190   2.09599   -1.000
 5681.00    2.18615   2.07742   -1.000
 5682.00    2.16633   2.05518   -1.000
 5683.00    2.16929   2.03715   -1.000
 5684.00    2.17814   2.03131   -1.000
 5685.00    2.17737   2.03682   -1.000
 5686.00    2.16269   2.04333   -1.000
 5687.00    2.14804   2.04199   -1.000
 5688.00    2.15125   2.03602   -1.000
 5689.00    2.17216   2.03632   -1.000
 5690.00    2.19079   2.04936   -1.000
 5691.00    2.21902   2.07185   -1.000
 5692.00    2.22161   2.09427   -1.000
 5693.00    2.22036   2.10935   -1.000
 5694.00    2.23006   2.11603   -1.000
 5695.00    2.22247   2.11699   -1.000
 5696.00    2.20614   2.11422   -1.000
 5697.00    2.20446   2.10736   -1.000
 5698.00    2.18521   2.09563   -1.000
 5699.00    2.16510   2.07988   -1.000
 5700.00    2.15848   2.06339   -1.000
 5701.00    2.14356   2.05040   -1.000
 5702.00    2.13621   2.04485   -1.000
 5703.00    2.15252   2.04821   -1.000
 5704.00    2.13673   2.05546   26.383
 5705.00    2.13605   2.05722   26.543
 5706.00    2.13290   2.04723   -1.000
 5707.00    2.10550   2.02689   27.402
 5708.00    2.08068   2.00188   27.839
 5709.00    2.06780   1.97906   -1.000
 5710.00    2.06342   1.96648   -1.000
 5711.00    2.07174   1.97007   -1.000
 5712.00    2.10759   1.99030   -1.000
 5713.00    2.15549   2.02309   -1.000
 5714.00    2.19458   2.05954   -1.000
 5715.00    2.20930   2.08860   -1.000
 5716.00    2.22888   2.10581   -1.000
 5717.00    2.22754   2.11502   -1.000
 5718.00    2.21120   2.12218   -1.000
 5719.00    2.21717   2.13071   25.516
 5720.00    2.23057   2.14164   -1.000
 5721.00    2.25092   2.15358   -1.000
 5722.00    2.26492   2.16384   -1.000
 5723.00    2.26069   2.17031   -1.000
 5724.00    2.25388   2.17142   25.309
 5725.00    2.23931   2.16514   25.512
 5726.00    2.20979   2.15175   25.780
 5727.00    2.19029   2.13733   25.991
 5728.00    2.19488   2.13014   25.880
 5729.00    2.20864   2.13166   25.721
 5730.00    2.20873   2.13552   25.773
 5731.00    2.20608   2.13583   25.903
 5732.00    2.21894   2.13505   25.826
 5733.00    2.24798   2.14040   -1.000
 5734.00    2.26585   2.15260   -1.000
 5735.00    2.25762   2.16417   -1.000
 5736.00    2.25040   2.16830   25.452
 5737.00    2.23755   2.16549   25.525
 5738.00    2.24394   2.16125   25.550
 5739.00    2.24993   2.15952   -1.000
 5740.00    2.23915   2.15979   25.642
 5741.00    2.23774   2.15923   25.698
 5742.00    2.23766   2.15726   25.647
 5743.00    2.23683   2.15701   25.618
 5744.00    2.25795   2.16141   -1.000
 5745.00    2.25605   2.16788   -1.000
 5746.00    2.25183   2.16960   25.416
 5747.00    2.24569   2.16351   25.664
 5748.00    2.23543   2.15593   25.777
 5749.00    2.23158   2.15506   25.643
 5750.00    2.24437   2.15905   -1.000
 5751.00    2.23844   2.15640   25.734
 5752.00    2.21577   2.14011   26.044
 5753.00    2.18561   2.11751   26.311
 5754.00    2.17620   2.10470   26.327
 5755.00    2.21624   2.11263   -1.000
 5756.00    2.25387   2.13795   -1.000
 5757.00    2.27815   2.16608   -1.000
 5758.00    2.27806   2.18292   -1.000
 5759.00    2.27486   2.18231   -1.000
 5760.00    2.24678   2.16636   25.874
 5761.00    2.21663   2.14228   26.228
 5762.00    2.20022   2.12102   26.379
 5763.00    2.19290   2.11455   26.127
 5764.00    2.22660   2.12866   -1.000
 5765.00    2.24994   2.15617   -1.000
 5766.00    2.25072   2.18243   25.244
 5767.00    2.26430   2.19754   25.217
 5768.00    2.26857   2.20170   25.175
 5769.00    2.27320   2.19983   25.218
 5770.00    2.26725   2.19534   25.301
 5771.00    2.24591   2.18880   25.437
 5772.00    2.23347   2.17984   25.595
 5773.00    2.22526   2.17003   25.667
 5774.00    2.22440   2.16282   25.700
 5775.00    2.21996   2.16079   25.654
 5776.00    2.21828   2.16391   25.530
 5777.00    2.20063   2.16794   25.496
 5778.00    2.16226   2.16446   25.568
 5779.00    2.10595   2.14716   25.916
 5780.00    2.04672   2.11833   26.490
 5781.00    2.03494   2.08821   26.861
 5782.00    2.07166   2.06822   26.846
 5783.00    2.11925   2.06271   26.742
 5784.00    2.15217   2.06647   -1.000
 5785.00    2.16684   2.07364   -1.000
 5786.00    2.18465   2.08535   -1.000
 5787.00    2.22267   2.10464   -1.000
 5788.00    2.24546   2.12677   -1.000
 5789.00    2.25042   2.14147   -1.000
 5790.00    2.24264   2.14447   -1.000
 5791.00    2.23649   2.14216   -1.000
 5792.00    2.23571   2.14548   -1.000
 5793.00    2.23558   2.15939   25.426
 5794.00    2.24184   2.17853   25.271
 5795.00    2.25389   2.19326   25.241
 5796.00    2.21016   2.19702   25.378
 5797.00    2.19147   2.19071   25.543
 5798.00    2.21460   2.18358   25.448
 5799.00    2.26200   2.18633   25.138
 5800.00    2.30805   2.20023   -1.000
 5801.00    2.30822   2.21605   -1.000
 5802.00    2.30140   2.22370   24.893
 5803.00    2.29082   2.21931   25.091
 5804.00    2.28020   2.20641   25.296
 5805.00    2.27823   2.19322   -1.000
 5806.00    2.27490   2.18702   -1.000
 5807.00    2.28308   2.18897   -1.000
 5808.00    2.28390   2.19512   -1.000
 5809.00    2.27664   2.20165   25.194
 5810.00    2.29085   2.20725   -1.000
 5811.00    2.30658   2.21113   -1.000
 5812.00    2.29000   2.21152   25.008
 5813.00    2.29070   2.20707   25.046
 5814.00    2.29485   2.19758   -1.000
 5815.00    2.27459   2.18510   -1.000
 5816.00    2.26997   2.17603   -1.000
 5817.00    2.28304   2.17845   -1.000
 5818.00    2.29833   2.19320   -1.000
 5819.00    2.30122   2.21119   -1.000
 5820.00    2.31290   2.22269   -1.000
 5821.00    2.31444   2.22572   -1.000
 5822.00    2.31232   2.22399   -1.000
 5823.00    2.31064   2.22153   -1.000
 5824.00    2.31020   2.22029   -1.000
 5825.00    2.31306   2.22072   -1.000
 5826.00    2.31661   2.22288   -1.000
 5827.00    2.31617   2.22640   -1.000
 5828.00    2.32572   2.23009   -1.000
 5829.00    2.32595   2.23274   -1.000
 5830.00    2.32411   2.23393   -1.000
 5831.00    2.31830   2.23379   -1.000
 5832.00    2.30555   2.23199   24.732
 5833.00    2.29843   2.22788   24.889
 5834.00    2.30756   2.22211   -1.000
 5835.00    2.32659   2.21776   -1.000
 5836.00    2.32418   2.21780   -1.000
 5837.00    2.32197   2.22122   -1.000
 5838.00    2.32693   2.22453   -1.000
 5839.00    2.32677   2.22710   -1.000
 5840.00    2.32040   2.23132   -1.000
 5841.00    2.30877   2.23746   24.568
 5842.00    2.31320   2.24230   24.562
 5843.00    2.32872   2.24262   -1.000
 5844.00    2.32582   2.23785   -1.000
 5845.00    2.31366   2.22899   -1.000
 5846.00    2.29624   2.21772   25.022
 5847.00    2.27831   2.20737   25.146
 5848.00    2.26426   2.20145   25.132
 5849.00    2.25584   2.19968   25.164
 5850.00    2.26519   2.19700   25.300
 5851.00    2.26485   2.18825   25.458
 5852.00    2.24656   2.17346   25.702
 5853.00    2.22263   2.15808   25.839
 5854.00    2.22187   2.14703   25.889
 5855.00    2.23934   2.13785   -1.000
 5856.00    2.22387   2.12276   -1.000
 5857.00    2.19702   2.10068   -1.000
 5858.00    2.20359   2.08472   -1.000
 5859.00    2.23147   2.08902   -1.000
 5860.00    2.25362   2.11120   -1.000
 5861.00    2.26463   2.13652   -1.000
 5862.00    2.26418   2.15427   -1.000
 5863.00    2.26377   2.16423   -1.000
 5864.00    2.26198   2.16977   -1.000
 5865.00    2.25431   2.17019   25.626
 5866.00    2.25397   2.16467   -1.000
 5867.00    2.25938   2.15912   -1.000
 5868.00    2.27089   2.16202   -1.000
 5869.00    2.28592   2.17529   -1.000
 5870.00    2.30170   2.19211   -1.000
 5871.00    2.30115   2.20339   -1.000
 5872.00    2.30704   2.20534   -1.000
 5873.00    2.31227   2.20081   -1.000
 5874.00    2.29004   2.19502   -1.000
 5875.00    2.28847   2.19052   -1.000
 5876.00    2.30160   2.18627   -1.000
 5877.00    2.29202   2.18029   -1.000
 5878.00    2.26756   2.17179   -1.000
 5879.00    2.25824   2.16154   -1.000
 5880.00    2.25238   2.15177   -1.000
 5881.00    2.25386   2.14432   -1.000
 5882.00    2.27300   2.13807   -1.000
 5883.00    2.26522   2.13012   -1.000
 5884.00    2.25616   2.11982   -1.000
 5885.00    2.24991   2.10717   -1.000
 5886.00    2.21317   2.08343   -1.000
 5887.00    2.08991   2.02846   27.105
 5888.00    1.80387   1.92900   28.821
 5889.00    1.48191   1.80487   -1.000
 5890.00    1.39773   1.70980   -1.000
 5891.00    1.59753   1.69001   30.659
 5892.00    1.85644   1.73583   -1.000
 5893.00    1.95929   1.79028   -1.000
 5894.00    1.87180   1.80580   29.059
 5895.00    1.68633   1.78133   29.864
 5896.00    1.60966   1.75632   -1.000
 5897.00    1.77612   1.77268   29.049
 5898.00    1.99030   1.83649   -1.000
 5899.00    2.13048   1.91860   -1.000
 5900.00    2.19687   1.99091   -1.000
 5901.00    2.21767   2.04663   -1.000
 5902.00    2.23339   2.08770   -1.000
 5903.00    2.24414   2.11461   -1.000
 5904.00    2.25549   2.12904   -1.000
 5905.00    2.25302   2.13568   -1.000
 5906.00    2.24105   2.14020   -1.000
 5907.00    2.24611   2.14608   -1.000
 5908.00    2.25093   2.15342   -1.000
 5909.00    2.25087   2.16077   -1.000
 5910.00    2.25456   2.16649   -1.000
 5911.00    2.25681   2.16813   -1.000
 5912.00    2.24554   2.16223   26.048
 5913.00    2.21405   2.14742   26.405
 5914.00    2.19786   2.12877   26.622
 5915.00    2.19893   2.11585   26.589
 5916.00    2.20736   2.11478   -1.000
 5917.00    2.22051   2.12485   -1.000
 5918.00    2.23346   2.14110   -1.000
 5919.00    2.22979   2.15711   26.162
 5920.00    2.23081   2.16745   26.067
 5921.00    2.23342   2.17056   26.068
 5922.00    2.23468   2.16912   26.093
 5923.00    2.23109   2.16784   25.998
 5924.00    2.23417   2.17048   25.913
 5925.00    2.25130   2.17708   25.863
 5926.00    2.24874   2.18360   25.842
 5927.00    2.26434   2.18408   25.886
 5928.00    2.24447   2.17545   26.065
 5929.00    2.22848   2.16183   26.270
 5930.00    2.24479   2.15264   -1.000
 5931.00    2.25967   2.15426   -1.000
 5932.00    2.26349   2.16312   -1.000
 5933.00    2.25664   2.16951   -1.000
 5934.00    2.24792   2.16964   26.242
 5935.00    2.23977   2.16986   26.293
 5936.00    2.25527   2.17645   26.140
 5937.00    2.28056   2.18726   -1.000
 5938.00    2.28855   2.19509   -1.000
 5939.00    2.27296   2.19481   25.893
 5940.00    2.24278   2.18654   26.152
 5941.00    2.23054   2.17541   26.307
 5942.00    2.24264   2.16889   26.300
 5943.00    2.25320   2.17119   26.154
 5944.00    2.26277   2.18000   25.999
 5945.00    2.26038   2.18881   25.893
 5946.00    2.25561   2.19148   25.954
 5947.00    2.25349   2.18577   26.178
 5948.00    2.23313   2.17525   26.454
 5949.00    2.22482   2.16742   26.530
 5950.00    2.23731   2.16651   26.406
 5951.00    2.24227   2.16884   26.303
 5952.00    2.24062   2.16825   26.360
 5953.00    2.24140   2.16526   26.347
 5954.00    2.24898   2.16486   -1.000
 5955.00    2.24993   2.16633   -1.000
 5956.00    2.23999   2.16477   26.402
 5957.00    2.23702   2.16144   26.446
 5958.00    2.24992   2.16321   -1.000
 5959.00    2.27424   2.17375   -1.000
 5960.00    2.28785   2.18980   -1.000
 5961.00    2.29105   2.20462   -1.000
 5962.00    2.29599   2.21346   25.661
 5963.00    2.29712   2.21533   25.715
 5964.00    2.29053   2.21142   25.853
 5965.00    2.28115   2.20459   25.944
 5966.00    2.27736   2.19931   26.038
 5967.00    2.26963   2.19925   25.989
 5968.00    2.28300   2.20441   25.798
 5969.00    2.29003   2.21217   25.724
 5970.00    2.29297   2.22031   25.715
 5971.00    2.30214   2.22694   25.662
 5972.00    2.28057   2.22975   25.632
 5973.00    2.28498   2.22693   25.759
 5974.00    2.28849   2.21737   25.962
 5975.00    2.25904   2.20170   26.161
 5976.00    2.25160   2.18429   26.349
 5977.00    2.24187   2.17235   26.472
 5978.00    2.25062   2.17137   26.370
 5979.00    2.26624   2.18105   -1.000
 5980.00    2.27422   2.19479   26.040
 5981.00    2.27360   2.20278   26.092
 5982.00    2.27746   2.19794   26.297
 5983.00    2.25526   2.18169   26.529
 5984.00    2.23885   2.16432   26.667
 5985.00    2.24348   2.15756   -1.000
 5986.00    2.25895   2.16471   -1.000
 5987.00    2.26998   2.17941   -1.000
 5988.00    2.27853   2.19356   -1.000
 5989.00    2.27837   2.20327   25.936
 5990.00    2.27656   2.20824   25.963
 5991.00    2.28244   2.21099   26.024
 5992.00    2.29526   2.21639   25.910
 5993.00    2.31180   2.22700   -1.000
 5994.00    2.31122   2.23775   25.613
 5995.00    2.30418   2.24006   25.775
 5996.00    2.29174   2.23164   25.957
 5997.00    2.28052   2.21879   26.076
 5998.00    2.28218   2.20997   26.134
 5999.00    2.28292   2.20857   26.095
 6000.00    2.29076   2.21109   26.113
 6001.00    2.27880   2.21145   26.260
 6002.00    2.26511   2.20713   26.354
 6003.00    2.26068   2.20163   26.351
 6004.00    2.25731   2.19945   26.283
 6005.00    2.25719   2.19834   26.293
 6006.00    2.24642   2.19098   26.471
 6007.00    2.23583   2.17657   26.735
 6008.00    2.23341   2.16554   26.754
 6009.00    2.24189   2.16892   26.466
 6010.00    2.25022   2.18503   26.187
 6011.00    2.26397   2.20048   26.177
 6012.00    2.27517   2.20476   26.368
 6013.00    2.28018   2.19980   -1.000
 6014.00    2.28486   2.19374   -1.000
 6015.00    2.27180   2.19077   -1.000
 6016.00    2.27003   2.18953   -1.000
 6017.00    2.27991   2.18794   -1.000
 6018.00    2.27278   2.18511   -1.000
 6019.00    2.26316   2.17992   -1.000
 6020.00    2.25720   2.17295   -1.000
 6021.00    2.25404   2.16859   -1.000
 6022.00    2.25581   2.17062   -1.000
 6023.00    2.25392   2.17776   -1.000
 6024.00    2.26700   2.18758   -1.000
 6025.00    2.27901   2.20038   -1.000
 6026.00    2.28896   2.21540   26.130
 6027.00    2.29792   2.22938   25.973
 6028.00    2.30551   2.24107   25.854
 6029.00    2.31339   2.25120   25.813
 6030.00    2.32073   2.25905   25.818
 6031.00    2.31546   2.26405   25.875
 6032.00    2.30499   2.26813   25.837
 6033.00    2.31938   2.27353   25.725
 6034.00    2.32614   2.27971   25.655
 6035.00    2.32897   2.28389   25.641
 6036.00    2.32936   2.28409   25.596
 6037.00    2.32795   2.28075   25.617
 6038.00    2.32409   2.27515   25.756
 6039.00    2.31450   2.26831   25.817
 6040.00    2.30641   2.26182   25.896
 6041.00    2.32416   2.25824   25.852
 6042.00    2.32800   2.25950   25.813
 6043.00    2.32441   2.26548   25.689
 6044.00    2.33571   2.27394   25.488
 6045.00    2.34756   2.28194   25.484
 6046.00    2.35550   2.28799   25.494
 6047.00    2.34786   2.29271   25.455
 6048.00    2.34114   2.29663   25.475
 6049.00    2.35144   2.29909   25.560
 6050.00    2.34226   2.29950   25.621
 6051.00    2.35261   2.29761   25.646
 6052.00    2.34804   2.29249   25.693
 6053.00    2.34008   2.28336   25.794
 6054.00    2.32662   2.27139   25.876
 6055.00    2.30131   2.25965   26.014
 6056.00    2.30586   2.25220   26.100
 6057.00    2.31461   2.25225   26.064
 6058.00    2.32598   2.25950   25.932
 6059.00    2.32521   2.26985   25.797
 6060.00    2.32143   2.27801   25.815
 6061.00    2.32267   2.27963   25.873
 6062.00    2.31550   2.27188   26.219
 6063.00    2.34944   2.25471   -1.000
 6064.00    2.22203   2.23281   25.957
 6065.00    2.22291   2.21671   38.845
 6066.00    1.30551   2.21774   -1.000
 6067.00    1.13489   2.23692   -1.000
 6068.00    1.99896   2.26335   -1.000
 6069.00    2.38640   2.28566   -1.000
 6070.00    2.24594   2.29983   25.251
 6071.00    2.33794   2.30735   24.873
 6072.00    1.07913   2.31101   -1.000
 6073.00    1.30190   2.31270   -1.000
 6074.00    2.26805   2.31253   25.592
 6075.00    2.36544   2.30900   25.672
 6076.00    2.33961   2.30043   25.803
 6077.00    2.32397   2.28697   25.950
 6078.00    2.30647   2.27185   26.148
 6079.00    2.30094   2.25978   26.312
 6080.00    2.30301   2.25244   26.339
 6081.00    2.30294   2.24730   26.361
 6082.00    2.29253   2.24259   26.432
 6083.00    2.28740   2.23963   26.438
 6084.00    2.28333   2.23967   26.419
 6085.00    2.28130   2.24287   26.392
 6086.00    2.29046   2.24915   26.319
 6087.00    2.30461   2.25655   26.215
 6088.00    2.30568   2.26050   26.252
 6089.00    2.28726   2.25798   26.404
 6090.00    2.27448   2.25107   26.522
 6091.00    2.27348   2.24530   26.519
 6092.00    2.28416   2.24531   26.361
 6093.00    2.30283   2.25205   26.224
 6094.00    2.31812   2.26289   26.078
 6095.00    2.32276   2.27368   25.962
 6096.00    2.32395   2.28168   25.960
 6097.00    2.32801   2.28687   26.022
 6098.00    2.32109   2.28948   26.043
 6099.00    2.31122   2.28566   26.046
 6100.00    2.29775   2.26765   26.328
 6101.00    2.26655   2.23253   26.948
 6102.00    2.21880   2.19164   27.409
 6103.00    2.21190   2.16745   27.270
 6104.00    2.25284   2.17426   -1.000
 6105.00    2.28624   2.20366   -1.000
 6106.00    2.29093   2.23577   26.233
 6107.00    2.28512   2.25891   26.319
 6108.00    2.29440   2.27344   26.390
 6109.00    2.29782   2.28314   26.385
 6110.00    2.30445   2.28873   26.332
 6111.00    2.30335   2.29052   26.221
 6112.00    2.30991   2.29187   26.204
 6113.00    2.31126   2.29584   26.079
 6114.00    2.31499   2.30092   26.006
 6115.00    2.32248   2.30313   26.092
 6116.00    2.31417   2.30102   26.261
 6117.00    2.30839   2.29614   26.312
 6118.00    2.29437   2.28739   26.429
 6119.00    2.27520   2.26930   26.789
 6120.00    2.25246   2.23845   27.145
 6121.00    2.21303   2.20111   27.412
 6122.00    2.21053   2.17326   27.457
 6123.00    2.24754   2.16853   -1.000
 6124.00    2.27021   2.18585   -1.000
 6125.00    2.27501   2.21200   26.650
 6126.00    2.26919   2.23372   26.795
 6127.00    2.25062   2.24600   26.782
 6128.00    2.27783   2.25280   26.723
 6129.00    2.28698   2.26216   26.520
 6130.00    2.29200   2.27776   26.270
 6131.00    2.28453   2.29497   26.196
 6132.00    2.28974   2.30544   26.238
 6133.00    2.28650   2.30118   26.469
 6134.00    2.24751   2.27523   27.037
 6135.00    2.18777   2.22734   27.827
 6136.00    2.12823   2.17223   28.543
 6137.00    2.11711   2.13598   28.689
 6138.00    2.15205   2.13530   28.040
 6139.00    2.20125   2.16057   27.244
 6140.00    2.22066   2.18903   26.895
 6141.00    2.22473   2.21044   26.914
 6142.00    2.21875   2.23024   26.963
 6143.00    2.23383   2.25389   26.721
 6144.00    2.27210   2.27692   26.400
 6145.00    2.28781   2.29072   26.332
 6146.00    2.28352   2.29195   26.442
 6147.00    2.28467   2.28345   26.608
 6148.00    2.26723   2.27032   26.799
 6149.00    2.24732   2.25773   26.960
 6150.00    2.23604   2.25008   26.977
 6151.00    2.23826   2.25023   26.885
 6152.00    2.25914   2.25630   26.704
 6153.00    2.26004   2.26067   26.655
 6154.00    2.25673   2.25723   26.859
 6155.00    2.25747   2.24831   27.010
 6156.00    2.23986   2.24015   27.039
 6157.00    2.22336   2.23389   27.141
 6158.00    2.20768   2.22280   27.414
 6159.00    2.17775   2.19603   27.918
 6160.00    2.12323   2.14742   28.739
 6161.00    2.05942   2.08571   29.583
 6162.00    2.02816   2.03451   29.925
 6163.00    2.05288   2.01626   29.545
 6164.00    2.09500   2.03411   28.753
 6165.00    2.11450   2.07146   28.274
 6166.00    2.12261   2.10685   28.128
 6167.00    2.13147   2.12479   28.186
 6168.00    2.11962   2.12097   28.528
 6169.00    2.09146   2.10696   28.830
 6170.00    2.08603   2.10367   28.665
 6171.00    2.11657   2.12101   28.133
 6172.00    2.14215   2.15020   27.722
 6173.00    2.14774   2.17741   27.711
 6174.00    2.15950   2.19602   27.739
 6175.00    2.16764   2.20636   27.678
 6176.00    2.16690   2.21215   27.623
 6177.00    2.16918   2.21782   27.550
 6178.00    2.17303   2.22499   27.419
 6179.00    2.17702   2.23235   27.316
 6180.00    2.18848   2.23952   27.228
 6181.00    2.20076   2.24768   27.105
 6182.00    2.20599   2.25578   27.030
 6183.00    2.20864   2.25989   27.074
 6184.00    2.19293   2.25685   27.168
 6185.00    2.17618   2.24663   27.374
 6186.00    2.16729   2.23165   27.669
 6187.00    2.14838   2.21532   27.958
 6188.00    2.13250   2.19909   28.226
 6189.00    2.11930   2.18029   28.435
 6190.00    2.08287   2.15730   28.794
 6191.00    2.06485   2.13829   28.998
 6192.00    2.08179   2.13723   28.717
 6193.00    2.12369   2.15726   28.029
 6194.00    2.15941   2.18695   27.546
 6195.00    2.16350   2.21368   27.355
 6196.00    2.16802   2.23134   27.307
 6197.00    2.17305   2.23768   27.467
 6198.00    2.15884   2.23301   27.778
 6199.00    2.14707   2.22256   28.015
 6200.00    2.13439   2.21578   28.010
 6201.00    2.13627   2.21949   27.744
 6202.00    2.14694   2.23224   27.398
 6203.00    2.15142   2.24769   27.297
 6204.00    2.15579   2.26073   27.297
 6205.00    2.16827   2.26970   27.255
 6206.00    2.18877   2.27529   27.249
 6207.00    2.20419   2.27857   27.347
 6208.00    2.20559   2.27917   27.355
 6209.00    2.18964   2.27503   27.464
 6210.00    2.16500   2.26386   27.707
 6211.00    2.15362   2.24436   27.928
 6212.00    2.13659   2.21758   28.197
 6213.00    2.10573   2.18871   28.616
 6214.00    2.09368   2.16598   28.919
 6215.00    2.08810   2.15505   29.012
 6216.00    2.09489   2.15472   28.668
 6217.00    2.10519   2.15818   28.503
 6218.00    2.10563   2.15887   28.694
 6219.00    2.10747   2.15653   28.621
 6220.00    2.10466   2.15685   28.412
 6221.00    2.10220   2.16386   28.554
 6222.00    2.14465   2.17477   30.511
 6223.00    2.09566   2.18401   29.828
 6224.00    1.82251   2.18979   -1.000
 6225.00    2.02347   2.19325   -1.000
 6226.00    2.13345   2.19406   28.265
 6227.00    2.14263   2.18856   28.411
 6228.00    2.12411   2.17195   28.781
 6229.00    2.08987   2.14441   29.256
 6230.00    2.05390   2.11556   29.641
 6231.00    2.05018   2.10000   29.559
 6232.00    2.06344   2.10642   29.154
 6233.00    2.10271   2.13151   28.610
 6234.00    2.13531   2.16322   28.137
 6235.00    2.15477   2.18801   27.977
 6236.00    2.15984   2.19772   28.140
 6237.00    2.13353   2.19267   28.420
 6238.00    2.11611   2.17955   28.710
 6239.00    2.10410   2.16594   29.015
 6240.00    2.09480   2.15582   29.154
 6241.00    2.07853   2.14844   29.153
 6242.00    2.06245   2.14025   29.344
 6243.00    2.05718   2.12933   29.543
 6244.00    2.06417   2.11808   29.544
 6245.00    2.07982   2.11188   29.369
 6246.00    2.09027   2.11640   29.085
 6247.00    2.09985   2.13402   28.721
 6248.00    2.13308   2.15966   28.414
 6249.00    2.13485   2.18155   28.359
 6250.00    2.11939   2.18809   28.598
 6251.00    2.09146   2.17571   29.106
 6252.00    2.06313   2.15147   29.487
 6253.00    2.06250   2.12791   29.702
 6254.00    2.06753   2.11350   29.795
 6255.00    2.05832   2.10751   29.791
 6256.00    2.04042   2.10415   30.032
 6257.00    2.01324   2.10051   30.305
 6258.00    2.02694   2.10007   30.216
 6259.00    2.04932   2.10856   29.787
 6260.00    2.07835   2.12837   29.336
 6261.00    2.10360   2.15619   28.934
 6262.00    2.12237   2.18405   28.491
 6263.00    2.12806   2.20358   28.317
 6264.00    2.11388   2.21182   28.508
 6265.00    2.11377   2.21350   28.707
 6266.00    2.10922   2.21558   28.611
 6267.00    2.10282   2.21972   28.406
 6268.00    2.10788   2.22215   28.473
 6269.00    2.09983   2.22066   28.618
 6270.00    2.08857   2.21855   28.600
 6271.00    2.10491   2.22019   28.505
 6272.00    2.13155   2.22476   28.434
 6273.00    2.13856   2.22610   28.494
 6274.00    2.12029   2.21817   28.690
 6275.00    2.10012   2.20029   28.921
 6276.00    2.06529   2.17717   29.360
 6277.00    2.02838   2.15499   30.080
 6278.00    1.99553   2.13782   -1.000
 6279.00    1.96537   2.12756   -1.000
 6280.00    1.95644   2.12659   -1.000
 6281.00    1.94447   2.13707   -1.000
 6282.00    1.95049   2.15772   -1.000
 6283.00    1.95683   2.18341   -1.000
 6284.00    1.98124   2.20788   -1.000
 6285.00    2.01630   2.22730   -1.000
 6286.00    2.06139   2.24130   -1.000
 6287.00    2.10511   2.25066   -1.000
 6288.00    2.13222   2.25464   28.204
 6289.00    2.14402   2.25163   28.334
 6290.00    2.14281   2.24287   28.568
 6291.00    2.14501   2.23283   28.785
 6292.00    2.13650   2.22555   28.859
 6293.00    2.11874   2.22190   28.890
 6294.00    2.11423   2.21920   28.940
 6295.00    2.10520   2.21302   29.145
 6296.00    2.09162   2.20161   29.344
 6297.00    2.07335   2.18913   29.405
 6298.00    2.05578   2.18122   29.369
 6299.00    2.06533   2.17775   29.253
 6300.00    2.06791   2.17406   29.122
 6301.00    2.06407   2.16936   29.326
 6302.00    2.07700   2.17005   29.658
 6303.00    2.09885   2.18215   29.480
 6304.00    2.12125   2.20335   29.027
 6305.00    2.13074   2.22608   28.657
 6306.00    2.13886   2.24512   28.402
 6307.00    2.16038   2.25876   28.146
 6308.00    2.16737   2.26620   28.075
 6309.00    2.15146   2.26752   28.183
 6310.00    2.15449   2.26452   28.369
 6311.00    2.14746   2.25939   28.489
 6312.00    2.13024   2.25270   28.604
 6313.00    2.13075   2.24322   28.642
 6314.00    2.11851   2.23061   28.877
 6315.00    2.10897   2.21710   29.005
 6316.00    2.11425   2.20532   28.997
 6317.00    2.11355   2.19717   28.968
 6318.00    2.10175   2.19601   29.001
 6319.00    2.10849   2.20534   28.913
 6320.00    2.14431   2.22312   28.590
 6321.00    2.16762   2.24201   28.298
 6322.00    2.16329   2.25750   28.170
 6323.00    2.17148   2.27114   28.077
 6324.00    2.18404   2.28424   27.931
 6325.00    2.19019   2.29448   27.835
 6326.00    2.19491   2.29984   27.812
 6327.00    2.20314   2.30145   27.688
 6328.00    2.20338   2.30178   27.692
 6329.00    2.20210   2.30248   27.716
 6330.00    2.20639   2.30446   27.735
 6331.00    2.22069   2.30782   27.648
 6332.00    2.22197   2.30921   27.594
 6333.00    2.20391   2.30207   27.655
 6334.00    2.18215   2.28332   27.727
 6335.00    2.18185   2.25899   28.303
 6336.00    2.19136   2.24110   28.454
 6337.00    2.16856   2.23811   28.242
 6338.00    2.18702   2.24916   27.957
 6339.00    2.20529   2.26762   27.651
 6340.00    2.21685   2.28619   27.494
 6341.00    2.22492   2.29805   27.362
 6342.00    2.21259   2.29914   27.363
 6343.00    2.19468   2.29173   27.585
 6344.00    2.18532   2.28338   27.655
 6345.00    2.18313   2.28121   27.590
 6346.00    2.18798   2.28774   27.448
 6347.00    2.20143   2.30150   27.260
 6348.00    2.23268   2.31877   27.144
 6349.00    2.22893   2.33438   27.138
 6350.00    2.22667   2.34401   27.088
 6351.00    2.21811   2.34597   27.101
 6352.00    2.20600   2.34024   27.208
 6353.00    2.19843   2.32799   27.333
 6354.00    2.18835   2.31279   27.624
 6355.00    2.16780   2.29945   27.877
 6356.00    2.16695   2.28929   27.918
 6357.00    2.17199   2.27910   27.986
 6358.00    2.15662   2.26676   28.277
 6359.00    2.14491   2.25434   28.429
 6360.00    2.14173   2.24404   28.342
 6361.00    2.14713   2.23634   28.244
 6362.00    2.14664   2.23268   28.210
 6363.00    2.14887   2.23565   28.123
 6364.00    2.16006   2.24590   27.947
 6365.00    2.17084   2.26126   27.767
 6366.00    2.19717   2.27861   27.614
 6367.00    2.21664   2.29478   27.442
 6368.00    2.21946   2.30646   27.260
 6369.00    2.22160   2.31216   27.174
 6370.00    2.22645   2.31469   27.184
 6371.00    2.23577   2.31916   27.108
 6372.00    2.24323   2.32764   27.001
 6373.00    2.23228   2.33725   27.048
 6374.00    2.22432   2.34360   27.079
 6375.00    2.22983   2.34469   27.131
 6376.00    2.21855   2.34080   27.227
 6377.00    2.19802   2.33305   27.361
 6378.00    2.18538   2.32337   27.543
 6379.00    2.18123   2.31413   27.660
 6380.00    2.17255   2.30704   27.689
 6381.00    2.17778   2.30284   27.736
 6382.00    2.18179   2.30155   27.738
 6383.00    2.18953   2.30274   27.672
 6384.00    2.18005   2.30647   27.772
 6385.00    2.18590   2.31292   27.848
 6386.00    2.18350   2.32052   27.835
 6387.00    2.16724   2.32628   -1.000
 6388.00    2.15646   2.32859   -1.000
 6389.00    2.15421   2.32730   -1.000
 6390.00    2.13130   2.32086   -1.000
 6391.00    2.11110   2.30681   -1.000
 6392.00    2.09068   2.28734   -1.000
 6393.00    2.07712   2.27210   -1.000
 6394.00    2.07422   2.27144   -1.000
 6395.00    2.07831   2.28607   -1.000
 6396.00    2.08867   2.30473   -1.000
 6397.00    2.08220   2.31249   -1.000
 6398.00    2.05992   2.30227   -1.000
 6399.00    2.02663   2.28153   -1.000
 6400.00    2.01230   2.26765   -1.000
 6401.00    2.02080   2.27335   -1.000
 6402.00    2.03884   2.29643   -1.000
 6403.00    2.05690   2.32384   -1.000
 6404.00    2.05454   2.34248   -1.000
 6405.00    2.03414   2.34592   -1.000
 6406.00    2.01126   2.33622   -1.000
 6407.00    1.98665   2.32255   -1.000
 6408.00    1.97137   2.31423   -1.000
 6409.00    1.96515   2.31255   -1.000
 6410.00    1.95061   2.31185   -1.000
 6411.00    1.92118   2.30925   -1.000
 6412.00    1.90664   2.30829   -1.000
 6413.00    1.92011   2.31216   -1.000
 6414.00    1.91743   2.31915   -1.000
 6415.00    1.91185   2.32596   -1.000
 6416.00    1.89955   2.33044   -1.000
 6417.00    1.88146   2.32993   -1.000
 6418.00    1.84760   2.32143   -1.000
 6419.00    1.82667   2.30600   -1.000
 6420.00    1.79501   2.29139   -1.000
 6421.00    1.77688   2.28820   -1.000
 6422.00    1.78645   2.30137   -1.000
 6423.00    1.79841   2.32506   -1.000
 6424.00    1.79158   2.34881   -1.000
 6425.00    1.78072   2.36685   -1.000
 6426.00    1.76014   2.37787   -1.000
 6427.00    1.74352   2.37967   -1.000
 6428.00    1.72204   2.36871   -1.000
